x_pos,y_pos,x_vel,y_vel,angle,ang_vel,leg_1,leg_2,main_booster,lat_booster
-0.0015153884887695,1.4029426574707031,-0.1540979892015457,-0.3545568287372589,0.0022917133755981,0.0452455691993236,0.0,0.0,-0.251778244972229,0.7148993015289307
-0.0029613494407385,1.3943030834197998,-0.1458402276039123,-0.3839790523052215,0.0035155480727553,0.0244800820946693,0.0,0.0,-0.0582850575447082,0.937944769859314
-0.0043085096403956,1.3849748373031616,-0.1341992914676666,-0.414585679769516,0.0029985080473124,-0.0103418119251728,0.0,0.0,0.4734312295913696,0.8879368305206299
-0.0056983949616551,1.375630021095276,-0.1370494216680526,-0.4153243601322174,0.0010875086300075,-0.0382236316800117,0.0,0.0,0.1930947303771972,0.6185042858123779
-0.006927490234375,1.36631178855896,-0.1204535365104675,-0.4141440391540527,-0.0013364006299525,-0.0484828278422355,0.0,0.0,-0.2289751768112182,0.0103850364685058
-0.0081474306061863,1.356311559677124,-0.1200705394148826,-0.4444536864757538,-0.0032341494224965,-0.0379584729671478,0.0,0.0,0.4509326219558716,0.8145751953125
-0.0093145370483398,1.3463902473449707,-0.1136683225631713,-0.4409599602222442,-0.0062522618100047,-0.0603680312633514,0.0,0.0,-0.0062900781631469,0.6135332584381104
-0.010412311181426,1.3357881307601929,-0.105722926557064,-0.4712250530719757,-0.0102578988298773,-0.0801197215914726,0.0,0.0,-0.0219301581382751,0.3855291604995727
-0.0115008354187011,1.3245043754577637,-0.1053395867347717,-0.5015291571617126,-0.0137355672195553,-0.0695599839091301,0.0,0.0,0.8013861179351807,0.8591594696044922
-0.0125025752931833,1.3137308359146118,-0.0954761952161789,-0.4788790643215179,-0.0183896590024232,-0.0930902361869812,0.0,0.0,-0.6132733225822449,0.2510349750518799
-0.0134954452514648,1.3022751808166504,-0.0951118245720863,-0.5091961026191711,-0.0225149057805538,-0.0825123563408851,0.0,0.0,0.664417028427124,-0.6215662360191345
-0.0144394878298044,1.2909334897994995,-0.0922092720866203,-0.5041064023971558,-0.0246877558529377,-0.0434609837830066,0.0,0.0,0.1776598691940307,-0.7534836530685425
-0.0153163913637399,1.2796595096588137,-0.0876487791538238,-0.5010685324668884,-0.0247231256216764,-0.0007077338523231,0.0,0.0,-0.6226236820220947,0.4322545528411865
-0.0161849968135356,1.267703413963318,-0.0873565152287483,-0.5313770771026611,-0.0242318045347929,0.0098273744806647,0.0,0.0,-0.0339280366897583,-0.4782232642173767
-0.0170455928891897,1.2550650835037231,-0.0870917588472366,-0.5616812109947205,-0.0232131462544202,0.0203751195222139,0.0,0.0,-0.3051083087921142,-0.4461058378219604
-0.0178985595703125,1.2417449951171875,-0.0868590250611305,-0.5919857025146484,-0.0216679293662309,0.0309070646762847,0.0,0.0,0.1189792156219482,-0.6977872848510742
-0.0186807624995708,1.2286182641983032,-0.0818338543176651,-0.5833653807640076,-0.018089510500431,0.0715747401118278,0.0,0.0,-0.597614049911499,-0.4149162769317627
-0.0194560997188091,1.214809536933899,-0.0816804617643356,-0.6136795282363892,-0.0139865642413496,0.0820662155747413,0.0,0.0,-0.4571996927261352,-0.2781698703765869
-0.0202249530702829,1.2003190517425537,-0.0815687328577041,-0.643984854221344,-0.0093584945425391,0.0925696268677711,0.0,0.0,-0.7538265585899353,0.5941972732543945
-0.0209471695125103,1.1851459741592407,-0.0764024406671524,-0.6743375062942505,-0.0052285436540842,0.0826064199209213,0.0,0.0,-0.5383028388023376,0.4204146862030029
-0.0216639526188373,1.169291377067566,-0.0763836652040481,-0.7046453356742859,-0.0005748138646595,0.093082919716835,0.0,0.0,0.2686096429824829,0.7400479316711426
-0.0223069190979003,1.153260350227356,-0.0680585280060768,-0.7124931812286377,0.0031440271995961,0.0743835493922233,0.0,0.0,-0.215593934059143,0.7356405258178711
-0.022874642163515,1.1365468502044678,-0.0592744722962379,-0.7428314685821533,0.0056081097573041,0.0492860451340675,0.0,0.0,-0.0840678215026855,-0.2681595683097839
-0.0234386436641216,1.119151592254639,-0.059416364878416,-0.7731373310089111,0.0085934000089764,0.0597111769020557,0.0,0.0,0.449141263961792,-0.1311717629432678
-0.0241289138793945,1.101919651031494,-0.0719801932573318,-0.765880286693573,0.0115202441811561,0.0585420317947864,0.0,0.0,0.3031829595565796,0.3516584634780884
-0.0249377246946096,1.0848156213760376,-0.083829328417778,-0.7602070569992065,0.0144340097904205,0.0582750961184501,0.0,0.0,0.6171588897705078,0.530420184135437
-0.025708770379424,1.0681006908416748,-0.0795307457447052,-0.7429115772247314,0.0168204884976148,0.0477296449244022,0.0,0.0,0.3733739852905273,0.3069499731063843
-0.0265988353639841,1.0517301559448242,-0.0914362445473671,-0.7276039123535156,0.0192200094461441,0.0479905605316162,0.0,0.0,-0.1949612498283386,0.3190573453903198
-0.0274885185062885,1.0346782207489014,-0.0919113159179687,-0.7579099535942078,0.0221334230154752,0.0582679994404315,0.0,0.0,-0.1467411518096923,0.5633213520050049
-0.0283353812992572,1.0169439315795898,-0.0870629176497459,-0.7882310152053833,0.0244775898754596,0.0468835048377513,0.0,0.0,0.7149393558502197,0.8792456388473511
-0.0291139595210552,0.9998590350151062,-0.0790087655186653,-0.7593492269515991,0.0256172269582748,0.0227924399077892,0.0,0.0,-0.109342336654663,0.1634814739227295
-0.0298945419490337,0.9820923209190368,-0.0797228515148162,-0.7896552681922913,0.0272640734910964,0.0329370349645614,0.0,0.0,0.2845109701156616,0.1994857788085937
-0.0307591445744037,0.9645761847496032,-0.0883353799581527,-0.7785380482673645,0.0291184429079294,0.0370871722698211,0.0,0.0,0.7170944213867188,0.5694489479064941
-0.0316642746329307,0.946933925151825,-0.0915602892637252,-0.7841188311576843,0.0301556214690208,0.0207435153424739,0.0,0.0,0.3605878353118896,0.7236918210983276
-0.0325174331665039,0.9293892979621888,-0.0854418873786926,-0.7797635793685913,0.0302743911743164,0.002375551033765,0.0,0.0,0.4730244874954223,0.4433510303497314
-0.0333805084228515,0.9121749401092528,-0.0870039314031601,-0.7651026248931885,0.0309626813977956,0.0137655017897486,0.0,0.0,0.6618056297302246,0.8375328779220581
-0.0342272743582725,0.8949629068374634,-0.0841369479894638,-0.7649702429771423,0.0304265208542346,-0.0107230329886078,0.0,0.0,-0.3863804340362549,-0.7100752592086792
-0.0351345054805278,0.8770722150802612,-0.092005968093872,-0.7951675057411194,0.0316989347338676,0.0254480242729187,0.0,0.0,0.1710633039474487,0.1522415876388549
-0.0360971465706825,0.8593940734863281,-0.0979072228074073,-0.7857331037521362,0.0333235226571559,0.0324919410049915,0.0,0.0,0.1663178205490112,0.7294745445251465
-0.0370033271610736,0.841682493686676,-0.0913088768720626,-0.7871950268745422,0.0339970588684082,0.0134705901145935,0.0,0.0,0.51218581199646,0.437076210975647
-0.0380422584712505,0.8243528604507446,-0.1045888513326644,-0.7702285647392273,0.0346885435283184,0.0138298021629452,0.0,0.0,0.3945300579071045,0.7606719732284546
-0.0389316566288471,0.8070113062858582,-0.0887465626001358,-0.7707306146621704,0.0345026068389415,-0.003718830179423,0.0,0.0,-0.2679485082626343,0.1810979843139648
-0.0398338325321674,0.7889881730079651,-0.0904973447322845,-0.8010367751121521,0.0347734242677688,0.0054164668545126,0.0,0.0,0.881615400314331,0.4089497327804565
-0.0406579002737998,0.7711917757987976,-0.0836689174175262,-0.7909806966781616,0.0360163711011409,0.0248589795082807,0.0,0.0,0.4028820991516113,0.9420634508132936
-0.041470717638731,0.753079354763031,-0.0810650438070297,-0.8049925565719604,0.0357943959534168,-0.0044393083080649,0.0,0.0,0.8471366167068481,0.6066988706588745
-0.0422101020812988,0.7348446249961853,-0.073068156838417,-0.8104116916656494,0.0349436439573764,-0.0170153230428695,0.0,0.0,0.8365871906280518,0.872553825378418
-0.0428401008248329,0.7166756987571716,-0.0609505549073219,-0.8074584603309631,0.032917533069849,-0.0405223369598388,0.0,0.0,0.7627992630004883,0.3349760770797729
-0.0436375625431537,0.6991530656814575,-0.0775556862354278,-0.7787390947341919,0.030747827142477,-0.0433939322829246,0.0,0.0,0.6981768608093262,0.3791652917861938
-0.0446158424019813,0.6821569800376892,-0.0953913182020187,-0.7553300261497498,0.0283469334244728,-0.048018030822277,0.0,0.0,0.8715313673019409,-0.1435995101928711
-0.0456549637019634,0.6653423309326172,-0.1017613783478736,-0.7472829818725586,0.0262222867459058,-0.0424927026033401,0.0,0.0,0.4752204418182373,0.931692600250244
-0.0465098395943641,0.6486189365386963,-0.0819936543703079,-0.7432047724723816,0.0227693989872932,-0.069057747721672,0.0,0.0,-0.1623191833496093,0.8929922580718994
-0.0473238937556743,0.6312221884727478,-0.0766346156597137,-0.7731247544288635,0.01806909032166,-0.0940063744783401,0.0,0.0,0.6842596530914307,0.1226750612258911
-0.0480586066842079,0.6138266324996948,-0.0695758759975433,-0.7730944752693176,0.0142280394211411,-0.0768211558461189,0.0,0.0,0.6044023036956787,0.7751117944717407
-0.0487646088004112,0.5969199538230896,-0.0654877051711082,-0.7513692378997803,0.0091783599928021,-0.1009934544563293,0.0,0.0,0.0590970516204834,0.6510922908782959
-0.0493398681282997,0.5798004865646362,-0.0515336580574512,-0.7608441114425659,0.0032649419736117,-0.11826853454113,0.0,0.0,0.7679591178894043,-0.2156353592872619
-0.0500462539494037,0.5627553462982178,-0.0644624456763267,-0.7575578093528748,-0.0028308683540672,-0.1219161599874496,0.0,0.0,0.7585196495056152,-0.7125402092933655
-0.0507260337471962,0.5463076233863831,-0.063757985830307,-0.7310273051261902,-0.0069974246434867,-0.0833310484886169,0.0,0.0,0.9103399515151978,0.0850319862365722
-0.0512701980769634,0.5303460955619812,-0.0511936657130718,-0.7094157338142395,-0.0101761389523744,-0.0635744333267211,0.0,0.0,-0.0211981534957885,-0.0710026621818542
-0.0518447868525981,0.5137029886245728,-0.0544703006744384,-0.7397212386131287,-0.0131271863356232,-0.0590209774672985,0.0,0.0,0.9267432689666748,0.7369284629821777
-0.052476692944765,0.4977596998214721,-0.0586897954344749,-0.7086344361305237,-0.0175644904375076,-0.0887461155652999,0.0,0.0,0.8950545787811279,0.2518330812454223
-0.053074836730957,0.4817703068256378,-0.0557823479175567,-0.7106931209564209,-0.0215496607124805,-0.0797033831477165,0.0,0.0,0.945786476135254,0.3739819526672363
-0.0538068786263465,0.466341882944107,-0.0687653347849845,-0.6857767105102539,-0.0259255766868591,-0.0875182896852493,0.0,0.0,0.9460122585296632,0.5177967548370361
-0.0543627738952636,0.4511364102363586,-0.0507159419357776,-0.6758902072906494,-0.0307398475706577,-0.0962851271033287,0.0,0.0,0.8836088180541992,0.3579733371734619
-0.0549057945609092,0.4362958669662475,-0.0496622174978256,-0.6596829891204834,-0.0353262536227703,-0.0917281284928321,0.0,0.0,0.2255493402481079,0.6358058452606201
-0.0554182045161724,0.421211838722229,-0.0454021468758583,-0.6705508828163147,-0.041090901941061,-0.1152929663658142,0.0,0.0,0.5623575448989868,0.3646583557128906
-0.0560619346797466,0.4062912464141845,-0.0580427646636962,-0.6633237600326538,-0.0473476722836494,-0.1251355111598968,0.0,0.0,0.973142385482788,0.4757180213928222
-0.0566699989140033,0.3922188580036163,-0.0546134822070598,-0.6256462931632996,-0.05346405133605,-0.1223277077078819,0.0,0.0,0.8080289363861084,-0.4029086232185364
-0.0572103485465049,0.3779372870922088,-0.0482651516795158,-0.6349537968635559,-0.0591706186532974,-0.1141316667199134,0.0,0.0,0.6893630027770996,-0.4148093461990356
-0.0577115043997764,0.3642789125442505,-0.0444408170878887,-0.6072728633880615,-0.0647827163338661,-0.1122418642044067,0.0,0.0,-0.4091564416885376,0.4197659492492676
-0.0582534782588481,0.3499391674995422,-0.0484663620591163,-0.6375806331634521,-0.0704554468393325,-0.1134547963738441,0.0,0.0,0.939110517501831,-0.6011139750480652
-0.0589432716369628,0.3361268043518066,-0.0640444681048393,-0.6141216158866882,-0.0753345042467117,-0.0975811630487442,0.0,0.0,0.8682799339294434,-0.2316462397575378
-0.0595877654850482,0.3226817846298218,-0.0595669373869895,-0.5978105068206787,-0.0801669061183929,-0.096648022532463,0.0,0.0,0.945101261138916,-0.7283146977424622
-0.0604162216186523,0.3100766837596893,-0.0788935273885726,-0.5604438185691833,-0.0840777084231376,-0.0782160684466362,0.0,0.0,0.1174161434173584,0.247873306274414
-0.0612061507999897,0.2973675727844238,-0.0751126930117607,-0.5650700926780701,-0.0879238247871398,-0.0769224613904953,0.0,0.0,0.7482196092605591,-0.7553572058677673
-0.062102984637022,0.284602552652359,-0.0870523080229759,-0.5674936175346375,-0.0905369818210601,-0.0522632002830505,0.0,0.0,0.944605827331543,0.4902882575988769
-0.0629307776689529,0.2717166543006897,-0.0802975445985794,-0.5728576183319092,-0.0929926708340644,-0.0491138361394405,0.0,0.0,0.8446828126907349,-0.6447803378105164
-0.0638581290841102,0.2587213218212127,-0.0912161022424697,-0.5776674151420593,-0.0944963172078132,-0.0300729572772979,0.0,0.0,0.9264962673187256,-0.3074352741241455
-0.0647542029619216,0.2464269995689392,-0.0877892598509788,-0.5465303659439087,-0.0963015034794807,-0.0361036136746406,0.0,0.0,0.8427748680114746,0.0730689764022827
-0.0655208602547645,0.234796866774559,-0.0749785676598548,-0.5170040726661682,-0.0979702323675155,-0.0333747528493404,0.0,0.0,0.7182725667953491,-0.8442797660827637
-0.0664461106061935,0.2237914353609085,-0.0920176357030868,-0.4891640245914459,-0.0984747484326362,-0.0100904451683163,0.0,0.0,-0.1485952734947204,0.5627493858337402
-0.0673849135637283,0.2120936512947082,-0.0921611338853836,-0.5200158357620239,-0.1001755446195602,-0.0340158641338348,0.0,0.0,0.8176603317260742,-0.0721246600151062
-0.0682408362627029,0.2010058313608169,-0.0837508887052536,-0.4929167628288269,-0.1020012944936752,-0.036514826118946,0.0,0.0,0.0370826721191406,0.1386007070541381
-0.0691719055175781,0.1897854655981063,-0.0906270071864128,-0.4988545477390289,-0.1044671237468719,-0.0493167489767074,0.0,0.0,0.7316560745239258,0.6341197490692139
-0.0700896233320236,0.1789482682943344,-0.0874999985098838,-0.4819577932357788,-0.1087078005075454,-0.0848134756088256,0.0,0.0,0.7041983604431152,-0.204912006855011
-0.0709907561540603,0.1685076057910919,-0.0854106619954109,-0.4643794000148773,-0.1133796572685241,-0.0934371203184127,0.0,0.0,0.4145586490631103,-0.4566584825515747
-0.0718111991882324,0.1581156551837921,-0.0772919729351997,-0.4622304737567901,-0.1180928573012352,-0.0942639857530593,0.0,0.0,0.5282547473907471,-0.8618243932723999
-0.0726881995797157,0.1475136429071426,-0.0843221023678779,-0.4714723229408264,-0.1214542761445045,-0.0672283545136451,0.0,0.0,0.9409220218658448,-0.2987962365150451
-0.0734500885009765,0.1369151175022125,-0.0729006975889206,-0.4713185727596283,-0.1247207298874855,-0.0653290301561355,0.0,0.0,0.9319915771484376,-0.4276014566421509
-0.0740086585283279,0.1265972703695297,-0.0529559776186943,-0.4588160812854767,-0.127610445022583,-0.0577947385609149,0.0,0.0,0.9940040111541748,-0.5254669785499573
-0.0744226425886154,0.1162765622138977,-0.0396497063338756,-0.4588490128517151,-0.129345566034317,-0.0347024127840995,0.0,0.0,0.9596312046051024,-0.754733145236969
-0.0748384445905685,0.1066186055541038,-0.040901131927967,-0.429301381111145,-0.1300244331359863,-0.0135774072259664,0.0,0.0,0.9642534255981444,-0.6321640014648438
-0.0751985535025596,0.0976276993751525,-0.0362572111189365,-0.3995721638202667,-0.1297775954008102,0.0049367784522473,0.0,0.0,0.9405360221862792,-0.2353139519691467
-0.0753635391592979,0.0890927612781524,-0.0169613249599933,-0.3792899250984192,-0.1293055862188339,0.0094396853819489,0.0,0.0,0.9538919925689696,-0.6828210949897766
-0.075456902384758,0.0804295167326927,-0.0110436473041772,-0.3848859965801239,-0.1276078224182129,0.0339552536606788,0.0,0.0,0.9843556880950928,0.1052566766738891
-0.075586512684822,0.0720072388648986,-0.0139029696583747,-0.3742414116859436,-0.1266659796237945,0.0188367422670125,0.0,0.0,0.9724280834197998,-0.0643326044082641
-0.0755372047424316,0.0644175112247467,0.0039877141825854,-0.3372429311275482,-0.1257262080907821,0.0187956672161817,0.0,0.0,0.856680154800415,-0.0822082757949829
-0.0754851326346397,0.0571034513413906,0.0048547368496656,-0.3250408470630646,-0.1253820806741714,0.0068825595080852,0.0,0.0,0.8736793994903564,0.3011927604675293
-0.0755118355154991,0.0504774674773216,-0.0018798864912241,-0.2945561707019806,-0.1261697858572006,-0.0157541669905185,0.0,0.0,0.8916382789611816,0.2139389514923095
-0.0753907188773155,0.044340644031763,0.0129319578409194,-0.2728191316127777,-0.126979723572731,-0.0161986127495765,0.0,0.0,0.6161561012268066,0.2124830484390258
-0.0752799957990646,0.0386247485876083,0.012616311199963,-0.2541730105876922,-0.1285190433263778,-0.0307864192873239,0.0,0.0,0.7513161897659302,-0.0453583002090454
-0.0752058997750282,0.0334255546331405,0.0098507544025778,-0.2312892824411392,-0.1309547275304794,-0.0487135723233222,0.0,0.0,0.6341454982757568,0.0046777725219726
-0.0751433372497558,0.0282827243208885,0.0093195121735334,-0.2288403809070587,-0.1339980959892273,-0.0608673393726348,0.0,0.0,0.8936765193939209,-0.1950776576995849
-0.0751723274588584,0.0235106796026229,0.0012741662794724,-0.2124733477830886,-0.1381569653749466,-0.0831770375370979,0.0,0.0,0.7680805921554565,-0.3178175687789917
-0.075334645807743,0.0189239606261253,-0.010817302390933,-0.2043650299310684,-0.1435604393482208,-0.1080695167183876,0.0,0.0,0.7860091924667358,-0.3267481327056885
-0.0753233879804611,0.0147854182869195,0.0065106442198157,-0.1844625622034073,-0.1489364802837371,-0.1075207144021987,1.0,0.0,0.2107076644897461,0.398187518119812
-0.0751559287309646,0.011148128658533,0.0041402322240173,-0.1606959551572799,-0.1356627792119979,0.2664251625537872,1.0,0.0,0.7757159471511841,0.5392513275146484
-0.0745495781302452,0.0086762765422463,0.0301428381353616,-0.1073838621377945,-0.1052865162491798,0.6075921654701233,1.0,0.0,0.2569749355316162,-0.1784997582435608
-0.0738358497619628,0.0067937229759991,0.0308523587882518,-0.0813196524977684,-0.0650737732648849,0.8043322563171387,1.0,0.0,0.5157015323638916,0.2586700916290283
-0.0729681998491287,0.0053703282028436,0.047116108238697,-0.0620037950575351,-0.0258890315890312,0.7836944460868835,1.0,0.0,0.5096573829650879,0.4212398529052734
-0.0720168128609657,0.0040771816857159,0.0551224127411842,-0.0572552569210529,0.013613942079246,0.7900604009628296,0.0,0.0,-0.1275307536125183,0.9604406356811525
-0.071041390299797,0.0021327233407646,0.0599665716290473,-0.0871773436665535,0.0507208295166492,0.7421383857727051,0.0,1.0,0.8630173206329346,0.9655201435089112
-0.0701327323913574,0.0013541317312046,0.0708735436201095,-0.0356109999120235,0.0694799348711967,0.373891144990921,0.0,1.0,-0.4683949947357178,0.8505778312683105
-0.0693903937935829,0.0004394268908072,0.0768301039934158,-0.0405417010188102,0.0668968483805656,-0.0516919419169425,0.0,1.0,0.3049330711364746,0.212146520614624
-0.0689603835344314,-7.858276148908772e-06,0.0613980069756507,-0.0191652346402406,0.0486754179000854,-0.3644689619541168,0.0,1.0,-0.425262987613678,-0.2116466164588928
-0.0685732811689376,-0.0008739614277146,0.0643772631883621,-0.0378753803670406,0.023273067548871,-0.5081164240837097,0.0,1.0,0.0411646366119384,-0.1228726506233215
-0.0682153701782226,-0.0018294000765308,0.0629784539341926,-0.042265947908163,-0.0035948096774518,-0.5373902916908264,0.0,1.0,0.1930485963821411,-0.2233721017837524
-0.06772031635046,-0.0022165679838508,0.0560783259570598,-0.0172573160380125,-0.0100039532408118,-0.1280806362628936,1.0,1.0,0.1858550310134887,-0.9193771481513976
-0.0671707168221473,-0.002044548979029,0.0499146319925785,0.0076559907756745,-0.004971298854798,0.1007219329476356,1.0,1.0,-0.70769864320755,-0.3702131509780884
-0.0666949301958084,-0.0016398930456489,0.0413210578262805,0.0179788246750831,0.0012457076227292,0.1243874058127403,1.0,1.0,-0.7754176259040833,-0.4306564331054687
-0.0663655251264572,-0.0012947821523994,0.0357164964079856,0.0153255900368094,-0.0014519868418574,-0.0538979172706604,1.0,1.0,-0.3501965999603271,-0.7338867783546448
