x_pos,y_pos,x_vel,y_vel,angle,ang_vel,leg_1,leg_2,main_booster,lat_booster
-0.0015254020690917,1.402989625930786,-0.1542282998561859,-0.3524699807167053,0.0015087877400219,0.0297435875982046,0.0,0.0,-0.650504478837937,0.6228406599097733
-0.0029976845253258,1.394444227218628,-0.1470917761325836,-0.3797901570796966,0.0013788944343104,-0.0025974283926188,0.0,0.0,0.6060121908463456,0.6429769793947542
-0.0042766570113599,1.3858482837677002,-0.1265602111816406,-0.3820410668849945,5.907918603043072e-05,-0.0263991001993417,0.0,0.0,-0.5261021701268078,0.5675250660723137
-0.0055154799483716,1.3766154050827026,-0.1213718429207801,-0.4103513956069946,-0.00242092134431,-0.0496047362685203,0.0,0.0,-0.4144932649410109,0.8912181535895819
-0.0066628456115722,1.3667504787445068,-0.1098026409745216,-0.438462346792221,-0.0072973873466253,-0.0975386202335357,0.0,0.0,-0.7845016540447654,0.8422999600487419
-0.0077203749679028,1.3562488555908203,-0.0984989255666732,-0.4667873084545135,-0.0144732594490051,-0.1435304582118988,0.0,0.0,-0.2606508823386495,-0.688082659238885
-0.008823680691421,1.3451142311096191,-0.1042437329888343,-0.49494269490242,-0.0204869024455547,-0.1202842444181442,0.0,0.0,-0.9353458456546088,0.7740331051499403
-0.009838581085205,1.3333452939987185,-0.0932169184088707,-0.5231955051422119,-0.0286623798310756,-0.1635248512029647,0.0,0.0,-0.6878976430059636,-0.6884797350347663
-0.0108942035585641,1.3209521770477295,-0.0984545648097992,-0.550955593585968,-0.0356901586055755,-0.1405685245990753,0.0,0.0,0.3854383859544403,-0.6799957233427618
-0.0119660375639796,1.3088451623916626,-0.1011968478560447,-0.5382469296455383,-0.0416144356131553,-0.1184965819120407,0.0,0.0,0.5746775338914536,-0.8920265113220524
-0.0129744531586766,1.2969517707824707,-0.0965376645326614,-0.5287163257598877,-0.0458723679184913,-0.0851664990186691,0.0,0.0,0.2030770916130406,-0.867851089842028
-0.0139545444399118,1.2849990129470823,-0.0952475517988205,-0.5313218832015991,-0.0486034266650676,-0.0546257980167865,0.0,0.0,-0.0614780135584998,0.636494388063313
-0.0148522378876805,1.2724103927612305,-0.0852306261658668,-0.5596482753753662,-0.0531009845435619,-0.0899595394730568,0.0,0.0,-0.5263786988290526,-0.6307774050513759
-0.0157711990177631,1.259184956550598,-0.0882464572787284,-0.5879337787628174,-0.0567169040441513,-0.0723251029849052,0.0,0.0,0.0925081344623262,-0.536467958925138
-0.0165739059448242,1.2461414337158203,-0.0776534005999565,-0.5798072814941406,-0.059299498796463,-0.0516561977565288,0.0,0.0,0.9908947247191018,-0.8421618725365116
-0.0172521583735942,1.232982873916626,-0.0670061856508255,-0.5848633646965027,-0.0601126216351985,-0.01626399718225,0.0,0.0,0.8583680414805095,0.7323641634773824
-0.0176193229854106,1.2206182479858398,-0.0346130803227424,-0.5496219992637634,-0.0621969066560268,-0.0416893176734447,0.0,0.0,0.6143617860772865,-0.6848224658692119
-0.0178375244140625,1.208151936531067,-0.0212216414511203,-0.5540850758552551,-0.0627974346280098,-0.0120116528123617,0.0,0.0,-0.4490933049043235,-0.5175644205157404
-0.0180599205195903,1.195059061050415,-0.0223013497889041,-0.5819079875946045,-0.0627371370792388,0.0012060509761795,0.0,0.0,0.7851755730448791,0.8054787874535119
-0.0182449333369731,1.1822495460510254,-0.0165456552058458,-0.5693960189819336,-0.0646675080060958,-0.0386111810803413,0.0,0.0,0.3150488900026986,-0.5168703120340674
-0.0182894710451364,1.169697880744934,-0.0036146708298474,-0.5578851103782654,-0.0655022412538528,-0.0166961029171943,0.0,0.0,0.8208648492309967,0.847048457993753
-0.0181880947202444,1.157228708267212,0.0128494296222925,-0.5543087124824524,-0.0681812316179275,-0.0535849034786224,0.0,0.0,-0.8466761476757534,0.5251607714426676
-0.0180018432438373,1.1441187858581543,0.0227830614894628,-0.5828529000282288,-0.0723074302077293,-0.0825315117835998,0.0,0.0,-0.1681472184598904,-0.8394333058433254
-0.0178393367677927,1.1303714513778689,0.0191048178821802,-0.6111323833465576,-0.0751301348209381,-0.0564590990543365,0.0,0.0,-0.4618858912110468,-0.7235344095720431
-0.0177109725773334,1.1159993410110474,0.0140526369214057,-0.6388216018676758,-0.0763377249240875,-0.0241537261754274,0.0,0.0,0.9549715000742516,-0.7354810222150935
-0.0177270881831645,1.102249026298523,-0.0012545229401439,-0.6111432313919067,-0.0766816362738609,-0.0068783485330641,0.0,0.0,-0.7153386624019136,0.8847978158364815
-0.0176347736269235,1.0878612995147705,0.01151829585433,-0.639569103717804,-0.0789492726325988,-0.0453528985381126,0.0,0.0,0.7257839148025771,0.6218688064567761
-0.0175333023071289,1.0741461515426636,0.0141978655010461,-0.6097794771194458,-0.0829611793160438,-0.0802383050322532,0.0,0.0,-0.2751119153499881,-0.5003250348867643
-0.0174403190612792,1.0598065853118896,0.0122516704723238,-0.6374828219413757,-0.0858967900276184,-0.0587119348347187,0.0,0.0,0.560271110896025,0.6591773279984061
-0.0172379501163959,1.0455142259597778,0.0247110798954963,-0.6354809999465942,-0.0903228297829628,-0.0885207578539848,0.0,0.0,0.82203635029463,0.6104541096440447
-0.0168402679264545,1.0319795608520508,0.045523602515459,-0.6018982529640198,-0.0960286110639572,-0.1141157299280166,0.0,0.0,-0.992087185382843,-0.998153269290924
-0.0164907462894916,1.017817497253418,0.0385566651821136,-0.629662275314331,-0.099605493247509,-0.0715375915169715,0.0,0.0,-0.9887205958366394,-0.9895598292350768
-0.0161876678466796,1.003043293952942,0.0317546613514423,-0.6567305326461792,-0.101044163107872,-0.0287734381854534,0.0,0.0,-0.9989111423492432,-0.9950742721557616
-0.0159299857914447,0.9876384139060974,0.0251184701919555,-0.6846145391464233,-0.1003932729363441,0.0130178723484277,0.0,0.0,-0.998604655265808,-0.9598968625068665
-0.0157032012939453,0.9716118574142456,0.0202371850609779,-0.7121252417564392,-0.0979735180735588,0.0483953729271888,0.0,0.0,-0.9750301837921144,-0.850402295589447
-0.0154980663210153,0.9549667239189148,0.0164956580847501,-0.7395285964012146,-0.0939942002296447,0.079586461186409,0.0,0.0,-0.9587383270263672,-0.7686967253684998
-0.0153132434934377,0.9376919865608216,0.0129393506795167,-0.7674244046211243,-0.0884969905018806,0.1099440082907676,0.0,0.0,-0.8539208769798279,-0.1436055898666381
-0.0150847434997558,0.9197829961776732,0.0173668414354324,-0.7956455945968628,-0.0830724388360977,0.1084909662604332,0.0,0.0,-0.7533220648765564,0.7543072700500488
-0.0147563936188817,0.9012407064437866,0.0288440100848674,-0.8238826990127563,-0.0791157111525535,0.079134963452816,0.0,0.0,-0.7139431834220886,0.6289753913879395
-0.0143318176269531,0.8820583820343018,0.0398454554378986,-0.8524114489555359,-0.076529324054718,0.0517278537154197,0.0,0.0,-0.3361561298370361,0.311681866645813
-0.0138627048581838,0.8622412085533142,0.0443466827273368,-0.880630373954773,-0.073995217680931,0.0506819486618042,0.0,0.0,-0.2490448951721191,-0.0016999244689941
-0.0133489612489938,0.8417893648147583,0.0488684363663196,-0.9088491797447203,-0.0715069249272346,0.0497658774256706,0.0,0.0,0.2128450870513916,0.7215451002120972
-0.0126367565244436,0.821024477481842,0.070097267627716,-0.9228326082229614,-0.0703988149762153,0.0221621170639991,0.0,0.0,-0.1821410655975341,0.2933008670806885
-0.0118793491274118,0.7996247410774231,0.0746550410985946,-0.951050877571106,-0.0693240538239479,0.0214952118694782,0.0,0.0,0.3713206052780151,-0.7139115333557129
-0.0111537929624319,0.7779572010040283,0.0701266601681709,-0.9628899097442628,-0.0669175088405609,0.0481305681169033,0.0,0.0,0.5610413551330566,-0.7032811045646667
-0.0103696826845407,0.7561213374137878,0.0744869783520698,-0.9703220129013062,-0.0630403086543083,0.077544204890728,0.0,0.0,0.3939776420593261,-0.5312475562095642
-0.0095025058835744,0.7342109084129333,0.0816172808408737,-0.9735899567604064,-0.0579915046691894,0.1009759455919265,0.0,0.0,0.8526256084442139,-0.6831800937652588
-0.0087245944887399,0.7130899429321289,0.0716513469815254,-0.9384836554527284,-0.0519217438995838,0.1213954463601112,0.0,0.0,0.8500370979309082,0.6525783538818359
-0.0079626087099313,0.6926707029342651,0.071782112121582,-0.9073765277862548,-0.0475567206740379,0.0873006582260131,0.0,0.0,-0.0992981791496276,-0.0994324684143066
-0.0071542738005518,0.6716167330741882,0.0764154344797134,-0.9355961680412292,-0.0431929603219032,0.0872750729322433,0.0,0.0,0.9643754959106444,-0.6580718755722046
-0.0061393738724291,0.6509370803833008,0.0952591821551323,-0.9189257025718688,-0.0370398014783859,0.1230633482336998,0.0,0.0,0.3219654560089111,-0.547100305557251
-0.0051494599319994,0.6305155158042908,0.0917672142386436,-0.9074583649635316,-0.0298996325582265,0.1428033858537674,0.0,0.0,0.8212946653366089,-0.4584980010986328
-0.0039775846526026,0.6101893782615662,0.109372891485691,-0.9032514691352844,-0.0221908297389745,0.1541760861873626,0.0,0.0,0.3379020690917969,-0.6766049265861511
-0.0027952194213867,0.5902058482170105,0.1090471893548965,-0.8880478739738464,-0.0131164053454995,0.1814883053302765,0.0,0.0,0.8664140701293945,-0.1362755894660949
-0.0013904571533203,0.5704113841056824,0.1304837763309478,-0.87969571352005,-0.0032453921157866,0.1974203288555145,0.0,0.0,0.8266458511352539,-0.0306145548820495
-4.2629242670955136e-05,0.5507652163505554,0.1252596974372863,-0.8731690049171448,0.0061577525921165,0.1880629062652588,0.0,0.0,0.9593815803527832,-0.5731849670410156
0.0014196395641192,0.5319092273712158,0.1351827383041381,-0.8381236791610718,0.0170617941766977,0.2180809080600738,0.0,0.0,0.861672043800354,0.7207851409912109
0.0031415938865393,0.5135682821273804,0.1621846854686737,-0.8152949810028076,0.0269486904144287,0.1977377086877823,0.0,0.0,0.7660068273544312,-0.2960696220397949
0.0049668313004076,0.4959166347980499,0.1721125096082687,-0.7847336530685425,0.0372325703501701,0.2056775987148285,0.0,0.0,0.6452410221099854,0.1667648553848266
0.0067343711853027,0.4788002073764801,0.1666674166917801,-0.7610086798667908,0.0471947416663169,0.1992432475090026,0.0,0.0,0.4307396411895752,0.0305289030075073
0.0085781095549464,0.4615339338779449,0.1740677654743194,-0.7677469253540039,0.0573923252522945,0.2039517909288406,0.0,0.0,0.6739237308502197,-0.4444819688796997
0.0103269573301076,0.4446896016597748,0.1650188863277435,-0.7490435242652893,0.067151129245758,0.195175752043724,0.0,0.0,0.5670918226242065,0.0694550275802612
0.01220703125,0.4279577732086181,0.1775642782449722,-0.7441403269767761,0.0774835124611854,0.2066477537155151,0.0,0.0,0.9428008794784546,0.5331254005432129
0.0141497608274221,0.4116793274879455,0.1847963780164718,-0.7240038514137268,0.0868722796440124,0.1877749860286712,0.0,0.0,0.6527278423309326,-0.2205126285552978
0.0161127094179391,0.3953673541545868,0.1867563873529434,-0.7255541086196899,0.0963287726044654,0.1891300231218338,0.0,0.0,0.5573501586914062,0.40300452709198
0.0179532058537006,0.3792366981506347,0.1750237047672271,-0.7175241112709045,0.105276383459568,0.1789523065090179,0.0,0.0,0.8015272617340088,0.6651875972747803
0.0198196414858102,0.3638841509819031,0.1788824051618576,-0.6829020977020264,0.1129853129386901,0.1541785299777984,0.0,0.0,0.23077392578125,0.6557791233062744
0.02182855643332,0.3482346534729004,0.1943211257457733,-0.6960455179214478,0.1195219904184341,0.1307337433099746,0.0,0.0,0.7425744533538818,-0.538146436214447
0.0237648002803325,0.3332959413528442,0.1858587116003036,-0.6645826697349548,0.1272404640913009,0.1543696820735931,0.0,0.0,0.8377962112426758,-0.1488078832626342
0.025577450171113,0.3184866607189178,0.1739686280488968,-0.6588303446769714,0.1344992369413375,0.1451755911111831,0.0,0.0,0.9635144472122192,0.456947922706604
0.0272210128605365,0.3042174577713012,0.1575560271739959,-0.6348179578781128,0.1412751525640487,0.1355184316635131,0.0,0.0,0.917933225631714,0.0319644212722778
0.0288451202213764,0.2903944253921509,0.1554355323314666,-0.6150349378585815,0.1482352912425995,0.1392028480768203,0.0,0.0,0.8491050004959106,-0.0819607973098754
0.0302339550107717,0.2773075103759765,0.1325624585151672,-0.5822862386703491,0.1545441001653671,0.1261761039495468,0.0,0.0,0.8567675352096558,0.9080822467803956
0.0317308418452739,0.2645855545997619,0.1450205147266388,-0.5659103989601135,0.1592079252004623,0.0932766422629356,0.0,0.0,0.5579864978790283,0.0283821821212768
0.03318452835083,0.2517677545547485,0.1408468782901764,-0.570174515247345,0.1637323796749115,0.0904893204569816,0.0,0.0,0.9401805400848388,0.3933192491531372
0.0347013473510742,0.2388997226953506,0.1467931717634201,-0.572458028793335,0.1686294078826904,0.0979404971003532,0.0,0.0,0.925135850906372,0.1433908939361572
0.0361619964241981,0.2259727567434311,0.1413469463586807,-0.575076699256897,0.1733543127775192,0.0944980531930923,0.0,0.0,0.8756462335586548,0.3657838106155395
0.0375042930245399,0.2137391716241836,0.129567414522171,-0.5442665219306946,0.1780281364917755,0.0934765934944152,0.0,0.0,0.7412172555923462,0.8092317581176758
0.0388937965035438,0.2021897137165069,0.1357575953006744,-0.5136967301368713,0.1812359988689422,0.0641571134328842,0.0,0.0,0.9770678281784058,0.5698578357696533
0.040056325495243,0.1914276927709579,0.1146248951554298,-0.4785116314888,0.1828700602054596,0.0326810777187347,0.0,0.0,0.9912809133529664,-0.6030980348587036
0.0409826263785362,0.1805551648139953,0.0902803242206573,-0.4835147857666015,0.1852310299873352,0.0472195036709308,0.0,0.0,0.9949135780334472,0.6879795789718628
0.0418829917907714,0.1704904437065124,0.088956631720066,-0.4474534690380096,0.1863080859184265,0.021541777998209,0.0,0.0,0.994675874710083,-0.8449690937995911
0.0425031669437885,0.1607593148946762,0.0595803745090961,-0.4328040182590484,0.1887606084346771,0.0490500330924987,0.0,0.0,0.9632554054260254,-0.1391441822052002
0.0429533943533897,0.1515616923570633,0.0429391115903854,-0.4090546369552612,0.1908647567033767,0.0420826971530914,0.0,0.0,0.9963812828063964,0.9668402671813964
0.0433470718562603,0.1429954320192337,0.0392902866005897,-0.3807317316532135,0.1909412592649459,0.0015301405219361,0.0,0.0,0.9857678413391112,0.2116984128952026
0.0437556281685829,0.1348538249731063,0.0403620339930057,-0.3619123697280884,0.1914393305778503,0.0099617056548595,0.0,0.0,0.9928667545318604,0.8491766452789307
0.044227696955204,0.126705065369606,0.0484058484435081,-0.3620129227638244,0.1902315765619278,-0.0241547934710979,0.0,0.0,0.962816596031189,-0.6931330561637878
0.0447168350219726,0.1186389029026031,0.0485120639204978,-0.3585456609725952,0.1906333416700363,0.0080351969227194,0.0,0.0,0.9934394359588624,-0.9643909335136414
0.0452369675040245,0.1109863147139549,0.0494336411356925,-0.3404479622840881,0.1932294517755508,0.0519221350550651,0.0,0.0,0.9713947772979736,-0.8884856104850769
0.0458213798701763,0.1034173369407653,0.0538263618946075,-0.3370108902454376,0.1978713721036911,0.0928379595279693,0.0,0.0,0.950176239013672,-0.017992615699768
0.0462677963078022,0.0965156182646751,0.0401784814894199,-0.3073462247848511,0.2023733407258987,0.0900393202900886,0.0,0.0,0.7853999137878418,0.1766395568847656
0.0466248504817485,0.0901935398578643,0.0312010403722524,-0.2816025912761688,0.2069110721349716,0.0907548815011978,0.0,0.0,0.8985922336578369,0.118062138557434
0.0470065101981163,0.0844059810042381,0.0331431105732917,-0.2579362690448761,0.211981788277626,0.1014139279723167,0.0,0.0,0.7688055038452148,-0.8288923501968384
0.0474098213016986,0.0785045474767685,0.0335712730884552,-0.2632728517055511,0.2188073545694351,0.1365113705396652,0.0,0.0,0.3964639902114868,0.4132381677627563
0.0477171912789344,0.0725841596722602,0.0243516191840171,-0.2640930414199829,0.2252776026725769,0.1294050961732864,0.0,0.0,0.0704553127288818,0.441333532333374
0.0479936599731445,0.0668646171689033,0.0211674310266971,-0.2552067339420318,0.2318410128355026,0.1312680691480636,0.0,0.0,-0.1636751294136047,0.3981350660324096
0.0483098030090332,0.0605101436376571,0.0253210570663213,-0.283424973487854,0.2382331192493438,0.1278422623872757,0.0,0.0,0.3179417848587036,0.9331173896789552
0.0484743118286132,0.0544394105672836,0.0122620640322566,-0.2704943716526031,0.2424829006195068,0.0849958062171936,0.0,0.0,0.6340720653533936,0.6391196250915527
0.0486504547297954,0.0487932525575161,0.0146911758929491,-0.2514253854751587,0.2454582750797271,0.0595071725547313,0.0,0.0,0.7891833782196045,0.8586721420288086
0.0486693382263183,0.0437012054026126,0.0009904793696478,-0.2264640033245086,0.2463760077953338,0.0183545090258121,0.0,0.0,0.893585205078125,0.809502124786377
0.0484761223196983,0.039213191717863,-0.0181828197091817,-0.1992808878421783,0.2452244758605957,-0.0230305604636669,0.0,0.0,0.94800066947937,0.9017734527587892
0.0482145324349403,0.0349551998078823,-0.0229634959250688,-0.1887138336896896,0.2419676631689071,-0.0651362165808677,0.0,0.0,0.8947341442108154,0.8155210018157959
0.0477426536381244,0.0310376025736331,-0.0418253056704998,-0.1732446849346161,0.2365266680717468,-0.108820341527462,0.0,0.0,0.7518529891967773,0.914459466934204
0.0470722205936908,0.0272556170821189,-0.0593480765819549,-0.1668668538331985,0.2287172079086303,-0.1561890393495559,0.0,0.0,0.666210412979126,0.8923895359039307
0.0464537627995014,0.0239674430340528,-0.0522746257483959,-0.1446837931871414,0.2190235406160354,-0.1938732862472534,0.0,0.0,0.4626578092575073,0.979216456413269
0.0458758361637592,0.021216569468379,-0.032070405781269,-0.1186745017766952,0.1930158138275146,-0.5202329754829407,0.0,1.0,0.8665711879730225,0.5647284984588623
0.0453453063964843,0.0191754437983036,-0.0264807548373937,-0.087472952902317,0.1663531810045242,-0.5332522988319397,0.0,1.0,0.8504936695098877,0.0658673048019409
0.0446447357535362,0.0177882052958011,-0.0432634316384792,-0.0588724799454212,0.1395735293626785,-0.5355933904647827,0.0,1.0,0.4687190055847168,0.4299105405807495
0.0439631454646587,0.0169302560389041,-0.0418425202369689,-0.0358781702816486,0.1133821606636047,-0.523827314376831,0.0,0.0,-0.8860152363777161,0.4037579298019409
0.0433108322322368,0.0154460286721587,-0.0385583266615867,-0.0641504973173141,0.0869113057851791,-0.5294172167778015,0.0,0.0,-0.6782501339912415,0.0038779973983764
0.0426863655447959,0.0133361676707863,-0.0354097038507461,-0.0924247652292251,0.0601505562663078,-0.5352149605751038,0.0,0.0,-0.4942643642425537,-0.8795127272605896
0.0420256629586219,0.0106021733954548,-0.0402765199542045,-0.120672270655632,0.0346622429788112,-0.5097663998603821,0.0,0.0,0.1421582698822021,-0.8333373069763184
0.0413778312504291,0.0077122901566326,-0.0403749011456966,-0.1280533075332641,0.0105577846989035,-0.4820893406867981,0.0,0.0,0.7318968772888184,-0.5683080554008484
0.0405642502009868,0.0051652644760906,-0.0573871508240699,-0.1132020875811576,-0.0131001714617013,-0.4731593728065491,0.0,0.0,0.6430106163024902,-0.8361509442329407
0.0395713821053504,0.002760145580396,-0.0764512494206428,-0.1072458028793335,-0.0356611013412475,-0.4512185156345367,0.0,0.0,0.3488762378692627,-0.8812342882156372
0.0387149825692176,0.0010272241197526,-0.0839115977287292,-0.0770736560225486,-0.0373287387192249,-0.0333018079400062,1.0,0.0,0.2482402324676513,0.5665693283081055
0.0381268486380577,-0.0001559877418912,-0.0749637559056282,-0.0522754751145839,-0.0213273670524358,0.3200804591178894,1.0,0.0,-0.0434502363204956,0.8191928863525391
0.0376919731497764,-0.0015233778394758,-0.0704049170017242,-0.060611717402935,0.0052892779931426,0.5323823690414429,1.0,0.0,0.0601664781570434,0.7796556949615479
0.0372778885066509,-0.0021765851415693,-0.0465923026204109,-0.0290794894099235,0.0103640016168355,0.1014381647109985,1.0,1.0,-0.3173682689666748,0.9963841438293456
0.037030316889286,-0.0023430967703461,-0.0260996967554092,-0.0074260653927922,0.0116557506844401,0.0257886555045843,1.0,1.0,-0.8842546343803406,0.964956760406494
0.0369290336966514,-0.0020616436377167,-0.0079368259757757,0.0125139039009809,0.0094678690657019,-0.0437823161482811,1.0,1.0,-0.9706841111183168,-0.0666040182113647
