x_pos,y_pos,x_vel,y_vel,angle,ang_vel,leg_1,leg_2,main_booster,lat_booster
-0.0015264510875567,1.4034152030944824,-0.1549959927797317,-0.3335581123828888,0.0021040868014097,0.0415305346250534,0.0,0.0,-0.4433654352759271,0.7265084288037045
-0.0029942512046545,1.3957204818725586,-0.1476071178913116,-0.3419846296310425,0.0029244062025099,0.0164087526500225,0.0,0.0,-0.8308028859244223,0.875185748738041
-0.0043814657256007,1.387809991836548,-0.1377376168966293,-0.3515778481960296,0.0019594263285398,-0.0193017832934856,0.0,0.0,-0.2100884037192212,0.7067980073847235
-0.005727672483772,1.379687786102295,-0.1328329890966415,-0.3609844446182251,0.0002008107258006,-0.0351758152246475,0.0,0.0,-0.5311998163844001,0.995617930996087
-0.0069826124235987,1.3713593482971191,-0.1216275244951248,-0.3701522052288055,-0.0036205623764544,-0.0764347836375236,0.0,0.0,-0.9810422130583208,-0.7451254670118979
-0.0082869529724121,1.362821102142334,-0.1280451864004135,-0.379494845867157,-0.0059738550335168,-0.0470705293118953,0.0,0.0,0.7932263152738948,-0.6455133173834713
-0.0096690179780125,1.355014085769653,-0.1373762041330337,-0.346981406211853,-0.0067924601025879,-0.01637389883399,0.0,0.0,0.7321220373561261,0.9255567357674692
-0.0108034135773777,1.3480151891708374,-0.111384592950344,-0.311078131198883,-0.0088247898966073,-0.0406504794955253,0.0,0.0,-0.5171764316124281,-0.753498934841983
-0.0120030399411916,1.340815544128418,-0.1197744607925415,-0.3199821412563324,-0.009008040651679,-0.0036654933355748,0.0,0.0,0.9511095446741764,0.8335599796382647
-0.0131352422758936,1.334697723388672,-0.1116855144500732,-0.2719160914421081,-0.0105207189917564,-0.0302562601864337,0.0,0.0,-0.8491803479583151,0.8456992742164735
-0.0141962049528956,1.3283694982528689,-0.1029687374830246,-0.2812744081020355,-0.0136230671778321,-0.062052845954895,0.0,0.0,0.7488581270436641,-0.6740820978727194
-0.015226935967803,1.3226686716079712,-0.1018104553222656,-0.253375768661499,-0.0148673607036471,-0.0248880889266729,0.0,0.0,0.5989832216661517,0.7403539931681244
-0.016055965796113,1.3177731037139893,-0.0807549059391021,-0.2176020294427871,-0.0169789176434278,-0.0422349050641059,0.0,0.0,-0.2215809656774845,-0.9733666949908888
-0.0169584266841411,1.3126606941223145,-0.09016864746809,-0.2272214591503143,-0.0170593168586492,-0.0016083715017884,0.0,0.0,-0.2627018373673431,0.8152145964036698
-0.0177872665226459,1.307345271110535,-0.0810996368527412,-0.2362633049488067,-0.0188151653856039,-0.0351201444864273,0.0,0.0,0.6056515945987577,-0.9329664915961692
-0.0185701362788677,1.3022412061691284,-0.0788779333233833,-0.2268342822790146,-0.0182356294244527,0.0115917930379509,0.0,0.0,-0.0558956146814522,-0.8924638206930199
-0.0194132812321186,1.2969396114349363,-0.0865993052721023,-0.2356005311012268,-0.0159729998558759,0.0452566780149936,0.0,0.0,0.1148298854991192,0.8100736279195774
-0.0200832374393939,1.2917968034744265,-0.0680572539567947,-0.2285626381635666,-0.0149324042722582,0.0208140090107917,0.0,0.0,0.5235081823940972,-0.7251373758745616
-0.0207068435847759,1.2875604629516602,-0.0653715580701828,-0.1882497668266296,-0.0119494181126356,0.0596651062369346,0.0,0.0,0.540178622046884,0.7938207213861169
-0.0213513374328613,1.283906102180481,-0.0660373792052269,-0.162407249212265,-0.0103720510378479,0.0315498821437358,0.0,0.0,-0.1619441302308211,-0.8902901913124044
-0.0220575332641601,1.2800495624542236,-0.0739397555589675,-0.1713800132274627,-0.0070884176529943,0.0656784996390342,0.0,0.0,-0.6790141139348569,0.983302326161903
-0.0226909630000591,0.0,-0.0649625062942504,-0.1809800565242767,-0.0054891970939934,0.0319870375096797,0.0,0.0,0.0748532449138208,-0.9336223379188048
-0.0233024600893259,1.2722256183624268,-0.0649465173482894,-0.1667336970567703,-0.0017341444035992,0.0751077085733413,0.0,0.0,0.6022456771400402,-0.6810423444373783
-0.023900032043457,1.2687112092971802,-0.0653847604990005,-0.1562017947435379,0.0038346471264958,0.1113856583833694,0.0,0.0,-0.5391934580703415,0.6196532529179302
-0.0244668014347553,1.264989733695984,-0.0616677328944206,-0.1654258519411087,0.0087626436725258,0.098568856716156,0.0,0.0,0.0675401441478231,0.8658411834878055
-0.025086497887969,0.0,-0.0654992312192916,-0.1451696753501892,0.0122491950169205,0.0697309449315071,0.0,0.0,0.4516214845092903,-0.9888629638240644
-0.0257951728999614,1.2592113018035889,-0.0766941457986831,-0.111730620265007,0.0180010590702295,0.1150372400879859,0.0,0.0,0.0812860448699515,0.7736184785751394
-0.0265580173581838,1.257306694984436,-0.0807880908250808,-0.0847052857279777,0.0224450938403606,0.0888808816671371,0.0,0.0,-0.2500065577600405,-0.9865284508293511
-0.0274229049682617,1.2551984786987305,-0.0936950743198394,-0.0938298553228378,0.0295652896165847,0.1424039304256439,0.0,0.0,-0.6081444515718324,-0.6874362567305876
-0.0283507350832223,1.2528765201568604,-0.1017327457666397,-0.1033951267600059,0.0383868701756,0.1764314621686935,0.0,0.0,0.281678723598852,0.6923550750628963
-0.0292402263730764,1.2513427734375,-0.096789076924324,-0.0683908909559249,0.0461365692317485,0.154994398355484,0.0,0.0,0.4226903774178512,-0.7742330376126222
-0.0302899368107318,1.250152349472046,-0.1145503148436546,-0.0532353185117244,0.0555947832763195,0.1891641914844513,0.0,0.0,-0.2604844265928767,-0.6922219246304044
-0.0314093604683876,1.2487554550170898,-0.1233647093176841,-0.0625511556863784,0.0668920502066612,0.2259453982114792,0.0,0.0,0.6262138047366679,0.6984819350797152
-0.0325727462768554,1.2476744651794434,-0.1264756023883819,-0.0485261306166648,0.0769264549016952,0.2006879150867462,0.0,0.0,-0.2698963352720349,0.7954339232984786
-0.0336789116263389,1.2463947534561155,-0.119384691119194,-0.0573531314730644,0.0855977833271026,0.173426866531372,0.0,0.0,0.6037909678793121,-0.6771919298844927
-0.0348898880183696,1.2460050582885742,-0.1314987987279892,-0.0179500225931406,0.0959169268608093,0.20638307929039,0.0,0.0,0.5104448927298113,-0.699967198826375
-0.0362292304635047,1.2460142374038696,-0.1459475010633468,-0.0004117090429645,0.1078362464904785,0.2383862286806106,0.0,0.0,-0.6513916482724491,-0.9162148262616072
-0.0376441963016986,1.2458125352859497,-0.1554607301950454,-0.0100316945463418,0.1217128485441207,0.2775320708751678,0.0,0.0,-0.9302914743299042,-0.6141779569466266
-0.0391186699271202,1.2454019784927368,-0.1629537940025329,-0.0195811074227094,0.1371346116065979,0.3084353804588318,0.0,0.0,-0.2855690425309034,0.7152496024175938
-0.0405425056815147,1.2447984218597412,-0.1565832197666168,-0.0281916931271553,0.1512950658798217,0.2832094430923462,0.0,0.0,-0.3970342120199737,0.9816638237642752
-0.0419120788574218,1.2440109252929688,-0.1497246026992797,-0.0363476760685443,0.1640643924474716,0.2553863525390625,0.0,0.0,-0.997083306312561,0.9930235147476196
-0.0431958213448524,1.243037462234497,-0.1389644593000412,-0.0444747246801853,0.1746608912944793,0.2119300067424774,0.0,0.0,-0.9886910319328308,0.958925724029541
-0.0443995483219623,1.2418687343597412,-0.1289388835430145,-0.0529759265482425,0.1832465976476669,0.1717145293951034,0.0,0.0,-0.9904667735099792,0.9985617399215698
-0.0455205924808979,1.240515112876892,-0.118543341755867,-0.0609770268201828,0.1897075176239013,0.1292189806699752,0.0,0.0,-0.9919316172599792,0.998715043067932
-0.0465759262442588,1.238961935043335,-0.110300026834011,-0.0696438029408454,0.1945064961910247,0.0959795340895652,0.0,0.0,-0.9977871775627136,0.9956099987030028
-0.0475547797977924,1.2372149229049685,-0.1007157787680625,-0.0780261605978012,0.1973518282175064,0.0569064617156982,0.0,0.0,-0.9969540238380432,0.9722139835357666
-0.0484581962227821,1.2352783679962158,-0.0912058651447296,-0.0861776173114776,0.1982328742742538,0.0176211427897214,0.0,0.0,-0.9991340041160583,0.9842028617858888
-0.0493090637028217,1.2331621646881104,-0.0845344513654708,-0.093981884419918,0.1976723819971084,-0.0112098017707467,0.0,0.0,-0.9991759061813354,0.9633662700653076
-0.0501111969351768,1.2308628559112549,-0.0783146023750305,-0.1019431129097938,0.1957621425390243,-0.0382051691412925,0.0,0.0,-0.9896954298019408,0.97881817817688
-0.0508480072021484,1.228373646736145,-0.070060446858406,-0.110158659517765,0.1921128630638122,-0.0729855298995971,0.0,0.0,-0.997848391532898,0.9595843553543092
-0.0515011772513389,1.2257022857666016,-0.0594547912478446,-0.1179772093892097,0.1862246543169021,-0.1177638620138168,0.0,0.0,-0.9990530610084534,0.9932312965393066
-0.0520938858389854,1.222848892211914,-0.0517477579414844,-0.1258974075317382,0.1786663830280304,-0.1511655151844024,0.0,0.0,-0.996788740158081,0.9548747539520264
-0.052606962621212,1.2198058366775513,-0.0416351482272148,-0.1341150403022766,0.1689761579036712,-0.1938043981790542,0.0,0.0,-0.9727847576141356,0.3288495540618896
-0.0531288161873817,1.2165547609329224,-0.0426092036068439,-0.1434304565191269,0.1594029814004898,-0.1914638727903366,0.0,0.0,-0.9773874282836914,0.7655856609344482
-0.0535845756530761,1.213111162185669,-0.0341865047812461,-0.1518683284521103,0.1480265706777572,-0.2275286465883255,0.0,0.0,-0.9511505961418152,0.1177971363067627
-0.0540492050349712,1.2094602584838867,-0.0351555459201335,-0.1611862331628799,0.1367468684911728,-0.225594088435173,0.0,0.0,-0.9540238380432128,0.204121708869934
-0.0545228943228721,1.205601692199707,-0.0361222848296165,-0.1705037802457809,0.1255535930395126,-0.2238653600215912,0.0,0.0,-0.8645113706588745,-0.0033170580863952
-0.0550055503845214,1.201535701751709,-0.0370865538716316,-0.1798209846019745,0.11443642526865,-0.2223434001207351,0.0,0.0,-0.9563841223716736,-0.1285579204559326
-0.0554973594844341,1.1972616910934448,-0.0380481630563735,-0.1891379058361053,0.1033850163221359,-0.2210284769535064,0.0,0.0,-0.95289146900177,-0.2926713228225708
-0.0559983253479003,1.1927802562713623,-0.0390069335699081,-0.1984545588493347,0.0923890098929405,-0.2199201583862304,0.0,0.0,-0.9581280946731568,-0.0674173831939697
-0.0565084442496299,1.1880908012390137,-0.0399626679718494,-0.2077710181474685,0.08143812417984,-0.219017669558525,0.0,0.0,-0.9628204703330994,0.1549915075302124
-0.0570278167724609,1.1831938028335571,-0.0409151688218116,-0.2170872837305069,0.0705221593379974,-0.2183195054531097,0.0,0.0,-0.9725366234779358,0.3397378921508789
-0.0575565323233604,1.1780890226364136,-0.0418642237782478,-0.2264034152030944,0.0596309751272201,-0.2178236246109008,0.0,0.0,-0.944259762763977,0.3261762857437134
-0.0580946914851665,1.1727763414382937,-0.0428096167743206,-0.2357194274663925,0.0487546026706695,-0.2175275087356567,0.0,0.0,-0.962614119052887,-0.0182796120643615
-0.0586422905325889,1.1672558784484863,-0.0437511131167411,-0.2450353652238845,0.037883210927248,-0.2174281328916549,0.0,0.0,-0.987980842590332,0.3904982805252075
-0.0591992363333702,1.1615275144577026,-0.0446884706616401,-0.254351258277893,0.0270071253180503,-0.2175219357013702,0.0,0.0,-0.996463179588318,-0.2185590267181396
-0.0597658157348632,1.155591607093811,-0.0456214174628257,-0.2636671364307403,0.0161168612539768,-0.2178051024675369,0.0,0.0,-0.994568169116974,0.4694192409515381
-0.0603418350219726,1.1494475603103638,-0.0465496778488159,-0.27298304438591,0.0052031986415386,-0.2182732820510864,0.0,0.0,-0.9923118948936462,0.6838841438293457
-0.0608709342777729,1.1431044340133667,-0.0403799600899219,-0.2819225490093231,-0.0071640918031334,-0.2473458498716354,0.0,0.0,-0.9921208024024964,0.143835186958313
-0.0614095702767372,1.1365541219711304,-0.0412979200482368,-0.2912414371967315,-0.0195725448429584,-0.2481690645217895,0.0,0.0,-0.98898583650589,0.0666537284851074
-0.061957836151123,1.1297963857650757,-0.0422102734446525,-0.3005604147911072,-0.0320306755602359,-0.2491625100374221,0.0,0.0,-0.9954147338867188,0.2015833854675293
-0.0625157356262207,1.1228313446044922,-0.0431166477501392,-0.3098795711994171,-0.0445467196404933,-0.2503208220005035,0.0,0.0,-0.992358386516571,0.2349942922592163
-0.0630830749869346,1.11565899848938,-0.0440166294574737,-0.3191989064216614,-0.0571286492049694,-0.2516383826732635,0.0,0.0,-0.9663910269737244,-0.2879567742347717
-0.0636601448059082,1.1082794666290283,-0.04490976780653,-0.3285185098648071,-0.0697841197252273,-0.2531095445156097,0.0,0.0,-0.9834818840026855,-0.4851120710372925
-0.0642467513680458,1.1006927490234375,-0.0457955822348594,-0.3378384411334991,-0.0825205370783805,-0.2547284066677093,0.0,0.0,-0.990693747997284,-0.0303913354873657
-0.0648428946733474,1.0928988456726074,-0.0466735586524009,-0.3471586108207702,-0.0953450053930282,-0.256489098072052,0.0,0.0,-0.9859848618507384,-0.6266027092933655
-0.0655009299516677,1.0848991870880127,-0.0541014373302459,-0.3563401103019714,-0.1069519147276878,-0.2321380078792572,0.0,0.0,-0.9887036085128784,-0.6080045700073242
-0.0662164688110351,1.076704978942871,-0.0610090382397174,-0.3649798333644867,-0.1174285933375358,-0.209533542394638,0.0,0.0,-0.9276735186576844,-0.7639847993850708
-0.0669928565621376,1.06831955909729,-0.0683325380086898,-0.3734455406665802,-0.1266876459121704,-0.1851813495159149,0.0,0.0,-0.8542858362197876,-0.2097359299659729
-0.0677786841988563,1.059725999832153,-0.0691715255379676,-0.3827599287033081,-0.1360602676868438,-0.1874522864818573,0.0,0.0,-0.9703758955001832,-0.4233431816101074
-0.0685738548636436,1.0509246587753296,-0.0699991285800933,-0.3920745849609375,-0.1455520540475845,-0.1898356825113296,0.0,0.0,-0.9265772104263306,-0.765357494354248
-0.0694334954023361,1.0419342517852783,-0.0777651742100715,-0.4004035294055938,-0.1537369787693023,-0.163698211312294,0.0,0.0,-0.9659702777862548,0.273909330368042
-0.0703022927045822,1.0327353477478027,-0.0785669758915901,-0.4097167253494262,-0.1620514541864395,-0.166289746761322,0.0,0.0,-0.9076092839241028,0.0431563854217529
-0.0711803436279296,1.023328423500061,-0.0793546736240387,-0.4190302789211273,-0.1705002933740615,-0.168976753950119,0.0,0.0,-0.7080780267715454,0.3044160604476928
-0.072067454457283,1.0137133598327637,-0.0801272317767143,-0.4283441603183746,-0.1790879666805267,-0.171753853559494,0.0,0.0,-0.5920799970626831,-0.5187256932258606
-0.0729977637529373,1.0038994550704956,-0.0852176994085311,-0.4371311068534851,-0.186929166316986,-0.1568241417407989,0.0,0.0,-0.8622959852218628,-0.7326976656913757
-0.0739923492074012,0.9938857555389404,-0.0929140076041221,-0.4458938539028168,-0.193509817123413,-0.1316129267215728,0.0,0.0,-0.5877242088317871,-0.347131609916687
-0.0749955177307128,0.9836636185646056,-0.0936336368322372,-0.455205887556076,-0.200241282582283,-0.134629338979721,0.0,0.0,-0.9834630489349364,-0.7639693021774292
-0.0760519057512283,0.9732465147972108,-0.0999553948640823,-0.4637669026851654,-0.2059671878814697,-0.1145182102918624,0.0,0.0,-0.986426055431366,-0.7873441576957703
-0.0771642699837684,0.962629497051239,-0.10659821331501,-0.4725218117237091,-0.2106384932994842,-0.0934262946248054,0.0,0.0,-0.8970450758934021,-0.9412687420845032
-0.0783569365739822,0.9518339037895204,-0.1163868531584739,-0.4802190959453583,-0.2135541290044784,-0.0583127327263355,0.0,0.0,-0.9623406529426576,0.4140639305114746
-0.0795576125383377,0.9408295154571532,-0.1170178651809692,-0.4895287454128265,-0.2166330963373184,-0.0615792945027351,0.0,0.0,0.2842550277709961,-0.3066548109054565
-0.0805599242448806,0.9303447604179382,-0.0974647179245948,-0.466400146484375,-0.2194301933050155,-0.0559422858059406,0.0,0.0,-0.9530851244926452,-0.8712786436080933
-0.0816269889473915,0.9196608066558838,-0.1052074581384658,-0.4750621616840362,-0.2209421247243881,-0.0302383247762918,0.0,0.0,-0.987532079219818,-0.6570824384689331
-0.0827564224600792,0.908784806728363,-0.1127083897590637,-0.483416348695755,-0.2211871594190597,-0.004900824278593,0.0,0.0,-0.969521939754486,-0.921824276447296
-0.0839521437883377,0.8977310657501221,-0.1207458525896072,-0.4910966753959656,-0.2200004607439041,0.0237337294965982,0.0,0.0,-0.987917184829712,-0.7294054627418518
-0.0852129012346267,0.8864879608154297,-0.1285826116800308,-0.4993222951889038,-0.2174623757600784,0.0507615879178047,0.0,0.0,-0.995681643486023,-0.5114138126373291
-0.0865267738699913,0.8750564455986023,-0.1349572837352752,-0.5075476765632629,-0.213854044675827,0.0721669197082519,0.0,0.0,-0.9988090395927428,0.3378040790557861
-0.0878465622663497,0.8634161353111267,-0.135380133986473,-0.5168578624725342,-0.2104225158691406,0.0686307102441787,0.0,0.0,-0.9679301381111144,-0.2054848074913025
-0.0891719833016395,0.8515670299530029,-0.1357677280902862,-0.5261679291725159,-0.2071689367294311,0.0650716572999954,0.0,0.0,-0.9924106001853944,-0.1029302477836608
-0.0905026420950889,0.8395092487335205,-0.136118859052658,-0.5354779362678528,-0.204094260931015,0.0614934973418712,0.0,0.0,-0.9975020289421082,0.1567655801773071
-0.0918382629752159,0.8272427916526794,-0.1364324986934662,-0.5447877645492554,-0.2011992633342743,0.0578998140990734,0.0,0.0,-0.978866696357727,-0.579162061214447
-0.0932318717241287,0.8147842884063721,-0.1434280574321746,-0.5531574487686157,-0.1970948725938797,0.0820875614881515,0.0,0.0,-0.971645176410675,-0.2431818842887878
-0.094629481434822,0.8021172881126404,-0.14366415143013,-0.5624678730964661,-0.1931712180376052,0.0784734711050987,0.0,0.0,-0.8565829396247864,-0.1338942050933838
-0.096030905842781,0.789241373538971,-0.1438602656126022,-0.5717781186103821,-0.1894285082817077,0.0748544037342071,0.0,0.0,-0.9399623274803162,-0.6670730710029602
-0.0974828749895095,0.7761644721031189,-0.1499324291944503,-0.5805957317352295,-0.1846681982278823,0.0952061712741851,0.0,0.0,-0.966373085975647,-0.4152603149414062
-0.0989377051591873,0.7628790736198425,-0.1500474363565445,-0.5899063944816589,-0.1800888180732727,0.0915873795747757,0.0,0.0,-0.9925694465637208,-0.6272027492523193
-0.1004449874162674,0.7494038939476013,-0.1564205437898636,-0.5982165932655334,-0.1743812710046768,0.1141513362526893,0.0,0.0,-0.8851480484008789,-0.1058958768844604
-0.1019543632864952,0.7357200980186462,-0.1564537584781646,-0.6075279116630554,-0.1688539534807205,0.1105461940169334,0.0,0.0,-0.9282241463661194,0.0282562971115112
-0.1034654602408409,0.7218279242515564,-0.1564460694789886,-0.6168389916419983,-0.1635063141584396,0.106952928006649,0.0,0.0,-0.9588118195533752,0.1740024089813232
-0.1049778014421463,0.7077269554138184,-0.1563978344202041,-0.6261497735977173,-0.1583375632762909,0.1033749133348465,0.0,0.0,-0.959078848361969,-0.5381102561950684
-0.1065281853079795,0.6934311389923096,-0.1610054820775985,-0.6347472667694092,-0.15237557888031,0.1192396506667137,0.0,0.0,-0.4765715599060058,0.1139638423919677
-0.1080789566040039,0.6789266467094421,-0.1608779579401016,-0.6440584659576416,-0.1465905010700225,0.1157016530632972,0.0,0.0,-0.6422829627990723,0.4789263010025024
-0.1096299141645431,0.6642136573791504,-0.1607118099927902,-0.6533693075180054,-0.1409810781478881,0.1121885925531387,0.0,0.0,-0.3364624977111816,0.6715526580810547
-0.1111392006278038,0.6492812633514404,-0.1553286612033844,-0.6632492542266846,-0.1366030722856521,0.0875600725412368,0.0,0.0,-0.3538298606872558,-0.0930683612823486
-0.1126478165388107,0.6341401934623718,-0.1550879180431366,-0.6725588440895081,-0.1323977559804916,0.0841065794229507,0.0,0.0,-0.3266878128051758,0.815526008605957
-0.1140889152884483,0.6187753081321716,-0.1464504450559616,-0.6826780438423157,-0.1300635933876037,0.0466834679245948,0.0,0.0,1.9073486328125e-06,0.7409960031509399
-0.1153517737984657,0.6034891605377197,-0.1270244419574737,-0.679322361946106,-0.1293371319770813,0.0145295858383178,0.0,0.0,-0.5085756778717041,0.6010611057281494
-0.1165579780936241,0.5879858732223511,-0.1197803169488906,-0.6891086101531982,-0.1301712840795517,-0.0166833326220512,0.0,0.0,0.6190967559814453,0.0458375215530395
-0.1176350563764572,0.5734443664550781,-0.1068200021982193,-0.6463646292686462,-0.1310567855834961,-0.0177099481225013,0.0,0.0,-0.7926207184791565,-0.3726359605789184
