x_pos,y_pos,x_vel,y_vel,angle,ang_vel,leg_1,leg_2,main_booster,lat_booster
-0.0015640258789062,1.4029922485351562,-0.1585998833179474,-0.3523513078689575,0.001971352379769,0.0389023311436176,0.0,0.0,-0.9832027947715404,-0.8825783709956654
-0.0032337189186364,1.3944509029388428,-0.1706963032484054,-0.3796264827251434,0.005660836584866,0.0737970620393753,0.0,0.0,0.6109539600527769,0.6119233588948187
-0.0047602653503417,1.3858649730682373,-0.1556929647922516,-0.3816134035587311,0.0086697833612561,0.060184258967638,0.0,0.0,-0.4793549451164334,0.7218369741300724
-0.0062860487960278,1.3766448497772217,-0.1546429991722107,-0.4097949564456939,0.0107072442770004,0.0407532639801502,0.0,0.0,-0.5975250347443637,0.6156835763586945
-0.0077992440201342,1.366795539855957,-0.1520644426345825,-0.4377554655075073,0.0114419106394052,0.0146947605535388,0.0,0.0,-0.8689484812441104,0.5291784057157178
-0.0093086240813136,1.3563138246536257,-0.1505616754293441,-0.4658414125442505,0.0110680582001805,-0.0074778832495212,0.0,0.0,0.9915322075893708,0.7056716148988711
-0.0108479503542184,1.3462445735931396,-0.1522318422794342,-0.4475071728229522,0.0093972338363528,-0.0334198400378227,0.0,0.0,0.8036945133240896,0.653724748703274
-0.0122158052399754,1.336607575416565,-0.1344300210475921,-0.428298681974411,0.0070677432231605,-0.0465943440794944,0.0,0.0,0.4133924593024112,0.9522877223343508
-0.0135758398100733,1.3274232149124146,-0.1319156140089035,-0.4081805944442749,0.0030196420848369,-0.0809695348143577,0.0,0.0,0.0964432863209454,0.9729246933183994
-0.0149125102907419,1.3183363676071167,-0.1278066486120224,-0.4038600623607635,-0.0027746155392378,-0.1158956885337829,0.0,0.0,0.6018125498360454,0.5256722049861785
-0.0161684993654489,1.3094820976257324,-0.1191250532865524,-0.3935497999191284,-0.0091810813173651,-0.1281410604715347,0.0,0.0,-0.6521038244913002,-0.5488233557360062
-0.0175153724849224,1.2999953031539917,-0.1293689310550689,-0.4216786324977875,-0.0144451977685093,-0.1052917018532753,0.0,0.0,-0.5788767239669312,-0.8690245726250458
-0.0189694408327341,1.2898820638656616,-0.1416309624910354,-0.4495157599449157,-0.0181760471314191,-0.0746236890554428,0.0,0.0,-0.3065691706332578,0.7000894789549748
-0.0204161647707223,1.2791285514831543,-0.1395198404788971,-0.4780012965202331,-0.0232718475162982,-0.1019255518913269,0.0,0.0,-0.2350485911790716,0.921568076550742
-0.0218277927488088,1.267749905586243,-0.1339106112718582,-0.5058552026748657,-0.0304378233850002,-0.1433328092098236,0.0,0.0,0.9918921176176334,-0.9815631316940768
-0.0232151038944721,1.2562618255615234,-0.133914053440094,-0.5106844305992126,-0.0352043621242046,-0.0953394919633865,0.0,0.0,-0.6990341801961992,-0.700045873562904
-0.02470064163208,1.2441518306732178,-0.1450089961290359,-0.5383036732673645,-0.0387146845459938,-0.070212684571743,0.0,0.0,0.5160865252703077,-0.9806190800629332
-0.0261579509824514,1.231912612915039,-0.1444892138242721,-0.5439990758895874,-0.0399411022663116,-0.0245304182171821,0.0,0.0,-0.923783249286436,0.9458194958675252
-0.0275851245969533,1.219044804573059,-0.1394648104906082,-0.5719977021217346,-0.043163426220417,-0.0644523426890373,0.0,0.0,0.5092328246336484,-0.7852712908588271
-0.0291911121457815,1.206328272819519,-0.1589715182781219,-0.565222442150116,-0.0447739772498607,-0.0322136059403419,0.0,0.0,0.8560246486447651,-0.6606743233182368
-0.0307147018611431,1.19424307346344,-0.1526409089565277,-0.5371133089065552,-0.0444952175021171,0.0055755162611603,0.0,0.0,-0.6308203411188078,-0.8023585576308943
-0.0323586463928222,1.1815247535705566,-0.1664418280124664,-0.5651910901069641,-0.0424683168530464,0.0405415259301662,0.0,0.0,-0.4072684534324637,0.6531767085999052
-0.0339982993900775,1.1681697368621826,-0.1646039485931396,-0.5935501456260681,-0.0418346412479877,0.0126747461035847,0.0,0.0,-0.6539278916964106,0.7752553168399972
-0.0356284156441688,1.1541690826416016,-0.1621042639017105,-0.6222730875015259,-0.0427359603345394,-0.0180279873311519,0.0,0.0,-0.6525580802586473,0.8491353357586826
-0.037266157567501,1.1395353078842163,-0.1617399007081985,-0.6504529118537903,-0.0447411201894283,-0.0401067659258842,0.0,0.0,-0.0164361134279855,0.9222216452942305
-0.0389081947505474,1.1242488622665403,-0.1609546691179275,-0.6794966459274292,-0.0479501336812973,-0.0641806051135063,0.0,0.0,0.7509835113342718,0.6245093547916158
-0.0405187606811523,1.10948383808136,-0.1567592322826385,-0.6563659310340881,-0.0522048510611057,-0.0850942507386207,0.0,0.0,0.6544916328575494,-0.6752127538646024
-0.0423412322998046,1.0953470468521118,-0.1791738420724868,-0.6284140348434448,-0.0552435778081417,-0.0607744939625263,0.0,0.0,-0.7016926207026051,-0.5262215631588271
-0.0442739501595497,1.0805864334106443,-0.191673919558525,-0.6560863256454468,-0.0568230636417865,-0.0315895862877368,0.0,0.0,-0.8271098256800555,-0.6684273516991491
-0.0463213920593261,1.0651955604553225,-0.2047266662120819,-0.6840365529060364,-0.0568429082632064,-0.0003969836980104,0.0,0.0,0.5301750443196374,-0.7269051880852477
-0.0484224334359169,1.0503581762313845,-0.2117731124162674,-0.6593777537345886,-0.0551966615021228,0.032924897968769,0.0,0.0,-0.9857269525527954,0.0921270847320556
-0.0505839362740516,1.034888505935669,-0.2179891765117645,-0.6874763369560242,-0.0533687323331832,0.0365586429834365,0.0,0.0,-0.208576500415802,0.7854633331298828
-0.0527519211173057,1.018789529800415,-0.2174715250730514,-0.7154868841171265,-0.0527075566351413,0.0132233705371618,0.0,0.0,-0.8471817970275879,0.6064708232879639
-0.0549379363656044,1.002049446105957,-0.2183544933795929,-0.7440189719200134,-0.0529470480978488,-0.004790092818439,0.0,0.0,-0.4780627489089966,-0.2262903451919555
-0.057184599339962,0.984676718711853,-0.2246060669422149,-0.7721173763275146,-0.0530082769691944,-0.0012245683465152,0.0,0.0,-0.6634941101074219,-0.1703404784202575
-0.0594921112060546,0.9666717052459716,-0.2308671027421951,-0.8002157807350159,-0.0528925992548465,0.0023136087693274,0.0,0.0,-0.8156858086585999,0.4492239952087402
-0.0618605613708496,0.9480344653129578,-0.2371365576982498,-0.8283141255378723,-0.0526014827191829,0.0058222352527081,0.0,0.0,0.4496060609817505,0.6519218683242798
-0.0641665458679199,0.9297632575035096,-0.2298299074172973,-0.8120785355567932,-0.0533604994416236,-0.0151803586632013,0.0,0.0,-0.0857117176055908,0.0880876779556274
-0.0665335655212402,0.910859763622284,-0.2361132651567459,-0.8401771187782288,-0.0539474710822105,-0.0117391385138034,0.0,0.0,0.246719479560852,0.4677662849426269
-0.0689157471060752,0.8920091986656189,-0.2378975450992584,-0.8378127217292786,-0.0542656555771827,-0.0063637257553637,0.0,0.0,0.66949462890625,0.5013730525970459
-0.0713914856314659,0.8737152218818665,-0.246084839105606,-0.8131235241889954,-0.0557350069284439,-0.02938699349761,0.0,0.0,0.3310718536376953,0.5335280895233154
-0.0737549811601638,0.8554067015647888,-0.2341988533735275,-0.8137906789779663,-0.0578582175076007,-0.0424642711877822,0.0,0.0,-0.4837710857391357,0.3581900596618652
-0.0761797875165939,0.8364660143852234,-0.2404990941286087,-0.841889500617981,-0.0598179176449775,-0.0391940474510192,0.0,0.0,0.426959753036499,0.3442609310150146
-0.0785530060529708,0.8175687789916992,-0.235911339521408,-0.8399301171302795,-0.0612200535833835,-0.0280424170196056,0.0,0.0,-0.4763312339782715,0.6613771915435791
-0.0809392929077148,0.798026978969574,-0.2361340820789337,-0.8686263561248779,-0.0636933669447898,-0.0494660064578056,0.0,0.0,0.5273528099060059,0.8221173286437988
-0.0832555741071701,0.7782964110374451,-0.2276978492736816,-0.8770892024040222,-0.0675783157348632,-0.0776991471648216,0.0,0.0,0.7996505498886108,0.7449643611907959
-0.0854695290327072,0.7586448788642883,-0.2162837237119674,-0.8736429214477539,-0.0726382583379745,-0.1011989489197731,0.0,0.0,0.8540751934051514,0.2910277843475342
-0.0878028869628906,0.7397748827934265,-0.2277833968400955,-0.8389468789100647,-0.0781329721212387,-0.1098944917321205,0.0,0.0,0.2322053909301757,0.1111189126968383
-0.0902504920959472,0.7211634516716003,-0.2388970851898193,-0.8274886012077332,-0.0839403122663497,-0.1161468476057052,0.0,0.0,0.9578614234924316,0.6584794521331787
-0.0926840752363205,0.7028161883354187,-0.2362454831600189,-0.8158504962921143,-0.0909886956214904,-0.140967383980751,0.0,0.0,0.6583552360534668,0.728705644607544
-0.0949126258492469,0.6846639513969421,-0.2147416621446609,-0.807280421257019,-0.0990319326519966,-0.1608648598194122,0.0,0.0,0.9579535722732544,0.0884085893630981
-0.0971841812133789,0.667193591594696,-0.2188696414232254,-0.7770363092422485,-0.1072578206658363,-0.1645176857709884,0.0,0.0,0.3087729215621948,-0.3320719003677368
-0.0993934646248817,0.6496028304100037,-0.2131769359111786,-0.7823856472969055,-0.1149544939398765,-0.153933435678482,0.0,0.0,0.6700292825698853,-0.5378493666648865
-0.1016100868582725,0.6325935125350952,-0.2151384800672531,-0.7564864754676819,-0.121442824602127,-0.1297666132450103,0.0,0.0,0.8664367198944092,-0.579693615436554
-0.1036888137459755,0.6157457828521729,-0.2031269967555999,-0.7491798996925354,-0.1261636018753051,-0.094415433704853,0.0,0.0,0.5562798976898193,-0.1113644838333129
-0.1058624237775802,0.5989435315132141,-0.2123145312070846,-0.7472047805786133,-0.1311868727207183,-0.1004654988646507,0.0,0.0,0.5120317935943604,-0.1138085722923278
-0.1079166382551193,0.5825768709182739,-0.2008937150239944,-0.7278111577033997,-0.1357035636901855,-0.0903334766626358,0.0,0.0,0.7848752737045288,0.2022762298583984
-0.1097860336303711,0.5666306614875793,-0.1831969320774078,-0.7090640664100647,-0.139427438378334,-0.074477843940258,0.0,0.0,0.5671379566192627,0.5667243003845215
-0.1114875823259353,0.5511928796768188,-0.1655632555484771,-0.686558723449707,-0.1439964026212692,-0.0913793295621872,0.0,0.0,0.2536402940750122,0.7865891456604004
-0.1131673827767372,0.5360158085823059,-0.1618564277887344,-0.6751435399055481,-0.1501113623380661,-0.122299239039421,0.0,0.0,0.1146293878555297,-0.782274603843689
-0.1148935332894325,0.5205754637718201,-0.1681643277406692,-0.6866945028305054,-0.1545527428388595,-0.0888275131583213,0.0,0.0,0.9186338186264038,-0.3740129470825195
-0.1166703253984451,0.5057371854782104,-0.1727775782346725,-0.6599979400634766,-0.159453198313713,-0.0980090647935867,0.0,0.0,-0.1601174473762512,0.3469369411468506
-0.1185080558061599,0.4902667701244354,-0.1789483428001403,-0.688098132610321,-0.1642801314592361,-0.0965386480093002,0.0,0.0,0.433178186416626,0.2663371562957763
-0.1202995330095291,0.4749460518360138,-0.1744801104068756,-0.6814406514167786,-0.1689452528953552,-0.0933023542165756,0.0,0.0,0.7460055351257324,0.0461581945419311
-0.122072122991085,0.4596177041530609,-0.1727094650268554,-0.6817895770072937,-0.1735111624002456,-0.0913184285163879,0.0,0.0,0.2015225887298584,-0.2746872901916504
-0.1239197701215744,0.4443155229091644,-0.179846853017807,-0.680677592754364,-0.1784388870000839,-0.0985543131828308,0.0,0.0,0.6770362854003906,-0.5386950969696045
-0.12569160759449,0.4296749532222748,-0.1734662353992462,-0.6511449217796326,-0.182171955704689,-0.0746614187955856,0.0,0.0,0.3466236591339111,0.6262023448944092
-0.1273602545261383,0.4147131443023681,-0.1620688736438751,-0.6655672788619995,-0.186985582113266,-0.0962724089622497,0.0,0.0,0.0777113437652587,-0.786196768283844
-0.1290249824523925,0.3999605178833008,-0.1633026450872421,-0.6560772657394409,-0.1901690661907196,-0.0636702552437782,0.0,0.0,0.7919183969497681,-0.2910386323928833
-0.1307524740695953,0.385360836982727,-0.1691396534442901,-0.6493409276008606,-0.1937951743602752,-0.0725220590829849,0.0,0.0,0.6948593854904175,-0.2767167091369629
-0.1324978768825531,0.3711786866188049,-0.1705241501331329,-0.6308464407920837,-0.1978335976600647,-0.0807686001062393,0.0,0.0,0.3974965810775757,0.6660943031311035
-0.1341187506914138,0.3571161031723022,-0.1568230092525482,-0.6257175803184509,-0.203139841556549,-0.1061249375343322,0.0,0.0,0.6082243919372559,-0.4674315452575683
-0.1357551515102386,0.3436673879623413,-0.1578119397163391,-0.5985329151153564,-0.2090146690607071,-0.1174964904785156,0.0,0.0,0.0883148908615112,-0.8112152218818665
-0.1373784095048904,0.330147385597229,-0.1581473499536514,-0.6014866232872009,-0.2132275253534317,-0.0842571631073951,0.0,0.0,0.513391375541687,-0.2292842268943786
-0.1390136778354644,0.3165303468704223,-0.1592126190662384,-0.6058298945426941,-0.2175832390785217,-0.0871143341064453,0.0,0.0,0.4776757955551147,0.5369172096252441
-0.1405386924743652,0.3026666939258575,-0.1472742557525634,-0.6169402003288269,-0.2228703647851944,-0.1057425364851951,0.0,0.0,0.7279846668243408,-0.6542559862136841
-0.1421279907226562,0.288713127374649,-0.1549157202243805,-0.6207708716392517,-0.2269394099712371,-0.0813809633255004,0.0,0.0,0.979729413986206,-0.5580604076385498
-0.1436119079589843,0.2755400538444519,-0.1454422026872635,-0.5859273076057434,-0.2299268245697021,-0.0597485117614269,0.0,0.0,0.991387128829956,-0.2173385620117187
-0.1448329985141754,0.263137936592102,-0.1195842400193214,-0.5515982508659363,-0.2324891984462738,-0.0512474067509174,0.0,0.0,0.9231044054031372,-0.9069862365722656
-0.1460976600646972,0.2515758275985718,-0.125464528799057,-0.5140313506126404,-0.23350490629673,-0.0203139372169971,0.0,0.0,0.9367282390594482,0.5108275413513184
-0.1474437713623047,0.2399848252534866,-0.1320867389440536,-0.5155608654022217,-0.2360662221908569,-0.0512262471020221,0.0,0.0,0.8313369750976562,0.4805217981338501
-0.1485940963029861,0.2290238887071609,-0.1126885190606117,-0.4875304400920868,-0.2384561598300933,-0.0477991253137588,0.0,0.0,0.9067158699035645,-0.1659832000732422
-0.1497530043125152,0.2184404730796814,-0.1129657477140426,-0.4708496928215027,-0.2414270043373108,-0.0594165809452533,0.0,0.0,0.9828903675079346,-0.4492574334144592
-0.1508318930864334,0.2084336131811142,-0.1046246662735939,-0.4452899098396301,-0.2447464764118194,-0.0663895308971405,0.0,0.0,0.7307753562927246,-0.3074700832366943
-0.151794821023941,0.1988654285669326,-0.09292883425951,-0.425816923379898,-0.2481724172830581,-0.0685189440846443,0.0,0.0,0.8422985076904297,-0.3169105648994446
-0.1525523215532302,0.1895728260278701,-0.072770282626152,-0.4135100245475769,-0.2512011528015136,-0.0605747811496257,0.0,0.0,0.9249122142791748,-0.7304830551147461
-0.153285413980484,0.1802310794591903,-0.0717936009168624,-0.4154489934444427,-0.2527467906475067,-0.0309130009263753,0.0,0.0,0.8174636363983154,-0.5247675180435181
-0.1538887023925781,0.1708717495203018,-0.0600904338061809,-0.4160108268260956,-0.2529868483543396,-0.0048013650812208,0.0,0.0,0.9588658809661864,-0.844151496887207
-0.1542457640171051,0.1618168205022812,-0.0374710299074649,-0.4021377861499786,-0.251194953918457,0.0358370877802372,0.0,0.0,0.7818176746368408,-0.6099404096603394
-0.1544298231601715,0.1527012437582016,-0.0217092540115118,-0.4045768082141876,-0.2478323429822921,0.0672524645924568,0.0,0.0,0.8016493320465088,-0.537092924118042
-0.1544994413852691,0.144166886806488,-0.0112471552565693,-0.3785852193832397,-0.2434713542461395,0.087220162153244,0.0,0.0,0.9374419450759888,-0.7948367595672607
-0.1544137001037597,0.1363102346658706,0.0026860877405852,-0.3482259809970855,-0.2374902367591858,0.1196222677826881,0.0,0.0,0.2068696022033691,-0.8284409642219543
-0.1542101800441742,0.1285216659307479,0.0128099918365478,-0.3449577987194061,-0.2298385798931121,0.1530327349901199,0.0,0.0,0.7227814197540283,-0.6853291988372803
-0.1539046317338943,0.1205717399716377,0.0214628912508487,-0.3519410490989685,-0.220638245344162,0.1840069890022277,0.0,0.0,0.738053560256958,-0.3920158743858337
-0.1535664498805999,0.1127930507063865,0.0250631310045719,-0.3444313406944275,-0.2117791622877121,0.1771820336580276,0.0,0.0,0.7389105558395386,-0.1507796645164489
-0.1529781371355056,0.1056871265172958,0.0497370548546314,-0.3145413398742676,-0.2025969177484512,0.1836444735527038,0.0,0.0,0.8851802349090576,-0.313503623008728
-0.1523103713989257,0.0989125072956085,0.0578830018639564,-0.2999002039432525,-0.1936300843954086,0.1793363392353058,0.0,0.0,0.693076491355896,-0.7673088908195496
-0.1517037451267242,0.092771828174591,0.0505630485713481,-0.2716309428215027,-0.1834849566221237,0.2029025554656982,0.0,0.0,0.6622092723846436,-0.3320099115371704
-0.1509021818637848,0.0870120152831077,0.0697372704744339,-0.2547345757484436,-0.1730337440967559,0.2090242803096771,0.0,0.0,0.694715142250061,-0.8574163913726807
-0.1501102447509765,0.0817984417080879,0.0672391802072525,-0.2303667366504669,-0.1610639691352844,0.2393954247236251,0.0,0.0,0.5339386463165283,-0.4415866732597351
-0.1492955237627029,0.0770025104284286,0.0699531957507133,-0.2119483053684234,-0.1495551317930221,0.2301767319440841,0.0,0.0,0.445589542388916,-0.3566694855690002
-0.1484471261501312,0.0722273886203765,0.0735137239098548,-0.2111303508281707,-0.1382557600736618,0.225987046957016,0.0,0.0,0.6920642852783203,-0.3732808828353882
-0.147638514637947,0.0677615478634834,0.0701771825551986,-0.1975246369838714,-0.1276211142539978,0.2126933634281158,0.0,0.0,0.5793545246124268,0.2867356538772583
-0.146912008523941,0.0634374693036079,0.0627423375844955,-0.1913640648126602,-0.1177669316530227,0.1970835626125335,0.0,0.0,0.5826761722564697,-0.5045043230056763
-0.1460359543561935,0.0594991296529769,0.076490893959999,-0.1741995215415954,-0.1067305207252502,0.2207284718751907,0.0,0.0,0.3191238641738891,0.1813875436782837
-0.1450762748718261,0.0553618781268596,0.0847401320934295,-0.1831131279468536,-0.0955886542797088,0.2228373289108276,0.0,0.0,0.2772395610809326,0.0605242252349853
-0.1439416855573654,0.0514587983489036,0.1018143519759178,-0.1727631837129593,-0.0840521305799484,0.2307305335998535,0.0,0.0,0.6919362545013428,0.4292968511581421
-0.1427536010742187,0.0481161922216415,0.1073979288339614,-0.1479553580284118,-0.0727508515119552,0.2260256260633468,0.0,0.0,0.1101309061050415,0.2448732852935791
-0.1414147317409515,0.0449918136000633,0.1221465319395065,-0.1383320391178131,-0.0611355975270271,0.2323051691055297,0.0,0.0,0.227012038230896,-0.0309315919876098
-0.1399765908718109,0.0418763719499111,0.131943792104721,-0.1380190253257751,-0.0493903569877147,0.2349047660827636,0.0,0.0,0.1892848014831543,0.0144410133361816
-0.1384949684143066,0.0390115603804588,0.1364351212978363,-0.1269793957471847,-0.0378037132322788,0.2317326366901397,0.0,0.0,0.0557731389999389,0.3392747640609741
-0.1369331330060959,0.0362685546278953,0.1444088816642761,-0.121654987335205,-0.0261746123433113,0.2325817793607711,0.0,0.0,-0.0941082239151001,0.1238737106323242
-0.1353461295366287,0.0328951217234134,0.147069975733757,-0.1497658193111419,-0.0146845141425728,0.2298019677400589,0.0,0.0,0.6158459186553955,-0.1721284389495849
-0.133841797709465,0.0298007819801569,0.1394906938076019,-0.1374538540840149,-0.0038888195995241,0.2159138023853302,0.0,0.0,0.281362771987915,0.4489083290100097
-0.132405087351799,0.0266751144081354,0.1333471238613128,-0.1389225423336029,0.0063034989871084,0.2038462907075882,0.0,0.0,0.2136549949645996,0.6501060724258423
-0.1309042870998382,0.0235395058989524,0.1412365883588791,-0.1394203007221222,0.0150315221399068,0.174560397863388,0.0,0.0,0.4166305065155029,0.8325049877166748
-0.1292841881513595,0.0204591136425733,0.1549577862024307,-0.1369958817958831,0.0219895187765359,0.1391603499650955,0.0,0.0,0.4220092296600342,0.4376047849655151
-0.1275213211774826,0.0172149278223514,0.1688661575317382,-0.1443129181861877,0.0293200369924306,0.1466105133295059,0.0,0.0,0.4724880456924438,0.5000149011611938
-0.1256042420864105,0.0142608499154448,0.1851977407932281,-0.1314318627119064,0.0357479341328144,0.1285574734210968,0.0,0.0,0.348740816116333,-0.3375208377838135
-0.1236492171883583,0.0116633269935846,0.1890604943037033,-0.1156150996685028,0.042120661586523,0.1274544149637222,0.0,0.0,0.3316833972930908,-0.2726539969444275
