x_pos,y_pos,x_vel,y_vel,angle,ang_vel,leg_1,leg_2,main_booster,lat_booster
-0.0015249252319335,1.4032443761825562,-0.1541325151920318,-0.3411425054073334,0.0014687546063214,0.0289505571126937,0.0,0.0,0.9220009729176069,0.9344147088182722
-0.0029113769996911,1.3960124254226685,-0.1380503475666046,-0.3214184939861297,0.0008809345890767,-0.0117571093142032,0.0,0.0,-0.6281312207168446,-0.8761189898741762
-0.0043518068268895,1.3883931636810305,-0.1444961130619049,-0.3386275172233581,0.0013401388423517,0.0091845262795686,0.0,0.0,0.7517316991682033,0.6871953547104457
-0.0058755874633789,1.3811862468719482,-0.1508189141750335,-0.3203079104423523,-0.0002013655030168,-0.0308331344276666,0.0,0.0,0.0660124034031621,-0.9708622595662736
-0.0073753357864916,1.3742332458496094,-0.1500432789325714,-0.3090210556983948,-0.0001346262288279,0.0013348468346521,0.0,0.0,-0.5687712805493497,-0.9094310740272114
-0.0089293476194143,1.3668988943099976,-0.1565603911876678,-0.3259729444980621,0.0010192728368565,0.0230800528079271,0.0,0.0,-0.9329017054099806,-0.7513258073321378
-0.0105429645627737,1.359184503555298,-0.1637964993715286,-0.3428677022457123,0.0034139459021389,0.0478982999920845,0.0,0.0,-0.0827780444241768,-0.9268383516478418
-0.0122097972780466,1.3510924577713013,-0.1701886057853698,-0.3596558272838592,0.0068873753771185,0.0694747492671012,0.0,0.0,-0.3372299562147753,0.7546431252640984
-0.0138160707429051,1.3426294326782229,-0.1623535752296447,-0.3761507570743561,0.0085941050201654,0.0341376587748527,0.0,0.0,-0.1614065414640881,-0.6027230260878551
-0.0154671669006347,1.333789348602295,-0.167743295431137,-0.3929098844528198,0.0111965425312519,0.0520537719130516,0.0,0.0,-0.8571104466482964,0.6096695544227528
-0.0170602798461914,1.324570655822754,-0.1602475494146347,-0.4097315967082977,0.0121172182261943,0.0184152889996767,0.0,0.0,-0.6787916791332136,-0.7179646456473965
-0.0186998359858989,1.3149693012237549,-0.1658641695976257,-0.4267401397228241,0.0139957722276449,0.0375746376812458,0.0,0.0,-0.3087352571607615,0.847907199507038
-0.0202545169740915,1.304993987083435,-0.1549928486347198,-0.4433444440364837,0.013530446216464,-0.0093072606250643,0.0,0.0,-0.4021449750654584,0.9884368341802294
-0.0217179302126169,1.2946312427520752,-0.1433697491884231,-0.4605475664138794,0.010584725998342,-0.0589197501540184,0.0,0.0,0.815332136978602,0.9266187917730928
-0.0229412075132131,1.2852606773376465,-0.1175019741058349,-0.4164449274539947,0.0058053261600434,-0.0955967456102371,0.0,0.0,0.0517165905672369,0.8483764254851647
-0.0240118987858295,1.2757853269577026,-0.1002493053674697,-0.4211128652095794,-0.0009296193602494,-0.1347109973430633,0.0,0.0,0.8235991973668289,-0.9412638976453084
-0.0249814987182617,1.2673578262329102,-0.0920426696538925,-0.3745741844177246,-0.005802305880934,-0.0974626317620277,0.0,0.0,0.651742222863027,0.8165960740058571
-0.0257215499877929,1.259103298187256,-0.0674250274896621,-0.3669054210186004,-0.0123051023110747,-0.1300675570964813,0.0,0.0,0.9971527456035054,0.6425503565399506
-0.0262675285339355,1.2519277334213257,-0.0467817708849906,-0.3189961612224579,-0.020029155537486,-0.1544950306415558,0.0,0.0,0.0497106407303908,0.9823313794408572
-0.0267842300236225,1.2449111938476562,-0.0416232720017433,-0.3120030462741852,-0.0299713499844074,-0.1988619416952133,0.0,0.0,0.3588110340335209,-0.8419076565366148
-0.0272236820310354,1.2384469509124756,-0.0354247465729713,-0.2874898016452789,-0.0383906513452529,-0.1684012860059738,0.0,0.0,0.1502081722706398,-0.9883165136390976
-0.02771339379251,1.2320636510849,-0.042156521230936,-0.2838955819606781,-0.0451330281794071,-0.1348595172166824,0.0,0.0,0.3130504306699102,0.8485052727897614
-0.0279925353825092,1.225935697555542,-0.0192240942269563,-0.2726299166679382,-0.053730122745037,-0.1719575077295303,0.0,0.0,-0.8868147358196461,0.605851616410163
-0.0282115936279296,1.2194180488586426,-0.0115880547091364,-0.29007288813591,-0.0639533922076225,-0.2044837176799774,0.0,0.0,-0.0164578565169226,-0.7381394412519321
-0.0284955985844135,1.2125307321548462,-0.0196377094835042,-0.3064977824687958,-0.0726381167769432,-0.1737096607685089,0.0,0.0,-0.6053466899076223,0.7420597190755137
-0.0287291519343853,1.2052425146102903,-0.0131659265607595,-0.3244463801383972,-0.0827187523245811,-0.2016129046678543,0.0,0.0,0.5251292094084228,-0.675174107976305
-0.0289493557065725,1.1985886096954346,-0.0129319382831454,-0.2962578535079956,-0.0917191579937934,-0.180008053779602,0.0,0.0,-0.1549568871770428,0.7352016657254574
-0.0291164405643939,1.1915576457977295,-0.0062113599851727,-0.3131681382656097,-0.1021349653601646,-0.2083159238100052,0.0,0.0,0.4820207230710043,0.8625004543085801
-0.0292680747807025,1.1852024793624878,-0.002512386534363,-0.2833714783191681,-0.1147039532661438,-0.2513796985149383,0.0,0.0,-0.0175747354391335,0.6059360932495877
-0.0293664932250976,1.178459644317627,0.0042350674048066,-0.3008214235305786,-0.1287041306495666,-0.2800034582614898,0.0,0.0,0.4252413957708711,-0.7931198347692424
-0.0294069293886423,1.1724435091018677,0.0086455354467034,-0.2685273885726928,-0.1413499563932418,-0.2529163956642151,0.0,0.0,-0.9452869433939196,0.8590813286554636
-0.0293816570192575,1.1660329103469849,0.0169590655714273,-0.2863523662090301,-0.155748650431633,-0.287973940372467,0.0,0.0,-0.6750758890023374,0.924953242323402
-0.0292851440608501,1.1592397689819336,0.0258861072361469,-0.3037013709545135,-0.1719899177551269,-0.3248258531093597,0.0,0.0,-0.9975117248586144,0.7154694662957435
-0.0291314125061035,1.1520516872406006,0.0330797843635082,-0.321626603603363,-0.1897621899843216,-0.3554450571537018,0.0,0.0,0.3071189483653229,-0.8322664815622517
-0.0289258956909179,1.1452350616455078,0.0367764756083488,-0.3051254153251648,-0.2060878127813339,-0.3265124261379242,0.0,0.0,0.2977941897875085,0.905178696145625
-0.0285032279789447,1.13889479637146,0.060433842241764,-0.2844257652759552,-0.2244511544704437,-0.3672667741775512,0.0,0.0,-0.2087143362422878,-0.962101907976056
-0.028150176629424,1.1322009563446045,0.0516416914761066,-0.3000818192958832,-0.2410231381654739,-0.3314400613307953,0.0,0.0,-0.9990061130248216,0.8351728325864691
-0.0277194026857614,1.1251128911972046,0.0613105706870555,-0.3181250393390655,-0.2596031725406647,-0.3716006278991699,0.0,0.0,-0.3819738617735915,0.9779685546966808
-0.0272083282470703,1.11763334274292,0.0712666884064674,-0.336135059595108,-0.2802367210388183,-0.4126710295677185,0.0,0.0,0.2683115670889375,0.916569135967298
-0.0264652259647846,1.110413670539856,0.0963316336274147,-0.3252576887607574,-0.3029218912124634,-0.4537037909030914,0.0,0.0,-0.5364924427698841,-0.7157382643416509
-0.0257748607546091,1.1028565168380735,0.089436836540699,-0.3402734398841858,-0.3240840137004852,-0.4232431352138519,0.0,0.0,-0.1573608517646789,-0.9968954920768738
-0.0251349452883005,1.094952940940857,0.0828950405120849,-0.3556279242038727,-0.3438203930854797,-0.3947276771068573,0.0,0.0,-0.2386302947998047,-0.9962552785873412
-0.0245501510798931,1.0866974592208862,0.0757966563105583,-0.3711498379707336,-0.3620395362377167,-0.3643827736377716,0.0,0.0,-0.8562920093536377,-0.996340811252594
-0.0240180976688861,1.0780993700027466,0.0689730197191238,-0.3862039148807525,-0.3787240982055664,-0.3336914479732513,0.0,0.0,-0.7174041271209717,-0.9946569800376892
-0.0235576629638671,1.0691605806350708,0.0598280504345893,-0.4010076224803924,-0.3933985829353332,-0.2934902608394623,0.0,0.0,-0.5555232167243958,-0.9960933327674866
-0.0231578834354877,1.0598769187927246,0.0520640425384044,-0.4159999787807464,-0.4063385426998138,-0.2587990760803222,0.0,0.0,-0.7593021392822266,-0.9990767240524292
-0.0228156093508005,1.0502526760101318,0.0446536503732204,-0.4307799339294433,-0.4175693988800049,-0.2246172726154327,0.0,0.0,-0.9222966432571412,-0.9977765083312988
-0.0225468631833791,1.040316462516785,0.0351036675274372,-0.4440668523311615,-0.426461398601532,-0.1778393238782882,0.0,0.0,-0.890431821346283,-0.9923612475395204
-0.0223536491394042,1.0300683975219729,0.0252925641834735,-0.4572930037975311,-0.4329456686973572,-0.1296861469745636,0.0,0.0,-0.4186576604843139,-0.99916410446167
-0.0222267154604196,1.0194896459579468,0.0167751535773277,-0.471431165933609,-0.4373916089534759,-0.088918350636959,0.0,0.0,-0.8577451109886169,-0.9948940873146056
-0.0221456531435251,1.0085691213607788,0.0108240889385342,-0.4862097799777984,-0.4403578042984009,-0.0593237392604351,0.0,0.0,-0.8971423506736755,-0.99303936958313
-0.0221319198608398,0.9973294138908386,0.0020931712351739,-0.4997636377811432,-0.4411340355873108,-0.0155245708301663,0.0,0.0,-0.8814982175827026,-0.9887984991073608
-0.0221692081540823,0.9857458472251892,-0.0044886488467454,-0.5145882964134216,-0.4403058290481567,0.0165640264749526,0.0,0.0,-0.9194124341011048,-0.9752554893493652
-0.0222648624330759,0.9738391637802124,-0.0121267847716808,-0.5283786058425903,-0.4375060200691223,0.0559959486126899,0.0,0.0,-0.8844417333602905,-0.9978199005126952
-0.0224071498960256,0.9615869522094728,-0.018181812018156,-0.5433143973350525,-0.4331977665424347,0.0861647576093673,0.0,0.0,-0.8385155200958252,-0.9392257928848268
-0.0226202961057424,0.9490053057670592,-0.0273247119039297,-0.5573490858078003,-0.4266686141490936,0.1305829286575317,0.0,0.0,-0.8413118720054626,-0.9464219212532043
-0.0228801723569631,0.936091125011444,-0.0335419923067092,-0.5717007517814636,-0.4184934794902801,0.1635025590658188,0.0,0.0,-0.9200125336647034,-0.9655513763427734
-0.0231845863163471,0.9228368401527404,-0.0394468083977699,-0.5864328742027283,-0.4087821841239929,0.1942251622676849,0.0,0.0,-0.93630188703537,-0.9195968508720398
-0.0235365871340036,0.9092504382133484,-0.045817345380783,-0.6008222699165344,-0.3973914384841919,0.227814644575119,0.0,0.0,-0.8617169857025146,-0.8398705720901489
-0.0239473339170217,0.8953355550765991,-0.0535971298813819,-0.614995539188385,-0.3840251564979553,0.2673259377479553,0.0,0.0,-0.9737279415130616,-0.8091144561767578
-0.0244062431156635,0.8810691833496094,-0.0599156320095062,-0.6303510665893555,-0.3691188395023346,0.2981255054473877,0.0,0.0,-0.9850237369537354,-0.7067880034446716
-0.0249167438596487,0.8664642572402954,-0.0668165832757949,-0.6451348662376404,-0.3524786233901977,0.3328040838241577,0.0,0.0,-0.985400140285492,-0.1809755563735962
-0.0254194252192974,0.8514825105667114,-0.0661893337965011,-0.6620456576347351,-0.3357936441898346,0.3336996436119079,0.0,0.0,-0.9880203008651732,0.3476459980010986
-0.0259146690368652,0.8361239433288574,-0.0655857995152473,-0.6789564490318298,-0.3190528452396393,0.3348165452480316,0.0,0.0,-0.9791959524154664,0.715416669845581
-0.0263498313724994,0.820356547832489,-0.058278851211071,-0.6975967288017273,-0.3037298023700714,0.3064609169960022,0.0,0.0,-0.9788513779640198,0.3792505264282226
-0.0267779342830181,0.8042117953300476,-0.0577221028506755,-0.7145039439201355,-0.2883296012878418,0.3080032467842102,0.0,0.0,-0.978069305419922,0.9238570928573608
-0.0271247867494821,0.7876675128936768,-0.0478735417127609,-0.7327538728713989,-0.2747749984264374,0.2710916697978973,0.0,0.0,-0.9652008414268494,0.64046311378479
-0.0274113658815622,0.7707142233848572,-0.040543608367443,-0.7512921094894409,-0.2626060545444488,0.2433789521455764,0.0,0.0,-0.9560299515724182,0.8425425291061401
-0.027622889727354,0.7533647418022156,-0.0314454324543476,-0.7692869901657104,-0.2521038055419922,0.2100456058979034,0.0,0.0,-0.931586503982544,0.7222450971603394
-0.0277824401855468,0.7356149554252625,-0.0251754038035869,-0.7873262763023376,-0.2427206039428711,0.1876637190580368,0.0,0.0,-0.8674899935722351,0.2964435815811157
-0.0279362685978412,0.717485785484314,-0.0247407462447881,-0.8042213320732117,-0.2332133650779724,0.1901447474956512,0.0,0.0,-0.7452513575553894,0.3361598253250122
-0.0280844680964946,0.6989776492118835,-0.0243321023881435,-0.8211165070533752,-0.2235738784074783,0.1927897185087204,0.0,0.0,-0.6791267395019531,0.2056691646575927
-0.0282271392643451,0.680090069770813,-0.0239494629204273,-0.8380118608474731,-0.2137943506240844,0.1955909579992294,0.0,0.0,-0.0089558362960815,0.0993645191192627
-0.0283647533506155,0.6608235239982605,-0.0235927663743495,-0.8549074530601501,-0.2038673013448715,0.1985407471656799,0.0,0.0,-0.0237601399421691,-0.2757093906402588
-0.0284972190856933,0.6411775946617126,-0.0232619009912014,-0.871803343296051,-0.1937857270240783,0.2016314715147018,0.0,0.0,0.056483507156372,0.2714840173721313
-0.028542136773467,0.6214460730552673,-0.0148858446627855,-0.8756332397460938,-0.1833418160676956,0.2088783085346222,0.0,0.0,0.8821485042572021,0.1582231521606445
-0.0285472869873046,0.6019156575202942,-0.0109287230297923,-0.8667661547660828,-0.1728968769311905,0.2088987827301025,0.0,0.0,0.2605957984924316,0.123659610748291
-0.0284501072019338,0.5829022526741028,-0.0008596942061558,-0.843847393989563,-0.1623079776763916,0.2117780894041061,0.0,0.0,-0.5531101226806641,0.47386634349823
-0.0283486358821392,0.5635098218917847,-0.0006298685912042,-0.8607446551322937,-0.1515399664640426,0.2153603136539459,0.0,0.0,-0.1642801165580749,0.4013897180557251
-0.0282431598752737,0.5437386631965637,-0.0004244579467922,-0.8776423335075378,-0.1405875533819198,0.2190482914447784,0.0,0.0,0.9367315769195556,0.3724478483200073
-0.0282295234501361,0.524196982383728,-0.0091150933876633,-0.8675599694252014,-0.1301473081111908,0.2088048160076141,0.0,0.0,0.8802626132965088,0.0646425485610961
-0.0280499458312988,0.5056056976318359,0.0070607783272862,-0.8253667950630188,-0.1193006262183189,0.2169334143400192,0.0,0.0,0.653998851776123,0.6611285209655762
-0.0278557781130075,0.4875037372112274,0.009876737371087,-0.8037961721420288,-0.1098223701119422,0.189564973115921,0.0,0.0,0.0090203285217285,0.5151358842849731
-0.0276093482971191,0.4696413576602936,0.0159944761544466,-0.7932716608047485,-0.1012297123670578,0.1718531101942062,0.0,0.0,0.8619551658630371,0.1089354753494262
-0.0272934921085834,0.4525777101516723,0.022774638608098,-0.7578105926513672,-0.0924930050969123,0.1747338771820068,0.0,0.0,0.3982806205749511,0.3653949499130249
-0.0268558505922555,0.4358600378036499,0.0343990735709667,-0.742452085018158,-0.0832050144672393,0.18575981259346,0.0,0.0,0.3742401599884033,0.2033110857009887
-0.0263720508664846,0.4191865026950836,0.0386893153190612,-0.7405361533164978,-0.0736126005649566,0.1918485760688781,0.0,0.0,0.6928831338882446,0.4496172666549682
-0.025760555639863,0.4027407169342041,0.0507911965250968,-0.7304466366767883,-0.0633641928434372,0.2049682885408401,0.0,0.0,0.7826722860336304,0.3050490617752075
-0.0249491687864065,0.3868234753608703,0.069807693362236,-0.7069881558418274,-0.0521623529493808,0.2240367233753204,0.0,0.0,0.7199015617370605,0.4423906803131103
-0.0239691734313964,0.3711316287517547,0.0857567191123962,-0.6970348358154297,-0.0400675237178802,0.2418966293334961,0.0,0.0,0.8560221195220947,0.3074772357940674
-0.0229596141725778,0.3563268184661865,0.0885104909539222,-0.6577005982398987,-0.0277779418975114,0.2457916289567947,0.0,0.0,0.4545680284500122,0.5613605976104736
-0.0218555442988872,0.3421464562416076,0.098790243268013,-0.6300649642944336,-0.0163094401359558,0.229369968175888,0.0,0.0,0.2914305925369262,0.5455155372619629
-0.0205917358398437,0.3283679783344269,0.1154042705893516,-0.612289547920227,-0.0054713203571736,0.2167627066373825,0.0,0.0,-0.5099804997444153,-0.0231366157531738
-0.0193262100219726,0.3142110705375671,0.1153359413146972,-0.6291897296905518,0.0055972104892134,0.2213706523180008,0.0,0.0,0.4118331670761108,0.5647997856140137
-0.0180657394230365,0.3003266751766205,0.1158521324396133,-0.6171483397483826,0.0156650021672248,0.2013557851314544,0.0,0.0,0.725304365158081,0.4408668279647827
-0.0167295448482036,0.2874171733856201,0.122773565351963,-0.573900580406189,0.0263752378523349,0.2142047584056854,0.0,0.0,0.5786492824554443,0.091700792312622
-0.0154285430908203,0.2749438881874084,0.1191138252615928,-0.5545963048934937,0.0372174158692359,0.2168435603380203,0.0,0.0,0.4090641736984253,0.5073589086532593
-0.0142260547727346,0.2631095647811889,0.110351338982582,-0.526243269443512,0.0470035374164581,0.1957223564386367,0.0,0.0,-0.1207709908485412,0.7950241565704346
-0.0129506113007664,0.2509055733680725,0.1192412599921226,-0.5426815152168274,0.0552156567573547,0.1642423570156097,0.0,0.0,0.2881048917770386,0.3587419986724853
-0.011747932061553,0.2391953319311142,0.1119112521409988,-0.5207871794700623,0.0634729042649269,0.1651449501514434,0.0,0.0,0.2869125604629516,0.6076259613037109
-0.0106043815612792,0.2279813438653946,0.1071219071745872,-0.4987245500087738,0.0706265941262245,0.1430739462375641,0.0,0.0,0.082206130027771,0.6800838708877563
-0.0094475746154785,0.2168776392936706,0.1095973402261734,-0.4937977194786072,0.0766468569636344,0.1204051151871681,0.0,0.0,0.068172812461853,0.3460233211517334
-0.0083948131650686,0.2059674859046936,0.0993049144744873,-0.4852136671543121,0.0825584083795547,0.1182306855916976,0.0,0.0,0.6765825748443604,-0.4258486032485962
-0.007537174038589,0.1954536586999893,0.0802669823169708,-0.4675959050655365,0.0880041494965553,0.1089150309562683,0.0,0.0,0.6848766803741455,0.0452750921249389
-0.0066353799775242,0.1856697350740432,0.0839314311742782,-0.4352190196514129,0.0941902473568916,0.1237219348549842,0.0,0.0,0.650963544845581,-0.1613255143165588
-0.0057065011933445,0.1760659962892532,0.0861281603574752,-0.4272761046886444,0.10090072453022,0.1342097222805023,0.0,0.0,0.7649273872375488,-0.4280706644058227
-0.0047046663239598,0.1673229336738586,0.0924623683094978,-0.3891228437423706,0.1085687279701232,0.1533597260713577,0.0,0.0,0.5928295850753784,-0.2519531846046448
-0.0038048743735998,0.1593129932880401,0.0821166932582855,-0.3565878272056579,0.1163753271102905,0.156132310628891,0.0,0.0,0.5527247190475464,0.5113850831985474
-0.002815055893734,0.15215864777565,0.0915353670716285,-0.3185706436634063,0.1237776800990104,0.1480471044778823,0.0,0.0,0.0996999740600586,-0.7241299748420715
-0.0018712043529376,0.1451999992132187,0.0852002874016761,-0.3100601434707641,0.1329174935817718,0.1827963292598724,0.0,0.0,-0.148231565952301,0.500744104385376
-0.0008881568792276,0.137875497341156,0.0898884460330009,-0.3263050615787506,0.1413059830665588,0.1677696406841278,0.0,0.0,0.1850883960723877,-0.3930519819259643
5.950927879894152e-05,0.1310204863548278,0.0859090015292167,-0.3055278360843658,0.1501346230506897,0.1765730679035186,0.0,0.0,-0.0877550244331359,0.0096840858459472
0.0010080337524414,0.1237870305776596,0.0857859328389167,-0.3224277198314667,0.1592014282941818,0.1813361048698425,0.0,0.0,0.1351749897003173,-0.2234823703765869
0.0018075943225994,0.116784319281578,0.071029707789421,-0.312210202217102,0.168116807937622,0.1783076226711273,0.0,0.0,0.2669256925582886,0.2836180925369262
0.0024452209472656,0.1099621355533599,0.0550729930400848,-0.3042119145393371,0.1768132001161575,0.1739282011985778,0.0,0.0,0.0734587907791137,0.5643825531005859
0.0030482292640954,0.103309616446495,0.0525522530078887,-0.2966110110282898,0.1845891922712326,0.1555204391479492,0.0,0.0,0.4499932527542114,-0.0770508050918579
0.0035891532897949,0.096975028514862,0.0460177958011627,-0.282562255859375,0.1927046179771423,0.1623081117868423,0.0,0.0,0.0597045421600341,0.5111274719238281
0.004218578338623,0.0906350687146186,0.0554964914917945,-0.282765120267868,0.2001943886280059,0.1497955024242401,0.0,0.0,0.2734712362289428,0.851740837097168
0.0048945425078272,0.0847404301166534,0.0615699104964733,-0.2628106474876404,0.2062715888023376,0.1215440854430198,0.0,0.0,0.4589458703994751,0.6700402498245239
0.0055012702941894,0.0795426666736602,0.0557142682373523,-0.2317121624946594,0.2112727016210556,0.1000223383307457,0.0,0.0,-0.1931878924369812,-0.0301353335380554
0.006110000424087,0.0739658176898956,0.0557003989815712,-0.2486086189746856,0.2165016680955886,0.104579247534275,0.0,0.0,0.245574951171875,0.1512749195098877
