x_pos,y_pos,x_vel,y_vel,angle,ang_vel,leg_1,leg_2,main_booster,lat_booster
-0.0014951706398278,1.4034206867218018,-0.1507373303174972,-0.3333098292350769,0.001088319462724,0.021418023854494,0.0,0.0,-0.3613214492797851,0.7724201679229736
-0.0028959275223314,1.3957369327545166,-0.1387952417135238,-0.3415025770664215,-0.000173392065335,-0.0252361986786127,0.0,0.0,0.3002984523773193,-0.1795827746391296
-0.0041625974699854,1.3883256912231443,-0.125230461359024,-0.3293889760971069,-0.0015913081588223,-0.0283609386533498,0.0,0.0,-0.3733265995979309,-0.1093325018882751
-0.0054003717377781,1.3807103633880615,-0.121666170656681,-0.3384559452533722,-0.0036707571707665,-0.0415928922593593,0.0,0.0,-0.3393574953079223,-0.0920092463493347
-0.0066089630126953,1.3728916645050049,-0.1180981174111366,-0.3475142419338226,-0.006410258822143,-0.0547951869666576,0.0,0.0,-0.1093512773513794,-0.0820395350456237
-0.0077885626815259,1.3648691177368164,-0.1145310401916503,-0.3565735816955566,-0.0098093105480074,-0.0679870024323463,0.0,0.0,-0.3045130968093872,-0.6689692139625549
-0.0089939115568995,1.3566439151763916,-0.1178208589553833,-0.3655893504619598,-0.0124932639300823,-0.0536836087703704,0.0,0.0,-0.5375432372093201,0.085594892501831
-0.0101703647524118,1.3482149839401243,-0.1142738237977027,-0.3746498227119446,-0.0158357396721839,-0.0668558627367019,0.0,0.0,-0.1470385789871215,-0.4727804660797119
-0.0113182067871093,1.3395826816558838,-0.1107413917779922,-0.3837105929851532,-0.019834803417325,-0.0799882933497428,0.0,0.0,0.2032859325408935,0.1711833477020263
-0.0124276159331202,1.33154034614563,-0.1062329784035682,-0.3575087189674377,-0.0244921948760747,-0.0931561961770057,0.0,0.0,-0.6719189882278442,0.4305301904678345
-0.0135087966918945,1.3232945203781128,-0.1027444973587989,-0.3665774166584015,-0.0298037491738796,-0.1062408834695816,0.0,0.0,-0.4019464254379272,-0.7889087796211243
-0.0146167753264307,1.3148465156555176,-0.1061714440584182,-0.3755728006362915,-0.0343875102698802,-0.0916835516691207,0.0,0.0,-0.5634702444076538,0.0098280906677246
-0.0156971924006938,1.3061950206756592,-0.1027509570121765,-0.3846356570720672,-0.0396229438483715,-0.1047182083129882,0.0,0.0,-0.6454359889030457,0.0614364147186279
-0.0167503356933593,1.2973406314849854,-0.0993696302175521,-0.3936991989612579,-0.0455072112381458,-0.1176962852478027,0.0,0.0,-0.7211796045303345,-0.5833099484443665
-0.0178116802126169,1.288291573524475,-0.1004326120018959,-0.4023619294166565,-0.0511506609618663,-0.1128790974617004,0.0,0.0,-0.7947903871536255,-0.0452610254287719
-0.0188467018306255,1.2790396213531494,-0.0971491113305091,-0.4114268124103546,-0.0574391447007656,-0.1257813870906829,0.0,0.0,-0.9746492505073548,-0.7375149726867676
-0.0199004169553518,1.2695972919464111,-0.0995130091905593,-0.4198961853981018,-0.0632376968860626,-0.1159818544983863,0.0,0.0,-0.7691217660903931,-0.0607271790504455
-0.0209289547055959,1.2599520683288574,-0.0963496193289756,-0.4289622008800506,-0.0696759894490242,-0.1287774741649627,0.0,0.0,-0.9265509843826294,-0.561897337436676
-0.0219697002321481,1.2501133680343628,-0.0978874415159225,-0.4375776052474975,-0.075811743736267,-0.1227261647582054,0.0,0.0,-0.7027732133865356,-0.4510756134986877
-0.0229865070432424,1.2400720119476318,-0.0948663502931594,-0.4466447532176971,-0.0825805068016052,-0.1353873163461685,0.0,0.0,-0.820294201374054,-0.7166685461997986
-0.024024486541748,0.0,-0.0974769741296768,-0.4551731646060943,-0.08885208517313,-0.1254429072141647,0.0,0.0,-0.7336629629135132,-0.9033992290496826
-0.0251102447509765,1.219407081604004,-0.10340316593647,-0.4639483392238617,-0.0939867198467254,-0.1027020215988159,0.0,0.0,-0.5044307112693787,-0.6696118116378784
-0.0262160301208496,1.2087774276733398,-0.1058385595679283,-0.4727306962013244,-0.0986959636211395,-0.0941934436559677,0.0,0.0,-0.3631812334060669,-0.3831242322921753
-0.0273014064878225,1.197945237159729,-0.1031791344285011,-0.4817982316017151,-0.1040205210447311,-0.1065002083778381,0.0,0.0,-0.4319393634796142,-0.6311495304107666
-0.0284284595400095,1.1869215965270996,-0.1083116680383682,-0.4902535080909729,-0.1083985343575477,-0.0875679850578308,0.0,0.0,-0.0768434405326843,-0.4997940063476562
-0.0295388214290142,1.1756738424301147,-0.1060237288475036,-0.5002694129943848,-0.1133809983730316,-0.0996489748358726,0.0,0.0,0.7226653099060059,-0.7962775230407715
-0.0306042674928903,1.1653671264648438,-0.1025315523147583,-0.4583781361579895,-0.1173619553446769,-0.0796191915869712,0.0,0.0,-0.8475884795188904,0.2554882764816284
-0.0316536910831928,1.154858112335205,-0.1003440469503402,-0.4674429297447204,-0.1219333037734031,-0.0914267748594284,0.0,0.0,-0.5503746271133423,-0.0744526386260986
-0.0326883308589458,1.14414644241333,-0.0982878431677818,-0.476508229970932,-0.1270870715379715,-0.1030754670500755,0.0,0.0,-0.2272753119468689,-0.3525753021240234
-0.0337095260620117,1.133232355117798,-0.0963694304227829,-0.4855741858482361,-0.1328146308660507,-0.1145512908697128,0.0,0.0,0.0083413124084472,-0.2247989177703857
-0.0346388816833496,1.1228818893432615,-0.0866721346974372,-0.4605922698974609,-0.1390537321567535,-0.1247819066047668,0.0,0.0,-0.7423498630523682,-0.8572085499763489
-0.0356337539851665,1.112339973449707,-0.0946140363812446,-0.4689915776252746,-0.1439149975776672,-0.0972248911857605,0.0,0.0,-0.7820879817008972,-0.3378123044967651
-0.0366193763911724,1.1015956401824951,-0.0931472033262252,-0.4780577421188354,-0.1493193954229354,-0.108087882399559,0.0,0.0,-0.5939043164253235,-0.2758948802947998
-0.0375972762703895,1.0906490087509155,-0.0918436497449874,-0.4871244430541992,-0.1552549749612808,-0.1187114864587783,0.0,0.0,-0.902496576309204,-0.5878470540046692
-0.0386135093867778,1.0795117616653442,-0.0963087528944015,-0.4955523610115051,-0.1605635434389114,-0.1061716824769973,0.0,0.0,-0.9412550330162048,-0.8263452053070068
-0.0396869666874408,1.0681931972503662,-0.1031403392553329,-0.5034990906715393,-0.1647685021162033,-0.0840993076562881,0.0,0.0,-0.9011753797531128,-0.6416255831718445
-0.0408100113272666,1.0566821098327637,-0.1089576259255409,-0.5119818449020386,-0.1681235879659652,-0.067101776599884,0.0,0.0,-0.9799551963806152,-0.8921121954917908
-0.0419962890446186,1.0449916124343872,-0.1164724826812744,-0.5198202133178711,-0.1702733635902404,-0.0429955385625362,0.0,0.0,-0.3112074136734009,-0.5973208546638489
-0.0432316772639751,1.0331177711486816,-0.1222265809774398,-0.527880072593689,-0.1715995967388153,-0.0265244040638208,0.0,0.0,-0.0963056087493896,-0.6315754652023315
-0.0445163734257221,1.0210541486740112,-0.1279048472642898,-0.5362284183502197,-0.1721558570861816,-0.0111254481598734,0.0,0.0,-0.7847519516944885,-0.1677090525627136
-0.0458050742745399,1.0087876319885254,-0.1279037743806839,-0.5452920794487,-0.1731288284063339,-0.0194592848420143,0.0,0.0,-0.7356151342391968,-0.8664772510528564
-0.0471536628901958,0.996330499649048,-0.1348701864480972,-0.5536556243896484,-0.1731177568435669,0.000221386711928,0.0,0.0,-0.9889649152755736,-0.2003923058509826
-0.0485101714730262,0.983670175075531,-0.1352848708629608,-0.5627186894416809,-0.1734793484210968,-0.0072319917380809,0.0,0.0,-0.8374382853507996,0.165865421295166
-0.0498763099312782,0.9708070158958436,-0.1359127908945083,-0.5717814564704895,-0.1741895675659179,-0.0142045076936483,0.0,0.0,-0.9854134917259216,-0.597994863986969
-0.0513047203421592,0.9577470421791076,-0.1430820971727371,-0.5804218053817749,-0.1739479750394821,0.0048317667096853,0.0,0.0,-0.9719774127006532,-0.2228677868843078
-0.0527467727661132,0.944483757019043,-0.1441448926925659,-0.5894837975502014,-0.1740029603242874,-0.0010996328201144,0.0,0.0,-0.9875531792640686,0.4122767448425293
-0.054204273968935,0.9310173392295836,-0.1454282104969024,-0.5985453128814697,-0.1743265688419342,-0.0064721452072262,0.0,0.0,-0.9829304218292236,-0.9308640956878662
-0.0557639114558696,0.917380154132843,-0.1576221883296966,-0.6059004068374634,-0.1726695448160171,0.0331404730677604,0.0,0.0,-0.934869647026062,-0.2231540083885193
-0.0573430061340332,0.9035398364067078,-0.1593500971794128,-0.6149613261222839,-0.1712217628955841,0.0289560407400131,0.0,0.0,-0.9479326009750366,-0.2807106971740722
-0.0589433684945106,0.8894960284233093,-0.1613008081912994,-0.6240216493606567,-0.1699519008398056,0.0253968648612499,0.0,0.0,-0.7817044258117676,-0.5573111176490784
-0.0605999007821083,0.8752573132514954,-0.1676311194896698,-0.6326126456260681,-0.1679773777723312,0.0394907221198082,0.0,0.0,-0.6498162150382996,0.009076714515686
-0.0622815117239952,0.8608149886131287,-0.1700256615877151,-0.6416721940040588,-0.1661157757043838,0.0372318103909492,0.0,0.0,-0.9196943640708924,0.2572011947631836
-0.0639901161193847,0.8461691737174988,-0.1726399660110473,-0.6507313251495361,-0.1643336862325668,0.0356417745351791,0.0,0.0,-0.8609341382980347,-0.4899707436561584
-0.0657275170087814,0.8313195705413818,-0.1754718720912933,-0.6597899198532104,-0.1625972539186477,0.0347287543118,0.0,0.0,-0.956887423992157,-0.531689465045929
-0.0675269141793251,0.8162720203399658,-0.1824613660573959,-0.6685069799423218,-0.1600724011659622,0.0504971556365489,0.0,0.0,-0.928746461868286,-0.2126045227050781
-0.069358542561531,0.801020622253418,-0.1857198476791381,-0.6775649189949036,-0.1575250178575515,0.050947617739439,0.0,0.0,-0.8341941237449646,-0.5483797192573547
-0.0712599754333496,0.7855791449546814,-0.1936724334955215,-0.6859202980995178,-0.1539921462535858,0.0706572383642196,0.0,0.0,-0.575167179107666,-0.3507503271102905
-0.0731970816850662,0.7699336409568787,-0.1973425894975662,-0.6949779391288757,-0.150369182229042,0.0724595636129379,0.0,0.0,-0.6977337002754211,-0.0346336960792541
-0.0751717537641525,0.7540845274925232,-0.2012117803096771,-0.7040351629257202,-0.1466229408979416,0.0749245733022689,0.0,0.0,-0.5108321309089661,0.0646601915359497
-0.0771854370832443,0.7380313277244568,-0.2052750140428543,-0.7130920886993408,-0.1427209973335266,0.0780389606952667,0.0,0.0,-0.7799882292747498,0.6093902587890625
-0.0791884437203407,0.721757709980011,-0.2030771970748901,-0.7230042219161987,-0.1399562358856201,0.0552952699363231,0.0,0.0,-0.9135504364967346,0.7280924320220947
-0.0811857208609581,0.7052738070487976,-0.2015091627836227,-0.7324541211128235,-0.1381845027208328,0.0354345589876174,0.0,0.0,-0.3404701948165893,0.7086718082427979
-0.0831600204110145,0.688569962978363,-0.1977369040250778,-0.7423669099807739,-0.1378727108240127,0.0062357457354664,0.0,0.0,-0.3079450130462646,-0.0770419836044311
-0.085179328918457,0.6716617941856384,-0.2025197297334671,-0.7514215111732483,-0.1372846513986587,0.0117611065506935,0.0,0.0,-0.3078224658966064,0.2454911470413208
-0.0872450843453407,0.6545493006706238,-0.2074672877788543,-0.7604755759239197,-0.1363930255174636,0.0178321506828069,0.0,0.0,0.6558120250701904,0.7617260217666626
-0.0893534645438194,0.6381285786628723,-0.2102751284837722,-0.7298610806465149,-0.1369547992944717,-0.011235331185162,0.0,0.0,0.502493143081665,0.1868857145309448
-0.0913852676749229,0.6226560473442078,-0.2030613422393798,-0.6876842379570007,-0.137071892619133,-0.0023419780191034,0.0,0.0,-0.4682797789573669,0.2997543811798095
-0.0934673324227333,0.6069789528846741,-0.2084648311138153,-0.6967376470565796,-0.1368113160133361,0.0052117137238383,0.0,0.0,-0.7573209404945374,0.7635955810546875
-0.095537468791008,0.591093122959137,-0.20607790350914,-0.7061221599578857,-0.137741133570671,-0.0185959674417972,0.0,0.0,-0.009831964969635,0.5439484119415283
-0.0976243987679481,0.5749929547309875,-0.2072602212429046,-0.7156967520713806,-0.1391687840223312,-0.028553020209074,0.0,0.0,0.6271121501922607,0.40627121925354
-0.099761962890625,0.5596975684165955,-0.212345689535141,-0.679924726486206,-0.1405747532844543,-0.0281190332025289,0.0,0.0,-0.2307966947555542,0.6194968223571777
-0.1019030585885047,0.5441880226135254,-0.2118541300296783,-0.6895300149917603,-0.1428234875202179,-0.0449746437370777,0.0,0.0,-0.1908224821090698,-0.0618252754211425
-0.1040997505187988,0.5284737944602966,-0.2178903073072433,-0.6985824704170227,-0.1445969939231872,-0.0354700572788715,0.0,0.0,0.4855409860610962,0.7968333959579468
-0.1061427146196365,0.5132960081100464,-0.2015329599380493,-0.6748377680778503,-0.1473614573478698,-0.0552891306579113,0.0,0.0,0.2958732843399048,0.7731385231018066
-0.1081678420305252,0.4983558654785156,-0.1986571103334427,-0.664389431476593,-0.1512052118778228,-0.0768752992153167,0.0,0.0,-0.3784145712852478,0.1759930849075317
-0.1102511435747146,0.4832111895084381,-0.2050008326768875,-0.6734417080879211,-0.1545294821262359,-0.0664854347705841,0.0,0.0,-0.0731779336929321,0.2494329214096069
-0.1123934760689735,0.4678616523742676,-0.2114358842372894,-0.6824933886528015,-0.1573215723037719,-0.0558420345187187,0.0,0.0,0.5193140506744385,0.8029019832611084
-0.1144262328743934,0.4533822536468506,-0.1994094550609588,-0.6439430117607117,-0.161185935139656,-0.0772873908281326,0.0,0.0,-0.5818743109703064,0.6825122833251953
-0.1164584159851074,0.4386900961399078,-0.1983596086502075,-0.6535171270370483,-0.1660397499799728,-0.0970764011144638,0.0,0.0,-0.0522341728210449,0.936847448348999
-0.1184911727905273,0.4237876832485199,-0.1974688470363617,-0.6629902720451355,-0.1718500703573227,-0.1162063255906105,0.0,0.0,-0.3582150340080261,-0.1294454336166381
-0.1205855384469032,0.4086805582046509,-0.2042196691036224,-0.6720424294471741,-0.1770863682031631,-0.1047259718179702,0.0,0.0,-0.2613268494606018,0.9064894914627076
-0.1226660758256912,0.3933564722537994,-0.2014871835708618,-0.681867778301239,-0.1836742758750915,-0.1317579448223114,0.0,0.0,-0.1739534735679626,0.3306655883789062
-0.1248094588518142,0.3778277039527893,-0.208368569612503,-0.6909200549125671,-0.1896718293428421,-0.1199506297707557,0.0,0.0,0.354560375213623,0.755136251449585
-0.1269019097089767,0.3629132509231567,-0.2023016959428787,-0.6637669205665588,-0.1966553330421447,-0.139670193195343,0.0,0.0,0.4097511768341064,0.3496656417846679
-0.1289516389369964,0.3486748039722442,-0.1985910683870315,-0.6336803436279297,-0.2030818164348602,-0.1285295188426971,0.0,0.0,-0.5728481411933899,0.9408776760101318
-0.1309823989868164,0.3342060446739197,-0.1951574236154556,-0.6441621780395508,-0.2110628634691238,-0.1596213430166244,0.0,0.0,0.5999985933303833,0.9151852130889891
-0.1329137831926345,0.3199793100357055,-0.1840547770261764,-0.6336219906806946,-0.2202420532703399,-0.183583989739418,0.0,0.0,0.7657186985015869,-0.099061369895935
-0.1347194612026214,0.3061453402042389,-0.1725717782974243,-0.6160562634468079,-0.2283416241407394,-0.1619912236928939,0.0,0.0,0.5840437412261963,0.0711750984191894
-0.1363293677568435,0.2928585410118103,-0.1542623341083526,-0.5915833711624146,-0.2351629585027694,-0.1364269405603408,0.0,0.0,0.9006839990615845,-0.678410530090332
-0.1377843916416168,0.2799814939498901,-0.1411607414484024,-0.5730120539665222,-0.2395651638507843,-0.0880440473556518,0.0,0.0,0.9559983015060424,-0.3830312490463257
-0.1391010284423828,0.2681972980499267,-0.1279302984476089,-0.5243555307388306,-0.2433645129203796,-0.075986623764038,0.0,0.0,0.1070064306259155,-0.6678822636604309
-0.1403892487287521,0.256962776184082,-0.1270786821842193,-0.499603807926178,-0.2451470047235489,-0.0356497913599014,0.0,0.0,0.9800652265548706,0.5739314556121826
-0.1413522660732269,0.2466136068105697,-0.0944814532995224,-0.4602664709091186,-0.2469951808452606,-0.0369636416435241,0.0,0.0,0.8737380504608154,0.2794671058654785
-0.1421809196472168,0.2365551143884658,-0.0822045132517814,-0.4471559822559356,-0.2476704120635986,-0.0135047761723399,0.0,0.0,0.6143958568572998,0.0976440906524658
-0.1430048048496246,0.2270331978797912,-0.0821220949292182,-0.4232393801212311,-0.2479365319013595,-0.0053222747519612,0.0,0.0,0.926401138305664,-0.7164967656135559
-0.1435992270708084,0.2187581211328506,-0.0614994168281555,-0.3674367070198059,-0.2458456158638,0.0418181903660297,0.0,0.0,-0.42808997631073,-0.771974503993988
-0.1443228721618652,0.2103000730276107,-0.076647900044918,-0.3752007782459259,-0.2414840310811996,0.0872316658496856,0.0,0.0,0.4959198236465454,0.5604887008666992
-0.1450165808200836,0.2027182132005691,-0.0729165002703666,-0.336392343044281,-0.2378834187984466,0.0720122382044792,0.0,0.0,0.228575587272644,0.3824435472488403
-0.1455932557582855,0.1956643611192703,-0.0621468350291252,-0.3127858340740204,-0.2333278805017471,0.0911109000444412,0.0,0.0,-0.785103440284729,-0.2102160453796386
-0.1462380439043045,0.1884050220251083,-0.0696191117167472,-0.3218325078487396,-0.2281151413917541,0.1042547672986984,0.0,0.0,-0.3455395102500915,0.2218406200408935
-0.1469511091709137,0.1809403300285339,-0.0771055668592453,-0.3308798670768738,-0.2222436666488647,0.1174295768141746,0.0,0.0,-0.4172908067703247,-0.0196666121482849
-0.1477324515581131,0.1732703596353531,-0.0846044644713401,-0.3399281501770019,-0.215712085366249,0.1306319534778595,0.0,0.0,-0.6448710560798645,0.1458785533905029
-0.1485823690891266,0.1653953939676284,-0.0921140983700752,-0.3489774465560913,-0.208519160747528,0.1438585817813873,0.0,0.0,0.6146184206008911,0.6505720615386963
-0.149501234292984,0.1580987125635147,-0.0980263799428939,-0.3234415650367737,-0.2023265808820724,0.123851403594017,0.0,0.0,0.095617651939392,0.8070133924484253
-0.1502500474452972,0.1512580662965774,-0.0801184475421905,-0.3033212125301361,-0.1970495730638504,0.1055397167801857,0.0,0.0,0.6044987440109253,0.7331399917602539
-0.1508772820234298,0.1446968168020248,-0.0672786235809326,-0.2910112142562866,-0.1924600750207901,0.0917900055646896,0.0,0.0,0.5318727493286133,0.6681613922119141
-0.1512408256530761,0.1389195472002029,-0.0405491776764392,-0.2562299966812134,-0.1882448941469192,0.0843037143349647,0.0,0.0,-0.3379248380661011,0.431887149810791
-0.1516731232404709,0.1329370886087417,-0.0480858720839023,-0.2652786672115326,-0.1833645701408386,0.0976063832640647,0.0,0.0,0.4018236398696899,0.1291770935058593
-0.1519227027893066,0.1277858167886734,-0.0310545172542333,-0.228205531835556,-0.1772587150335312,0.1221171170473098,0.0,0.0,0.0355678796768188,0.1901483535766601
-0.1521299332380294,0.1229536160826683,-0.0276974085718393,-0.2139516621828079,-0.1702659428119659,0.1398554146289825,0.0,0.0,0.0973203182220459,0.3666251897811889
-0.1523185670375824,0.1187195852398872,-0.0264913085848093,-0.1873227506875991,-0.162629559636116,0.1527276933193206,0.0,0.0,0.0809441804885864,0.6150355339050293
-0.1523997336626052,0.1150265038013458,-0.0152507396414875,-0.163373976945877,-0.1554963141679763,0.1426647752523422,0.0,0.0,-0.0424780249595642,0.8619587421417236
-0.1524734497070312,0.1111065447330474,-0.0132305892184376,-0.1736180335283279,-0.149655669927597,0.1168129220604896,0.0,0.0,-0.1023780107498169,0.6337659358978271
-0.1525761634111404,0.1069740876555442,-0.0157765876501798,-0.1831211000680923,-0.1441594660282135,0.1099244505167007,0.0,0.0,0.0779778957366943,-0.0353622436523437
-0.1527818739414215,0.1031536906957626,-0.0263574607670307,-0.1692497432231903,-0.1383858621120453,0.1154721230268478,0.0,0.0,-0.1958426237106323,0.7940144538879395
-0.1529958695173263,0.0991155728697776,-0.0263264030218124,-0.1790218651294708,-0.133478432893753,0.0981483310461044,0.0,0.0,0.1335715055465698,0.8082966804504395
-0.1531457006931305,0.0953986048698425,-0.0189675185829401,-0.1648497432470321,-0.129510298371315,0.0793622732162475,0.0,0.0,-0.2892216444015503,0.96662700176239
-0.1532720625400543,0.091450035572052,-0.0149262221530079,-0.1752962619066238,-0.1272330284118652,0.0455454587936401,0.0,0.0,0.1108640432357788,0.968275785446167
-0.1532543152570724,0.0879554376006126,0.0007744212052784,-0.1552280485630035,-0.1262356787919998,0.0199469346553087,0.0,0.0,0.0870190858840942,0.5421555042266846
-0.1531763076782226,0.0850393399596214,0.0071950643323361,-0.1295519173145294,-0.1256269365549087,0.0121748242527246,0.0,0.0,0.0003917217254638,0.8905314207077026
