x_pos,y_pos,x_vel,y_vel,angle,ang_vel,leg_1,leg_2,main_booster,lat_booster
-0.0016186714638024,1.4030616283416748,-0.1636746823787689,-0.3492680490016937,0.0016223476268351,0.0319919697940349,0.0,0.0,0.0185819864273071,0.4308903217315674
-0.003303337143734,1.3950899839401243,-0.1700068116188049,-0.3542951941490173,0.003141390858218,0.0303843021392822,0.0,0.0,-0.5153825879096985,0.5786395072937012
-0.0050318716093897,1.386551022529602,-0.1727500855922699,-0.3795121014118194,0.0030432371422648,-0.0019633555784821,0.0,0.0,0.5231311321258545,0.912283182144165
-0.0069149970076978,1.3781368732452393,-0.1859994828701019,-0.3739621341228485,0.000748464721255,-0.0458996221423149,0.0,0.0,0.5524461269378662,0.7653496265411377
-0.0087071415036916,1.3700815439224243,-0.1753888428211212,-0.358018010854721,-0.0030270782299339,-0.0755179673433303,0.0,0.0,-0.7380028367042542,0.2687392234802246
-0.0106034278869628,1.36146342754364,-0.1855888366699218,-0.3830410838127136,-0.0070289359427988,-0.0800443291664123,0.0,0.0,0.015027642250061,0.7170195579528809
-0.0125626567751169,1.352814555168152,-0.1901983916759491,-0.3844296634197235,-0.0126916635781526,-0.1132648736238479,0.0,0.0,-0.678003191947937,0.7125034332275391
-0.014559268951416,1.3436042070388794,-0.1919143944978714,-0.4094361364841461,-0.0203432738780975,-0.1530463993549347,0.0,0.0,-0.2425729036331176,0.8331187963485718
-0.0165999419987201,1.333838939666748,-0.1944683045148849,-0.4341631829738617,-0.0298417266458272,-0.1899866163730621,0.0,0.0,-0.599271833896637,0.7217059135437012
-0.0186936371028423,1.3235143423080444,-0.198099136352539,-0.4591294229030609,-0.0409992523491382,-0.2231707572937011,0.0,0.0,-0.6862730979919434,0.6800485849380493
-0.0208373069763183,1.312625765800476,-0.2013041526079177,-0.4843455255031585,-0.0539296232163906,-0.2586310803890228,0.0,0.0,-0.1211875677108764,0.7837833166122437
-0.0230244640260934,1.3011698722839355,-0.20366270840168,-0.5097599029541016,-0.0688297823071479,-0.2980312407016754,0.0,0.0,0.0335838794708251,0.6040143966674805
-0.0251554492861032,1.289798378944397,-0.1967539936304092,-0.5062441825866699,-0.0850347056984901,-0.3241283297538757,0.0,0.0,-0.6292228698730469,0.2352527379989624
-0.0274007804691791,1.277867317199707,-0.2079683989286422,-0.5312894582748413,-0.1014731526374816,-0.3287989497184753,0.0,0.0,-0.1196324825286865,0.6667149066925049
-0.0296961776912212,1.2653748989105225,-0.2111373841762542,-0.5565736293792725,-0.1197792664170265,-0.3661558032035827,0.0,0.0,-0.4655782580375671,-0.7585592865943909
-0.0321570411324501,1.2523239850997925,-0.2287168055772781,-0.5815258026123047,-0.1370861530303955,-0.3461690545082092,0.0,0.0,-0.2757169008255005,-0.9178562760353088
-0.0347891822457313,1.238736271858215,-0.2470690459012985,-0.6054624915122986,-0.1532105207443237,-0.3225164115428924,0.0,0.0,-0.5054205060005188,0.5726585388183594
-0.0374844558537006,1.2245723009109497,-0.2517767548561096,-0.6314347386360168,-0.170985922217369,-0.3555401861667633,0.0,0.0,0.622306227684021,-0.686396062374115
-0.0401140227913856,1.2110083103179932,-0.2466239482164383,-0.6048012375831604,-0.1873917281627655,-0.3281461298465729,0.0,0.0,0.4084899425506592,-0.9504030346870422
-0.0429242141544818,1.1976386308670044,-0.2663190960884094,-0.5961328744888306,-0.2021941989660263,-0.2960761189460754,0.0,0.0,0.5649127960205078,-0.0424367189407348
-0.045592974871397,1.1847193241119385,-0.2525513768196106,-0.5762072801589966,-0.2166665494441986,-0.2894731163978576,0.0,0.0,-0.0908704996109008,-0.8339583873748779
-0.0484461784362793,1.171256422996521,-0.2724231779575348,-0.6002992987632751,-0.2297310084104538,-0.2613126933574676,0.0,0.0,-0.096609354019165,-0.6972700357437134
-0.0514628402888774,1.1572470664978027,-0.2896644175052643,-0.6245542764663696,-0.2419272363185882,-0.2439464777708053,0.0,0.0,0.6851792335510254,-0.4737902879714966
-0.0544557571411132,1.143115520477295,-0.2874377369880676,-0.6300699710845947,-0.2540246546268463,-0.2419701814651489,0.0,0.0,0.6204274892807007,-0.7624588012695312
-0.0576189048588275,1.129422307014465,-0.3054930567741394,-0.6104991436004639,-0.2650922536849975,-0.2213715761899948,0.0,0.0,0.2588071823120117,-0.3958792686462402
-0.0608753189444541,1.1159679889678955,-0.3141164183616638,-0.6000961661338806,-0.2769046723842621,-0.2362479418516159,0.0,0.0,-0.0165397524833679,-0.7205554246902466
-0.0643086433410644,1.1019809246063232,-0.3330346345901489,-0.6236400008201599,-0.2874925434589386,-0.2117571532726287,0.0,0.0,0.6905429363250732,-0.4861002564430237
-0.0677545517683029,1.0887048244476318,-0.3334995210170746,-0.5922737121582031,-0.2989303171634674,-0.2287553995847702,0.0,0.0,0.2788193225860595,-0.9043859839439392
-0.0713258758187294,1.0758177042007446,-0.347562164068222,-0.5747535824775696,-0.3088204264640808,-0.1978020966053009,0.0,0.0,-0.3419437408447265,-0.7601974010467529
-0.0750811547040939,1.0623953342437744,-0.3673083782196045,-0.598320722579956,-0.3173414170742035,-0.1704200059175491,0.0,0.0,0.1264786720275879,0.071600317955017
-0.0787688270211219,1.0492287874221802,-0.3603984117507934,-0.5870391130447388,-0.3260332942008972,-0.173837274312973,0.0,0.0,-0.4896923303604126,-0.2990569472312927
-0.0825811401009559,1.03550124168396,-0.372672826051712,-0.6120672225952148,-0.3349542617797851,-0.178419828414917,0.0,0.0,-0.0153617858886718,-0.2192633748054504
-0.0865181908011436,1.0212129354476929,-0.3849569261074066,-0.6370956301689148,-0.3441034853458404,-0.1829850971698761,0.0,0.0,-0.2307142615318298,-0.4929921627044678
-0.0905799865722656,1.006363868713379,-0.3972460329532623,-0.662124514579773,-0.3534800708293915,-0.1875318586826324,0.0,0.0,0.2248121500015258,-0.2074094414710998
-0.0945942848920822,0.9916022419929504,-0.39235919713974,-0.6583364605903625,-0.3630271852016449,-0.1909422278404235,0.0,0.0,0.8023103475570679,-0.4693280458450317
-0.0984216704964637,0.977426290512085,-0.3735742270946502,-0.6323931217193604,-0.3727076947689056,-0.1936105191707611,0.0,0.0,-0.6569353938102722,-0.2135876417160034
-0.102373406291008,0.9626897573471068,-0.3858491778373718,-0.6574231386184692,-0.3826121389865875,-0.1980889290571212,0.0,0.0,0.4663043022155761,0.2637746334075928
-0.1061658859252929,0.9483136534690856,-0.3698977828025818,-0.6414735317230225,-0.3925829231739044,-0.1994157284498214,0.0,0.0,-0.867797315120697,0.2036609649658203
-0.1100825294852256,0.9333771467208862,-0.3821383118629455,-0.6665041446685791,-0.4027748703956604,-0.2038383185863495,0.0,0.0,-0.404214084148407,0.162226915359497
-0.1141228675842285,0.9178802371025084,-0.394353836774826,-0.691535234451294,-0.4131863713264465,-0.2082298099994659,0.0,0.0,0.9307003021240234,-0.0181393027305603
-0.1180355101823806,0.9031482934951782,-0.3808931708335876,-0.6578283309936523,-0.424392968416214,-0.2241321355104446,0.0,0.0,0.7935786247253418,0.698631763458252
-0.1216552704572677,0.8885082602500916,-0.3504188060760498,-0.6542021036148071,-0.436947226524353,-0.2510850727558136,0.0,0.0,0.4675034284591675,-0.8462401032447815
-0.1252545416355133,0.8736588358879089,-0.3499415516853332,-0.6631188988685608,-0.4478514790534973,-0.2180848866701126,0.0,0.0,0.84178626537323,-0.7454047203063965
-0.1286653578281402,0.8590042591094971,-0.3325935006141662,-0.654059648513794,-0.4571590423583984,-0.1861509531736374,0.0,0.0,0.9770596027374268,-0.7121419310569763
-0.1321417838335037,0.8443275094032288,-0.3402295112609863,-0.6547576189041138,-0.4653243124485016,-0.1633056551218032,0.0,0.0,0.8594866991043091,-0.0894982814788818
-0.135524183511734,0.8295592069625854,-0.3308896422386169,-0.6588541865348816,-0.4734583795070648,-0.1626813262701034,0.0,0.0,0.9882395267486572,-0.2392888665199279
-0.1387162208557129,0.814897894859314,-0.3120117485523224,-0.6541008353233337,-0.4814583957195282,-0.1600005328655243,0.0,0.0,0.9130352735519408,-0.3222131729125976
-0.1416961699724197,0.801049530506134,-0.2900943458080292,-0.6182544827461243,-0.4902633428573608,-0.1760994791984558,0.0,0.0,0.6893500089645386,-0.93839830160141
-0.1446110755205154,0.7878732085227966,-0.2850566506385803,-0.5879281163215637,-0.4974729716777801,-0.144192487001419,0.0,0.0,0.9296972751617432,-0.5115983486175537
-0.1474187821149826,0.7749647498130798,-0.2750740647315979,-0.5757839679718018,-0.5038801431655884,-0.12814362347126,0.0,0.0,0.9189493656158448,-0.8861134648323059
-0.1499233245849609,0.7622835040092468,-0.2465517818927765,-0.5650491714477539,-0.5082864761352539,-0.0881264060735702,0.0,0.0,0.9807289838790894,-0.9351267218589784
-0.15224190056324,0.7503124475479126,-0.2294270992279052,-0.5329544544219971,-0.5110288262367249,-0.0548480749130249,0.0,0.0,0.564598560333252,-0.9835091829299928
-0.1544354408979416,0.7382959723472595,-0.218685507774353,-0.534317135810852,-0.5117868781089783,-0.0151605727151036,0.0,0.0,0.8217885494232178,-0.8464134335517883
-0.1563630998134613,0.7269205451011658,-0.1935287714004516,-0.5052878260612488,-0.5109206438064575,0.0173247903585433,0.0,0.0,0.694838285446167,-0.9206899404525756
-0.1580729484558105,0.7155624628067017,-0.1735162436962127,-0.5038629174232483,-0.5080685615539551,0.0570417717099189,0.0,0.0,0.688718318939209,-0.9781529307365416
-0.1598230302333831,0.704406201839447,-0.1790889352560043,-0.4943287968635559,-0.5034570097923279,0.092231385409832,0.0,0.0,0.8963971138000488,-0.9263879656791688
-0.1611963212490081,0.6938637495040894,-0.1432013213634491,-0.4664091169834137,-0.4968558549880981,0.1320229023694992,0.0,0.0,0.9047520160675048,-0.8197754621505737
-0.1622082740068435,0.6837100982666016,-0.10877525806427,-0.4485578238964081,-0.4883503019809723,0.1701111793518066,0.0,0.0,0.6303849220275879,-0.964556872844696
-0.1629335433244705,0.6740750670433044,-0.0819253996014595,-0.4249316155910492,-0.477875292301178,0.2094998657703399,0.0,0.0,0.4306509494781494,-0.9614100456237792
-0.1635794639587402,0.6648971438407898,-0.0756899565458297,-0.4041206240653991,-0.4655788540840149,0.2459284961223602,0.0,0.0,0.6345422267913818,-0.9218793511390686
-0.1641773283481598,0.6556538939476013,-0.072620041668415,-0.4065820872783661,-0.4514485001564026,0.282607227563858,0.0,0.0,0.4129360914230346,-0.6261098980903625
-0.1647389382123947,0.6467574238777161,-0.0699761733412742,-0.3910144865512848,-0.4363356232643127,0.3022568523883819,0.0,0.0,0.2598428726196289,-0.6349561810493469
-0.1651800125837326,0.6378018260002136,-0.059254802763462,-0.3934053182601928,-0.419884592294693,0.3290203809738159,0.0,0.0,-0.3196132779121399,0.1031714677810669
-0.1657135039567947,0.6282874941825867,-0.0684857591986656,-0.4184466004371643,-0.4035752713680267,0.326186329126358,0.0,0.0,0.2609269618988037,0.409381628036499
-0.1662111282348632,0.6186327338218689,-0.0648988336324691,-0.4248794615268707,-0.3873754143714905,0.3239974081516266,0.0,0.0,0.0820028781890869,0.2887823581695556
-0.1667243987321853,0.6090023517608643,-0.066084936261177,-0.4240815341472626,-0.3716830015182495,0.3138484060764313,0.0,0.0,0.3651378154754638,0.5391824245452881
-0.1670056283473968,0.599773108959198,-0.0418406464159488,-0.4066897928714752,-0.3571779131889343,0.2901018261909485,0.0,0.0,0.2148138284683227,0.4262632131576538
-0.1672355681657791,0.5902548432350159,-0.0369328334927558,-0.4196358919143677,-0.3425170183181762,0.2932175695896148,0.0,0.0,0.2517436742782593,0.0494327545166015
-0.1673057526350021,0.581080436706543,-0.0210152994841337,-0.4044946730136871,-0.3278804421424866,0.292730838060379,0.0,0.0,-0.1636070013046264,0.6207743883132935
-0.1674106568098068,0.5713236331939697,-0.0234167724847793,-0.4307619333267212,-0.3144318163394928,0.2689728140830993,0.0,0.0,-0.2374500632286071,0.3979026079177856
-0.1675848066806793,0.5610066056251526,-0.0302905179560184,-0.4557949900627136,-0.3010937869548797,0.2667613327503204,0.0,0.0,0.1139086484909057,0.2990727424621582
-0.1676796972751617,0.5507214665412903,-0.0224140714854002,-0.4545036256313324,-0.2877663373947143,0.2665489912033081,0.0,0.0,0.2158716917037964,0.7741096019744873
-0.1677021086215973,0.5407978892326355,-0.013496033847332,-0.438870221376419,-0.2762074768543243,0.2311775386333465,0.0,0.0,0.083032488822937,0.4124983549118042
-0.1676311492919922,0.5308401584625244,-0.0043132374994456,-0.4404535889625549,-0.2645246982574463,0.233655646443367,0.0,0.0,0.5203452110290527,0.6880497932434082
-0.1674990653991699,0.520829439163208,0.0032981908880174,-0.4431642591953277,-0.2544006705284118,0.2024803906679153,0.0,0.0,-0.5061169266700745,0.5469322204589844
-0.1673681288957595,0.5102336406707764,0.0044744811020791,-0.4694538116455078,-0.245604395866394,0.1759254187345504,0.0,0.0,0.0122686624526977,0.6277937889099121
-0.1672019958496093,0.499362587928772,0.0093127358704805,-0.4819580316543579,-0.2381931543350219,0.1482249498367309,0.0,0.0,-0.353057861328125,-0.0530281662940979
-0.167071908712387,0.4879296720027923,0.0057906117290258,-0.5069800615310669,-0.2308675646781921,0.146511897444725,0.0,0.0,0.5204077959060669,0.0625535249710083
-0.1667286902666092,0.4770058393478393,0.0268381498754024,-0.4843524396419525,-0.2232840806245803,0.1516695767641067,0.0,0.0,-0.7356122136116028,0.199973464012146
-0.1664101630449295,0.4655200541019439,0.0244407225400209,-0.5093744993209839,-0.2157807648181915,0.1500664055347442,0.0,0.0,0.1588976383209228,0.6613748073577881
-0.1661101281642913,0.4538220465183258,0.0240947920829057,-0.5190640687942505,-0.20982526242733,0.1191102117300033,0.0,0.0,0.7047486305236816,-0.3959382772445678
-0.1656124144792556,0.4427454471588135,0.0437521003186702,-0.4914499521255493,-0.2037526071071624,0.1214530020952224,0.0,0.0,-0.9042621850967408,0.6044995784759521
-0.1650825440883636,0.4310945272445678,0.0480338223278522,-0.5171459317207336,-0.1987639665603637,0.0997726768255233,0.0,0.0,0.6743710041046143,-0.2532681226730346
-0.1644720137119293,0.4199077785015106,0.0564161166548728,-0.4965738356113434,-0.1941037029027938,0.0932056456804275,0.0,0.0,-0.3883225917816162,0.0314935445785522
-0.1638559401035308,0.4081586301326751,0.0570436343550682,-0.5215925574302673,-0.189513012766838,0.0918133631348609,0.0,0.0,0.5115675926208496,-0.2215557694435119
-0.1630494147539138,0.3966087400913238,0.0757918357849121,-0.5127150416374207,-0.1846213489770889,0.0978329181671142,0.0,0.0,0.465396523475647,-0.4190901517868042
-0.1621482819318771,0.3849383592605591,0.0852107852697372,-0.5180822610855103,-0.1796990633010864,0.0984455794095993,0.0,0.0,0.7650929689407349,-0.6882800459861755
-0.1610941886901855,0.373321384191513,0.0989419519901275,-0.5155418515205383,-0.1732193231582641,0.1295948177576065,0.0,0.0,0.3729897737503052,-0.3231923580169678
-0.1598072946071624,0.3618118464946747,0.1217142716050148,-0.5107372999191284,-0.1662382632493972,0.1396210938692093,0.0,0.0,-0.675218403339386,-0.5671520233154297
-0.1585183143615722,0.3497446179389953,0.1211182326078414,-0.5354712605476379,-0.1584500223398208,0.1557648479938507,0.0,0.0,0.4803522825241089,-0.2179619073867797
-0.1570853292942047,0.3381136953830719,0.1355830878019333,-0.5161277055740356,-0.1507476866245269,0.1540469080209732,0.0,0.0,-0.1675845384597778,-0.4785858392715454
-0.1556038856506347,0.325920820236206,0.1404887586832046,-0.5411492586135864,-0.143106997013092,0.1528139114379882,0.0,0.0,0.3799111843109131,-0.1965699791908264
-0.1538857519626617,0.3139709532260895,0.1637275516986847,-0.5303495526313782,-0.1350461989641189,0.1612158268690109,0.0,0.0,0.0182117223739624,-0.4768939018249511
-0.1520191133022308,0.301745742559433,0.1783405691385269,-0.5426132678985596,-0.1267584413290023,0.1657549142837524,0.0,0.0,0.0915038585662841,-0.64566969871521
-0.1501343697309494,0.289474606513977,0.178952544927597,-0.5446016192436218,-0.1172903329133987,0.1893621236085891,0.0,0.0,0.6279969215393066,-0.4954812526702881
-0.1479969024658203,0.2778938114643097,0.2038876563310623,-0.5139568448066711,-0.1074962839484214,0.195881113409996,0.0,0.0,0.3802487850189209,-0.4323799610137939
-0.1457524299621582,0.2664637565612793,0.2147309333086013,-0.5073331594467163,-0.097851887345314,0.1928877234458923,0.0,0.0,0.1255981922149658,-0.7843611240386963
-0.1435332298278808,0.2553118467330932,0.2107413709163665,-0.4949429929256439,-0.0867697894573211,0.2216419726610183,0.0,0.0,-0.1503788232803344,0.0165002346038818
-0.1412293463945388,0.2435988038778305,0.2192578762769699,-0.5199695229530334,-0.0757471024990081,0.2204540222883224,0.0,0.0,0.2515521049499511,-0.1377891302108764
-0.1388339102268219,0.2321792393922805,0.2286546975374221,-0.5070191025733948,-0.0649714022874832,0.2155140191316604,0.0,0.0,0.5263752937316895,-0.201416790485382
-0.1363767683506012,0.2212412655353546,0.2352363765239715,-0.4857072830200195,-0.0546087548136711,0.2072529345750808,0.0,0.0,0.1277458667755127,-0.5986155867576599
-0.1338704079389572,0.2102546542882919,0.2390337735414505,-0.487909585237503,-0.0431442335247993,0.2292906492948532,0.0,0.0,0.4466950893402099,-0.584205150604248
-0.1313979178667068,0.1995070725679397,0.2347710579633712,-0.4773563742637634,-0.030824676156044,0.2463911026716232,0.0,0.0,0.1474612951278686,-0.1387792825698852
-0.1289147436618805,0.1887488514184951,0.2363878786563873,-0.4779410660266876,-0.0190488900989294,0.2355157434940338,0.0,0.0,0.8818535804748535,-0.0625571608543396
-0.1261882781982422,0.1786537915468216,0.2602203488349914,-0.4485556483268738,-0.0067758350633084,0.2454609125852584,0.0,0.0,0.0143784284591674,-0.3933529853820801
-0.1233123764395713,0.1683373749256134,0.2750380337238312,-0.4584978222846985,0.0056100371293723,0.2477175742387771,0.0,0.0,0.7237575054168701,-0.5884100794792175
-0.1202120780944824,0.158659890294075,0.2959364354610443,-0.4302203953266144,0.0195219665765762,0.2782386243343353,0.0,0.0,0.6769922971725464,-0.733971357345581
-0.1170952767133712,0.1496074050664901,0.296233594417572,-0.4026049673557281,0.0347783677279949,0.3051277995109558,0.0,0.0,0.6116220951080322,-0.4650090932846069
-0.1137504577636718,0.1412519961595535,0.3184570670127868,-0.3717961609363556,0.0506147965788841,0.3167286813259125,0.0,0.0,0.8090770244598389,-0.6714492440223694
-0.1102804169058799,0.1332911998033523,0.3294725716114044,-0.3545006811618805,0.067939706146717,0.346498429775238,0.0,0.0,0.8866541385650635,-0.5555261969566345
-0.1068045645952224,0.1261671930551529,0.3290668129920959,-0.3175678253173828,0.0862786471843719,0.3667787313461303,0.0,0.0,0.4168499708175659,-0.6115490198135376
-0.1032546013593673,0.1195006445050239,0.335211843252182,-0.2975417375564575,0.1058851927518844,0.3921311795711517,0.0,0.0,0.0529395341873168,-0.4864838123321533
-0.0995588302612304,0.1127204522490501,0.3496670424938202,-0.3028732538223266,0.1256609112024307,0.3955145478248596,0.0,0.0,0.7492358684539795,-0.3430891036987304
-0.0959463119506836,0.1063320711255073,0.3420611023902893,-0.2856530547142029,0.1447679549455642,0.3821413218975067,0.0,0.0,0.5361936092376709,-0.3259366750717163
-0.0923923477530479,0.1000699400901794,0.3368976414203644,-0.2802169620990753,0.163251906633377,0.3696791529655456,0.0,0.0,0.4302647113800049,0.0762485265731811
-0.0888058692216873,0.0939670205116272,0.3403539657592773,-0.2733503580093384,0.181576982140541,0.3665016293525696,0.0,0.0,0.3640921115875244,-0.3382567167282104
-0.0851465240120887,0.0879610851407051,0.347683310508728,-0.2692664861679077,0.1999269127845764,0.3669984340667724,0.0,0.0,0.2621886730194092,-0.4969125390052795
-0.0813115090131759,0.0818302035331726,0.3649417757987976,-0.2750995755195617,0.2186621278524398,0.3747044503688812,0.0,0.0,0.7335623502731323,0.0087814331054687
-0.0773985832929611,0.0762248113751411,0.3724018633365631,-0.2520399391651153,0.2377922385931015,0.3826019763946533,0.0,0.0,0.5417072772979736,-0.0388052463531494
-0.0735058784484863,0.0711665973067283,0.370449036359787,-0.2279643565416336,0.256950318813324,0.3831619024276733,0.0,0.0,0.5094871520996094,0.1339228153228759
