x_pos,y_pos,x_vel,y_vel,angle,ang_vel,leg_1,leg_2,main_booster,lat_booster
-0.0015846252208575,1.4033217430114746,-0.1605010479688644,-0.3377036154270172,0.0018238284392282,0.0359809845685958,0.0,0.0,0.1038664579391479,0.890558123588562
-0.0031213760375976,1.395902156829834,-0.1537234932184219,-0.3297596871852875,0.0018751892494037,0.0010280502028763,0.0,0.0,-0.3502309322357178,0.3461387157440185
-0.0047207833267748,1.3881791830062866,-0.1600162386894226,-0.3432397842407226,0.0019530152203515,0.0015567888040095,0.0,0.0,-0.4162348508834839,0.8448894023895264
-0.0063301087357103,1.3801510334014893,-0.1596881449222564,-0.3568083941936493,0.0007229036418721,-0.0246045291423797,0.0,0.0,0.2479054927825927,0.8817160129547119
-0.0078219417482614,1.372562050819397,-0.1463169753551483,-0.3372922539710998,-0.0021157786250114,-0.0567791163921356,0.0,0.0,0.0008070468902587,-0.0661936998367309
-0.0092943189665675,1.3651634454727173,-0.1448137909173965,-0.3288301527500152,-0.0045077656395733,-0.0478438548743724,0.0,0.0,-0.5082285404205322,-0.1192039847373962
-0.0108314510434865,1.3574621677398682,-0.1513520181179046,-0.342284619808197,-0.0068443277850747,-0.0467355363070964,0.0,0.0,-0.6927839517593384,0.7686257362365723
-0.012358283624053,1.349459886550903,-0.1484723389148712,-0.3556798994541168,-0.0110165178775787,-0.0834515467286109,0.0,0.0,-0.1987788677215576,0.1445515155792236
-0.0139508247375488,1.341155171394348,-0.155107632279396,-0.3691341578960418,-0.0151181146502494,-0.0820392519235611,0.0,0.0,-0.4880294799804687,0.593289852142334
-0.0155627252534031,1.3325507640838623,-0.1559318006038665,-0.3824831247329712,-0.0203175731003284,-0.1039989739656448,0.0,0.0,-0.3561849594116211,0.0634322166442871
-0.0172410011291503,1.3236438035964966,-0.1626539081335067,-0.3959383964538574,-0.0254339631646871,-0.1023368015885353,0.0,0.0,-0.2714768648147583,0.8519761562347412
-0.0189109798520803,1.3144302368164062,-0.1600108444690704,-0.4096312522888183,-0.0323490872979164,-0.1383148729801178,0.0,0.0,0.145003080368042,0.5328940153121948
-0.0204909332096576,1.305637240409851,-0.1502296030521392,-0.3909892439842224,-0.0400266721844673,-0.1535661220550537,0.0,0.0,0.0330666303634643,-0.0377544164657592
-0.0220860484987497,1.2968722581863403,-0.1520597487688064,-0.3897699117660522,-0.0474004037678241,-0.1474882662296295,0.0,0.0,0.1539398431777954,0.6107149124145508
-0.0235634800046682,1.2886629104614258,-0.1393472254276275,-0.365135133266449,-0.0556992031633853,-0.1659911572933197,0.0,0.0,-0.7402753829956055,0.4459373950958252
-0.0251085273921489,1.2801517248153689,-0.1462357938289642,-0.3785994946956634,-0.0638868287205696,-0.163767471909523,0.0,0.0,-0.3625679016113281,0.1948136091232299
-0.0267214775085449,1.271338701248169,-0.1531518399715423,-0.3920555412769317,-0.0719589293003082,-0.161456748843193,0.0,0.0,-0.7212260365486145,0.2535734176635742
-0.0284027103334665,1.262223720550537,-0.1600938439369201,-0.4055136144161224,-0.0799107477068901,-0.159051164984703,0.0,0.0,-0.5568079352378845,0.2666891813278198
-0.0301521308720111,1.2528064250946045,-0.1670592874288559,-0.4189722239971161,-0.087737925350666,-0.1565576195716858,0.0,0.0,-0.42900550365448,0.6439310312271118
-0.0319263450801372,0.0,-0.1685412228107452,-0.4327673614025116,-0.0965462997555732,-0.1761837750673294,0.0,0.0,-0.5633496642112732,0.6286191940307617
-0.0337088592350482,1.2330505847930908,-0.1679985225200653,-0.4465096294879913,-0.1067365407943725,-0.2038236111402511,0.0,0.0,-0.1166186332702636,0.756281852722168
-0.0354997627437114,1.2227044105529783,-0.1674433648586273,-0.4607051610946655,-0.1183276772499084,-0.23184335231781,0.0,0.0,-0.6758250594139099,0.9180259704589844
-0.0372719764709472,0.0,-0.1634906381368637,-0.4750980138778686,-0.1320042461156845,-0.2735558748245239,0.0,0.0,-0.3856583833694458,0.0233486890792846
-0.0391128547489643,1.2010760307312012,-0.1705306470394134,-0.4885684549808502,-0.1455360352993011,-0.2706596255302429,0.0,0.0,-0.0371519327163696,-0.245206594467163
-0.04102249071002,1.1898107528686523,-0.1775844395160675,-0.5020387768745422,-0.1589210033416748,-0.2677233219146728,0.0,0.0,-0.7216603755950928,0.0875933170318603
-0.0430035591125488,1.1782236099243164,-0.1848759353160858,-0.516450822353363,-0.1721571385860443,-0.264722615480423,0.0,0.0,0.1629003286361694,0.0488297939300537
-0.0449635498225688,1.167090654373169,-0.1829746663570404,-0.4963589906692505,-0.1852306872606277,-0.2614709138870239,0.0,0.0,0.0970872640609741,-0.8009386658668518
-0.0470520034432411,1.1565179824829102,-0.197543054819107,-0.4713446497917175,-0.1965924948453903,-0.2272365093231201,0.0,0.0,-0.6317246556282043,-0.0708857774734497
-0.0492099747061729,1.145643949508667,-0.2046686857938766,-0.4848041832447052,-0.2078006267547607,-0.2241624891757965,0.0,0.0,-0.5053830146789551,0.0666559934616088
-0.0514373779296875,1.1344685554504397,-0.2117992639541626,-0.4982632398605346,-0.2188535332679748,-0.2210584580898285,0.0,0.0,-0.5497920513153076,-0.7276148200035095
-0.0537874214351177,1.1230175495147705,-0.2256505787372589,-0.5103521943092346,-0.2283242791891098,-0.189415156841278,0.0,0.0,-0.1908726692199707,-0.1151768565177917
-0.0562071800231933,1.11126446723938,-0.2327859103679657,-0.523807942867279,-0.2376374155282974,-0.1862626075744629,0.0,0.0,0.4144670963287353,-0.2662813067436218
-0.058603573590517,1.1002349853515625,-0.2303121387958526,-0.4917383790016174,-0.2471189945936203,-0.1896320134401321,0.0,0.0,-0.6842454075813293,-0.2606570720672607
-0.0610694885253906,1.0889034271240234,-0.2374475747346878,-0.5051938891410828,-0.2564412355422973,-0.1864450275897979,0.0,0.0,-0.5411770343780518,-0.8877244591712952
-0.0636705383658409,1.0772972106933594,-0.2528491616249084,-0.5171186327934265,-0.2638551294803619,-0.1482780575752258,0.0,0.0,0.4182344675064087,0.4960975646972656
-0.066156767308712,1.0663225650787354,-0.2416063845157623,-0.4890438020229339,-0.2710365056991577,-0.1436274349689483,0.0,0.0,-0.6885392069816589,-0.8279662132263184
-0.0687788948416709,1.0550684928894043,-0.2570751905441284,-0.5011454224586487,-0.2763104736804962,-0.1054795980453491,0.0,0.0,0.8008337020874023,-0.0685824751853942
-0.0712043792009353,1.044691801071167,-0.2377488166093826,-0.4620992541313171,-0.2812318205833435,-0.0984270721673965,0.0,0.0,0.6609112024307251,-0.7823359370231628
-0.0735634788870811,1.0352848768234253,-0.2327615469694137,-0.4186953008174896,-0.2844760715961456,-0.0648850202560424,0.0,0.0,-0.0188225507736206,-0.4654397964477539
-0.0759921073913574,1.025575041770935,-0.239859253168106,-0.4321437776088714,-0.2875597774982452,-0.0616743750870227,0.0,0.0,0.5332800149917603,-0.1178390383720398
-0.0783800110220909,1.0166432857513428,-0.2355062961578369,-0.3976109623908996,-0.2909417152404785,-0.0676390379667282,0.0,0.0,-0.1259152293205261,-0.1508144736289978
-0.0808370560407638,1.007408618927002,-0.2425793707370758,-0.4110594391822815,-0.2941639423370361,-0.0644448399543762,0.0,0.0,0.2619056701660156,-0.4410865306854248
-0.0832225829362869,0.9981822967529296,-0.2359220534563064,-0.4105917811393738,-0.2968838810920715,-0.054398525506258,0.0,0.0,0.3903999328613281,0.1913498640060424
-0.0854669585824012,0.989254355430603,-0.2223311960697174,-0.3972324430942535,-0.2990590333938598,-0.0435032360255718,0.0,0.0,0.1865179538726806,-0.286726713180542
-0.0877456665039062,0.9803391098976136,-0.2257798612117767,-0.3966600298881531,-0.3012118935585022,-0.0430573895573616,0.0,0.0,0.6338976621627808,0.6275997161865234
-0.089901827275753,0.9715442061424256,-0.2125563323497772,-0.3915247917175293,-0.3043794631958008,-0.0633515641093254,0.0,0.0,0.5773249864578247,0.2319300174713134
-0.0919427871704101,0.9630303382873536,-0.2014492005109787,-0.378946453332901,-0.3071226775646209,-0.0548641681671142,0.0,0.0,0.6836824417114258,-0.4058384895324707
-0.0939040184020996,0.9554803967475892,-0.1931161284446716,-0.3361987769603729,-0.3102421462535858,-0.0623899474740028,0.0,0.0,0.3600630760192871,0.1963601112365722
-0.0958389267325401,0.9486039280891418,-0.1901419460773468,-0.3063396215438843,-0.313714861869812,-0.0694542974233627,0.0,0.0,0.1855994462966919,0.1139626502990722
-0.0977431312203407,0.9419521689414978,-0.1871445924043655,-0.2963445782661438,-0.3171074688434601,-0.0678528770804405,0.0,0.0,0.0082966089248657,0.465822696685791
-0.0995223969221115,0.9354531168937684,-0.1752041280269622,-0.2894522249698639,-0.3199467062950134,-0.0567846298217773,0.0,0.0,0.3996384143829345,0.4315019845962524
-0.1012186035513877,0.9295622706413268,-0.1668043136596679,-0.262430340051651,-0.3228650987148285,-0.0583680868148803,0.0,0.0,0.4726005792617798,0.3768695592880249
-0.1027628928422927,0.923885703086853,-0.1521990150213241,-0.25279101729393,-0.3251884281635284,-0.0464663244783878,0.0,0.0,0.233176589012146,0.3784029483795166
-0.1041806191205978,0.9187511801719666,-0.1396900564432144,-0.2286745458841323,-0.3273586332798004,-0.0434043407440185,0.0,0.0,0.4254573583602905,0.1033557653427124
-0.1054067611694336,0.9138488173484802,-0.1212406307458877,-0.2181939482688903,-0.3287944793701172,-0.0287167318165302,0.0,0.0,0.8035860061645508,0.0512471199035644
-0.1066305190324783,0.9094239473342896,-0.1206661090254783,-0.1970460563898086,-0.3305756449699402,-0.0356235802173614,0.0,0.0,0.7395720481872559,0.6759626865386963
-0.10749302059412,0.9058144688606262,-0.0835899040102958,-0.161039650440216,-0.3333548903465271,-0.0555849075317382,0.0,0.0,0.3647480010986328,-0.4446265697479248
-0.1081293076276779,0.9026354551315308,-0.0615949556231498,-0.1417618691921234,-0.3354750871658325,-0.0424045473337173,0.0,0.0,0.5361659526824951,-0.1708565354347229
-0.1085110679268837,0.9002031683921814,-0.0365713015198707,-0.1084730550646781,-0.3371451795101166,-0.0334023907780647,0.0,0.0,0.8398464918136597,-0.6628700494766235
-0.1087997406721115,0.8987829089164734,-0.0284843984991312,-0.0632063671946525,-0.3375476598739624,-0.0080497954040765,0.0,0.0,-0.6493407487869263,-0.8166488409042358
-0.1092071533203125,0.8970822095870972,-0.0419219247996807,-0.0753127187490463,-0.3363066911697387,0.0248194802552461,0.0,0.0,-0.0932260751724243,-0.863713264465332
-0.109748937189579,0.895121693611145,-0.0574609041213989,-0.0863701999187469,-0.3328801989555359,0.0685290098190307,0.0,0.0,0.3276535272598266,-0.1891500353813171
-0.1101208701729774,0.8933987617492676,-0.0410281904041767,-0.0756948292255401,-0.328878790140152,0.0800279751420021,0.0,0.0,-0.2866088151931762,-0.2951201200485229
-0.1105515509843826,0.8913730382919312,-0.0470129996538162,-0.0891444832086563,-0.3247650563716888,0.0822747126221656,0.0,0.0,-0.0245726704597473,-0.2119940519332885
-0.1110398322343826,0.8890441656112671,-0.0528837256133556,-0.1025943458080291,-0.3205426335334778,0.0844487398862838,0.0,0.0,0.4130607843399048,0.5157363414764404
-0.1114950180053711,0.8871671557426453,-0.048409953713417,-0.0827844366431236,-0.3175409138202667,0.0600343868136405,0.0,0.0,0.5431673526763916,-0.2515754699707031
-0.1117366775870323,0.8861170411109924,-0.0272465795278549,-0.0460059009492397,-0.3143454194068908,0.0639093518257141,0.0,0.0,-0.6564441919326782,-0.073068618774414
-0.1120320335030555,0.884763777256012,-0.0327157229185104,-0.0594556406140327,-0.3110529482364654,0.0658497288823127,0.0,0.0,-0.0104304552078247,0.0484285354614257
-0.1123797446489334,0.8831078410148621,-0.0380293317139148,-0.0729055479168891,-0.3076675832271576,0.0677072405815124,0.0,0.0,-0.1301223039627075,-0.416401743888855
-0.112777903676033,0.8811488747596741,-0.0431754551827907,-0.0863556414842605,-0.3041936457157135,0.0694795697927475,0.0,0.0,0.7609257698059082,0.117630124092102
-0.1131020560860633,0.8799638152122498,-0.0354228690266609,-0.0520386882126331,-0.3010881841182709,0.0621091425418853,0.0,0.0,-0.0668063163757324,-0.110537052154541
-0.1134732216596603,0.878476083278656,-0.0401956886053085,-0.0654889121651649,-0.2979029715061188,0.0637041479349136,0.0,0.0,-0.0298107266426086,0.6524715423583984
-0.1138491630554199,0.8766746520996094,-0.0397481247782707,-0.0796260759234428,-0.2956784069538116,0.0444910489022731,0.0,0.0,0.3299064636230469,0.1875472068786621
-0.1140758544206619,0.8752114176750183,-0.0251536313444376,-0.0645268633961677,-0.2931098639965057,0.0513711348176002,0.0,0.0,-0.1295148134231567,-0.240729808807373
-0.1143428832292556,0.873445451259613,-0.0292633436620235,-0.07797721773386,-0.2904756665229797,0.0526836514472961,0.0,0.0,0.1723031997680664,0.0349769592285156
-0.1145356148481369,0.8716874718666077,-0.0221097711473703,-0.0775731429457664,-0.2875575721263885,0.0583616569638252,0.0,0.0,0.0168454647064209,0.0773158073425293
-0.1147231087088584,0.8699353933334351,-0.0215570256114006,-0.0773181095719337,-0.2846737205982208,0.0576767846941947,0.0,0.0,-0.596053957939148,0.1494233608245849
-0.1149432212114334,0.8678805828094482,-0.0248728897422552,-0.0907690301537513,-0.2817392349243164,0.0586900115013122,0.0,0.0,0.033637523651123,0.8644387722015381
-0.1149273887276649,0.8662136197090149,0.0003863324527628,-0.0738560482859611,-0.2805065810680389,0.0246528498828411,0.0,0.0,-0.6659063100814819,-0.0785956978797912
-0.1149382591247558,0.8642438054084778,-0.0023279141169041,-0.0873066633939743,-0.2792336344718933,0.0254590474069118,0.0,0.0,0.306102991104126,-0.0633957386016845
-0.1149988174438476,0.8623911738395691,-0.0068750889040529,-0.0821854770183563,-0.2783988118171692,0.0166965909302234,0.0,0.0,-0.1513752937316894,-0.4590792655944824
-0.1150797829031944,0.8602358102798462,-0.0089350407943129,-0.0956362783908844,-0.2775342166423797,0.017291659489274,0.0,0.0,-0.1038903594017028,0.0673061609268188
-0.1151776313781738,0.8577775955200195,-0.0106503907591104,-0.1090872064232826,-0.2766451835632324,0.0177803896367549,0.0,0.0,0.3499869108200073,-0.354898452758789
-0.1151806861162185,0.8558342456817627,-0.0009890765650197,-0.0862414166331291,-0.2759442925453186,0.0140181109309196,0.0,0.0,-0.6532688736915588,-0.6078088283538818
-0.1152400970458984,0.8536112308502197,-0.0078559145331382,-0.0984413921833038,-0.2739697992801666,0.039489559829235,0.0,0.0,0.3237892389297485,-0.4114194512367248
-0.1151122078299522,0.8517304062843323,0.0105409938842058,-0.0831751748919487,-0.271663635969162,0.0461232885718345,0.0,0.0,-0.5238434076309204,0.0591694116592407
-0.114986702799797,0.8495468497276306,0.0102870669215917,-0.0966269597411155,-0.2693541646003723,0.0461892671883106,0.0,0.0,0.1264837980270385,-0.4179174900054931
-0.1147260665893554,0.847432553768158,0.0235283803194761,-0.0935059934854507,-0.266754001379013,0.0520034953951835,0.0,0.0,-0.2904053926467895,-0.3225812911987304
-0.1144603714346885,0.8450157046318054,0.0240296963602304,-0.106958121061325,-0.2641607820987701,0.0518645346164703,0.0,0.0,-0.6631439328193665,-0.6603427529335022
-0.1142255812883377,0.8423070311546326,0.0199537314474582,-0.1197503358125686,-0.2605567872524261,0.0720799416303634,0.0,0.0,-0.7181366682052612,-0.5962560772895813
-0.1140234023332595,0.8393186926841736,0.0155020337551832,-0.1319898515939712,-0.2557478547096252,0.096178725361824,0.0,0.0,-0.9768598079681396,-0.2694122791290283
-0.1138052940368652,0.836027979850769,0.0171206519007682,-0.1454436182975769,-0.2509604096412658,0.0957486405968666,0.0,0.0,-0.9967917203903198,0.034497857093811
-0.1135675460100174,0.8324350714683533,0.0190998520702123,-0.1588974297046661,-0.2461990416049957,0.095227375626564,0.0,0.0,-0.9763946533203124,-0.0497049689292907
-0.1133067160844802,0.8285397887229919,0.0214305929839611,-0.1723513156175613,-0.2414681166410446,0.0946183875203132,0.0,0.0,-0.9990620613098145,0.1929354667663574
-0.1130195632576942,0.8243421316146851,0.0241022799164056,-0.1858052611351013,-0.2367718517780304,0.0939254015684127,0.0,0.0,-0.9662230014801024,-0.2446650862693786
-0.1127025634050369,0.8198424577713013,0.027102967724204,-0.1992592364549636,-0.232114240527153,0.0931525379419326,0.0,0.0,-0.9984342455863952,0.1568150520324707
-0.1123528480529785,0.8150403499603271,0.030419597402215,-0.2127132564783096,-0.2274990379810333,0.0923040509223938,0.0,0.0,-0.9902011156082152,-0.0335313081741333
-0.1119673699140548,0.809935986995697,0.0340382121503353,-0.2261672914028167,-0.2229298204183578,0.091384470462799,0.0,0.0,-0.9329369068145752,0.0485873222351074
-0.1115431785583496,0.8045295476913452,0.0379441976547241,-0.2396213412284851,-0.2184099107980728,0.0903984233736991,0.0,0.0,-0.9960360527038574,-0.640430212020874
-0.1111308112740516,0.7988433837890625,0.0354271940886974,-0.251873642206192,-0.2125349193811416,0.11749979108572,0.0,0.0,-0.9999931454658508,0.2619807720184326
-0.1106744781136512,0.7928549647331238,0.0398621521890163,-0.2653288841247558,-0.2067151665687561,0.1163949966430664,0.0,0.0,-0.9967869520187378,0.8882184028625488
-0.1101065650582313,0.7865409851074219,0.0527765080332756,-0.2800701260566711,-0.2026676386594772,0.0809506922960281,0.0,0.0,-0.9986257553100586,-0.2865476608276367
-0.1094902008771896,0.7799245715141296,0.0576802194118499,-0.2935238778591156,-0.1986802667379379,0.0797473192214965,0.0,0.0,-0.9999157786369324,-0.0882304310798645
-0.1088232025504112,0.7730060815811157,0.0627955794334411,-0.3069775998592376,-0.1947551667690277,0.0785023123025894,0.0,0.0,-0.9909939765930176,-0.4828956127166748
-0.1081036552786827,0.7657851576805115,0.0681080967187881,-0.3204313218593597,-0.190894141793251,0.0772206410765647,0.0,0.0,-0.9996948838233948,0.0051594972610473
-0.1073298454284668,0.7582619190216064,0.0736038163304328,-0.3338850140571594,-0.1870987713336944,0.075907401740551,0.0,0.0,-0.9901905059814452,-0.704330563545227
-0.1065408736467361,0.7504536509513855,0.074119359254837,-0.3464411497116089,-0.1822938621044159,0.0960980802774429,0.0,0.0,-0.9999081492424012,-0.0894672870635986
-0.10569429397583,0.7423430681228638,0.0799416229128837,-0.3598954975605011,-0.177557036280632,0.0947364270687103,0.0,0.0,-0.9656712412834167,-0.4913994073867798
-0.1047885864973068,0.733930230140686,0.0859088078141212,-0.3733497560024261,-0.1728891283273697,0.0933579057455062,0.0,0.0,-0.9995626211166382,-0.3568295836448669
-0.103822611272335,0.7252152562141418,0.092009499669075,-0.3868039846420288,-0.168290764093399,0.0919673591852188,0.0,0.0,-0.999515950679779,-0.1754336357116699
-0.102795124053955,0.7161981463432312,0.098233014345169,-0.4002580940723419,-0.1637622714042663,0.0905696302652359,0.0,0.0,-0.9993904829025269,-0.0785234570503234
-0.10170479118824,0.7068788409233093,0.1045693531632423,-0.4137121737003326,-0.1593038141727447,0.0891694277524948,0.0,0.0,-0.9917588233947754,-0.7087967395782471
-0.1005990952253341,0.6972653269767761,0.1049521118402481,-0.4266765713691711,-0.1536882668733596,0.1123107820749282,0.0,0.0,-0.9985754489898682,-0.1391104459762573
-0.099428653717041,0.6873496174812317,0.1114865988492965,-0.4401315152645111,-0.1481423079967498,0.1109192818403244,0.0,0.0,-0.9965051412582396,0.0864249467849731
-0.0981926918029785,0.6771318912506104,0.1181079968810081,-0.4535863697528839,-0.1426653563976287,0.1095390170812606,0.0,0.0,-0.9979282021522522,-0.5196460485458374
-0.0969325080513954,0.6666207909584045,0.1195154339075088,-0.4665476083755493,-0.1361808031797409,0.1296909749507904,0.0,0.0,-0.9990013241767884,0.197070837020874
-0.0956051796674728,0.6558078527450562,0.1262887865304947,-0.4800032675266266,-0.1297634989023208,0.128346174955368,0.0,0.0,-0.9884730577468872,-0.4760711789131164
-0.0942100510001182,0.6446928977966309,0.1331285834312439,-0.4934588074684143,-0.1234122142195701,0.1270256489515304,0.0,0.0,-0.996425986289978,0.1453484296798706
-0.0927465409040451,0.6332758665084839,0.1400290429592132,-0.5069142580032349,-0.1171255260705947,0.1257337033748626,0.0,0.0,-0.9996353983879088,-0.5762782692909241
-0.0912569016218185,0.6215699911117554,0.1415810137987136,-0.5196980237960815,-0.109797291457653,0.1465645730495453,0.0,0.0,-0.9973182678222656,-0.0814375877380371
