x_pos,y_pos,x_vel,y_vel,angle,ang_vel,leg_1,leg_2,main_booster,lat_booster
-0.0015833855140954,1.403148889541626,-0.1602905094623565,-0.345390647649765,0.001747770817019,0.0344751961529254,0.0,0.0,0.4986566422327236,-0.8707578692083487
-0.0032414435409009,1.3955485820770264,-0.169265016913414,-0.3378002941608429,0.005181984975934,0.0686912983655929,0.0,0.0,0.4099679767480009,-0.8491337208198991
-0.0048954961821436,1.3879836797714231,-0.1706773191690445,-0.3362440764904022,0.0103950463235378,0.1042706966400146,0.0,0.0,0.1237349901476878,0.5662757509916906
-0.0066527365706861,1.3804504871368408,-0.179612323641777,-0.3348406851291656,0.0142392683774232,0.0768914371728897,0.0,0.0,0.2928943953744458,-0.1305980229737302
-0.0083685871213674,1.3732093572616575,-0.1758714318275451,-0.3218749463558197,0.0184829793870449,0.0848821550607681,0.0,0.0,0.1006228343371633,0.4553490411265051
-0.0100497249513864,1.3660378456115725,-0.1727589666843414,-0.3187964558601379,0.023073460906744,0.0918179377913475,0.0,0.0,0.2745806753768216,0.4828894564093405
-0.0118065830320119,1.3590583801269531,-0.1801383048295974,-0.3102717101573944,0.0274866893887519,0.0882725566625595,0.0,0.0,-0.8016207313441197,-0.2699530225698155
-0.0136089324951171,1.3516035079956057,-0.1846002638339996,-0.3314164876937866,0.0318021588027477,0.0863172113895416,0.0,0.0,-0.559052460258882,0.8037165517628503
-0.015392780303955,1.3436849117279053,-0.1810662299394607,-0.35200235247612,0.0344542264938354,0.0530462265014648,0.0,0.0,0.1412471219044029,0.5054451896106652
-0.0171956066042184,1.336047887802124,-0.1818451881408691,-0.3394578993320465,0.0359981171786785,0.0308808647096157,0.0,0.0,0.7416294024349315,-0.4213116987644446
-0.0189684871584177,1.328879475593567,-0.1791800260543823,-0.3186444044113159,0.0378640741109848,0.0373225472867488,0.0,0.0,0.032187414163407,0.5206120249290687
-0.0206997878849506,1.3217339515686035,-0.173953503370285,-0.3175989985466003,0.0386730208992958,0.016180507838726,0.0,0.0,0.1306583890800372,-0.01192262906226
-0.0223937984555959,1.3148354291915894,-0.1705402582883834,-0.3066307306289673,0.0397882126271724,0.022305829450488,0.0,0.0,-0.27548244743571,-0.9329354494031992
-0.0241837501525878,1.3074486255645752,-0.1816520690917968,-0.3283776044845581,0.0424240231513977,0.0527211502194404,0.0,0.0,-0.7205285011398619,-0.425261157911493
-0.0260019302368164,1.2995861768722534,-0.1843665391206741,-0.3495153188705444,0.0449369475245475,0.0502634234726429,0.0,0.0,-0.0555311666136371,0.6887476974385887
-0.027781581506133,1.2912442684173584,-0.1787465661764145,-0.3707737326622009,0.0457104295492172,0.0154713559895753,0.0,0.0,0.6297450276193288,-0.7119409212681895
-0.0295307151973247,1.283705711364746,-0.1773121803998947,-0.3351182341575622,0.0480838939547538,0.0474733784794807,0.0,0.0,-0.6129888595630293,-0.102289414970569
-0.0313004478812217,1.2756913900375366,-0.1792464256286621,-0.3562692105770111,0.0503248758614063,0.0448238924145698,0.0,0.0,-0.2052757747722982,0.10639242661269
-0.0330883972346782,1.2672014236450195,-0.1809211820363998,-0.3774053752422333,0.0524324439465999,0.0421552285552024,0.0,0.0,0.8835364873820866,0.1549585675076265
-0.0350173935294151,1.2591949701309204,-0.1944670379161834,-0.35589399933815,0.0539736375212669,0.03082693554461,0.0,0.0,-0.0475781067361997,-0.9776657698079956
-0.037020493298769,1.2507150173187256,-0.2032802551984787,-0.3769993185997009,0.0569066517055034,0.0586655959486961,0.0,0.0,0.8797033163021493,-0.3974430701926854
-0.0390496253967285,1.2425143718719482,-0.2057844698429107,-0.3645815551280975,0.0597590133547782,0.0570522174239158,0.0,0.0,-0.797956058217743,-0.7801055089290422
-0.0411349311470985,1.2338327169418335,-0.212499588727951,-0.3860178887844085,0.0636848807334899,0.0785241723060607,0.0,0.0,-0.6612247081376519,0.1256960094327749
-0.0432260520756244,1.2246754169464111,-0.2129168808460235,-0.4071564972400665,0.0674633160233497,0.0755754858255386,0.0,0.0,0.2812019173181062,0.1771653457248959
-0.0454638488590717,1.215778350830078,-0.2269287109375,-0.3955723345279693,0.0705821067094802,0.0623813867568969,0.0,0.0,-0.2977075354841494,0.5805606323612993
-0.0476669296622276,1.2063908576965332,-0.2224175482988357,-0.4173253774642944,0.072672963142395,0.0418170765042305,0.0,0.0,0.927629015835126,-0.2524310809062962
-0.0499255172908306,1.1977959871292114,-0.2278408110141754,-0.382085770368576,0.0746311396360397,0.0391636863350868,0.0,0.0,0.6598987793216085,-0.3064055498020753
-0.052373219281435,1.1899511814117432,-0.2459693700075149,-0.3487213551998138,0.0758265778422355,0.0239085778594017,0.0,0.0,-0.0173820743006209,-0.3886414440040093
-0.0548149123787879,1.1816304922103882,-0.2452189475297927,-0.369858831167221,0.0768646150827407,0.0207607019692659,0.0,0.0,0.3487399599246321,-0.3915384233311226
-0.0572961792349815,1.1734275817871094,-0.2489398419857025,-0.3646221160888672,0.0776639655232429,0.0159871876239776,0.0,0.0,-0.8765255228252191,0.800759489002006
-0.0597027763724327,1.1647653579711914,-0.2396416664123535,-0.384935200214386,0.076655127108097,-0.020176688209176,0.0,0.0,-0.1279264688491821,0.9846847057342528
-0.0620293617248535,1.1556295156478882,-0.2297523915767669,-0.4058924615383148,0.0737771540880203,-0.0575593598186969,0.0,0.0,-0.5685903429985046,0.8651548624038696
-0.0642834678292274,1.146032691001892,-0.2208359241485595,-0.4263059496879577,0.069245733320713,-0.0906283780932426,0.0,0.0,-0.4738733768463135,0.981814742088318
-0.0664521232247352,1.135958909988403,-0.2103500366210937,-0.4474384188652038,0.0628024712204933,-0.1288654208183288,0.0,0.0,-0.9683486819267272,0.9975641965866088
-0.0685222595930099,1.1254197359085083,-0.1982786059379577,-0.4680614173412323,0.0541516654193401,-0.1730161607265472,0.0,0.0,-0.9718725681304932,0.9331293106079102
-0.0704976096749305,1.1144194602966309,-0.1866743862628936,-0.4885503649711609,0.0434173457324504,-0.2146859616041183,0.0,0.0,-0.9705432057380676,0.0945279598236084
-0.0724521651864051,1.1029449701309204,-0.1844137758016586,-0.5096977353096008,0.0325127877295017,-0.2180911004543304,0.0,0.0,-0.9599522352218628,0.5247790813446045
-0.074340246617794,1.0910027027130127,-0.176469087600708,-0.5305460095405579,0.0203264225274324,-0.2437273263931274,0.0,0.0,-0.9472662210464478,0.1176799535751342
-0.0762044936418533,1.0785869359970093,-0.1739054173231125,-0.5516965389251709,0.0079674655571579,-0.2471790760755539,0.0,0.0,-0.9962451457977296,0.3952517509460449
-0.0780434608459472,1.0656975507736206,-0.1712017059326172,-0.5728474855422974,-0.004565127659589,-0.2506518959999084,0.0,0.0,-0.9794836044311525,0.1781572103500366
-0.0798558220267295,1.0523347854614258,-0.1683654487133026,-0.5939990282058716,-0.0172723364084959,-0.2541441023349762,0.0,0.0,-0.99601548910141,-0.9458712339401244
-0.0816998481750488,1.0384975671768188,-0.172872394323349,-0.6151602268218994,-0.0286596957594156,-0.2277472913265228,0.0,0.0,-0.9835284352302552,-0.2918354868888855
-0.0835148841142654,1.0241867303848269,-0.1697933822870254,-0.6363098621368408,-0.0402234122157096,-0.2312741726636886,0.0,0.0,-0.9771172404289246,0.3411085605621338
-0.0852997750043869,1.0094019174575806,-0.166603997349739,-0.6574600338935852,-0.0519641824066638,-0.2348154038190841,0.0,0.0,-0.9738515615463256,-0.8117204904556274
-0.0871222466230392,0.9941391348838806,-0.171936959028244,-0.6787399053573608,-0.0621601790189743,-0.2039199769496917,0.0,0.0,-0.984584391117096,-0.9861953258514404
-0.0889850631356239,0.978398621082306,-0.1776175051927566,-0.6999593377113342,-0.0707234442234039,-0.1712654083967209,0.0,0.0,-0.9327728152275084,-0.9273841977119446
-0.090880773961544,0.9621855020523072,-0.1824181079864502,-0.7209399938583374,-0.0778073817491531,-0.1416784226894378,0.0,0.0,-0.9670917987823486,-0.994893193244934
-0.0928352326154708,0.9455189108848572,-0.1904896199703216,-0.7410027980804443,-0.0827162787318229,-0.0981778129935264,0.0,0.0,-0.0719978213310241,-0.6837579011917114
-0.094820499420166,0.9283913969993592,-0.1950771361589431,-0.7614206671714783,-0.0861408114433288,-0.0684904903173446,0.0,0.0,-0.5127035975456238,-0.4028249979019165
-0.096770666539669,0.9107884764671326,-0.191371738910675,-0.7825613617897034,-0.0897452011704444,-0.072087749838829,0.0,0.0,0.3628085851669311,-0.8603581786155701
-0.0985764488577842,0.8934050798416138,-0.1786314249038696,-0.7727208733558655,-0.0916763618588447,-0.0386232025921344,0.0,0.0,0.7815456390380859,-0.867443859577179
-0.100409410893917,0.8767573237419128,-0.1827878803014755,-0.7399299740791321,-0.0921790152788162,-0.0100530218333005,0.0,0.0,-0.1198949813842773,-0.1806474328041076
-0.1022054702043533,0.8596341013908386,-0.1789144575595855,-0.761069655418396,-0.0928618535399437,-0.0136569635942578,0.0,0.0,0.079653263092041,-0.3224743604660034
-0.1039137840270996,0.842814028263092,-0.1699639409780502,-0.7476194500923157,-0.0937152057886123,-0.0170670431107282,0.0,0.0,-0.8775688409805298,-0.5673856735229492
-0.1056180000305175,0.8255209922790527,-0.1702443659305572,-0.7685892581939697,-0.0938982814550399,-0.0036615072749555,0.0,0.0,-0.4914312362670898,0.2717849016189575
-0.107284165918827,0.8077524900436401,-0.1662588268518448,-0.7897289991378784,-0.0942611992359161,-0.0072582638822495,0.0,0.0,0.3919521570205688,0.6511027812957764
-0.1087103858590126,0.7904977798461914,-0.1409296989440918,-0.7669800519943237,-0.0959356874227523,-0.0334898009896278,0.0,0.0,0.008020281791687,-0.1801139116287231
-0.1099748611450195,0.7733701467514038,-0.1249671578407287,-0.7613255381584167,-0.0973998755216598,-0.029283981770277,0.0,0.0,0.1161601543426513,-0.0924180150032043
-0.1110962852835655,0.7565902471542358,-0.1107227206230163,-0.7458709478378296,-0.0988093465566635,-0.0281893275678157,0.0,0.0,0.2720189094543457,0.4377806186676025
-0.1121776551008224,0.7402466535568237,-0.1062610298395156,-0.7265070080757141,-0.1006682813167572,-0.0371786393225193,0.0,0.0,0.1615853309631347,-0.713784396648407
-0.1132100075483322,0.7238125205039978,-0.1026676893234252,-0.7304471731185913,-0.101238414645195,-0.0114026321098208,0.0,0.0,-0.515047013759613,-0.4888721704483032
-0.1142036467790603,0.7069029808044434,-0.0986136421561241,-0.7515870332717896,-0.1019854396581649,-0.0149402944371104,0.0,0.0,0.0790841579437255,-0.5442248582839966
-0.1150780692696571,0.6900135278701782,-0.0877606570720672,-0.7506158947944641,-0.1016733273863792,0.0062423925846815,0.0,0.0,0.8475496768951416,0.3436017036437988
-0.1158182173967361,0.6736677885055542,-0.0742687731981277,-0.7264654636383057,-0.1014145389199256,0.0051756333559751,0.0,0.0,0.4915788173675537,-0.0790334343910217
-0.1164761558175087,0.6573854088783264,-0.0659184902906417,-0.7236483693122864,-0.1012973338365554,0.002344187349081,0.0,0.0,0.6364140510559082,-0.2323651909828186
-0.11715879291296,0.6415200233459473,-0.0676311701536178,-0.705173909664154,-0.1019204184412956,-0.0124620366841554,0.0,0.0,0.5652033090591431,-0.4582302570343017
-0.1177006736397743,0.6263859272003174,-0.0534861870110034,-0.672674298286438,-0.1026213988661766,-0.0140192555263638,0.0,0.0,-0.0141418576240539,0.0193806886672973
-0.1182049736380577,0.6107763648033142,-0.0495542921125888,-0.693814218044281,-0.1034929975867271,-0.0174317769706249,0.0,0.0,0.7194124460220337,-0.9192810654640198
-0.1186205893754959,0.596034049987793,-0.0424107685685157,-0.6551554799079895,-0.1026489287614822,0.0168813429772853,0.0,0.0,-0.5132376551628113,-0.3727446794509887
-0.1189993843436241,0.5808163285255432,-0.0385587587952613,-0.6762952208518982,-0.1019725501537323,0.013527387753129,0.0,0.0,0.330893874168396,-0.2039106488227844
-0.1193597763776779,0.565948486328125,-0.0362132713198661,-0.6607815027236938,-0.1018044725060463,0.0033618703018873,0.0,0.0,0.5403249263763428,-0.8392689824104309
-0.119659423828125,0.5514779090881348,-0.0316977612674236,-0.6430189609527588,-0.1000795364379882,0.0344986654818058,0.0,0.0,-0.610824704170227,-0.5704537034034729
-0.119977667927742,0.5365466475486755,-0.0347995087504386,-0.6634186506271362,-0.0971341133117675,0.0589085407555103,0.0,0.0,0.5914809703826904,0.2831528186798095
-0.120136834681034,0.5219602584838867,-0.019050670787692,-0.648085355758667,-0.0940216928720474,0.0622483491897583,0.0,0.0,0.3548824787139892,0.4790935516357422
-0.1202591881155967,0.5073813199996948,-0.0150892315432429,-0.6477735638618469,-0.0911954417824745,0.0565249919891357,0.0,0.0,0.2725430727005005,0.2019057273864746
-0.1202731132507324,0.4926940500736236,-0.0043319538235664,-0.6525943279266357,-0.0882828831672668,0.058251142501831,0.0,0.0,0.504631519317627,-0.1707006692886352
-0.1202556639909744,0.4779970645904541,-0.0009056694689206,-0.6530452966690063,-0.0856569856405258,0.0525178536772728,0.0,0.0,0.6925156116485596,-0.3558975458145141
-0.1201451271772384,0.4640402793884277,0.0085904309526085,-0.6201654076576233,-0.08322174847126,0.0487047210335731,0.0,0.0,0.6696858406066895,-0.0739023089408874
-0.1198542565107345,0.4508302807807922,0.0264051612466573,-0.5869601964950562,-0.080560602247715,0.0532231628894805,0.0,0.0,0.0042756795883178,-0.6037580370903015
-0.1196169853210449,0.4379090368747711,0.0200591459870338,-0.5740865468978882,-0.0769318863749504,0.0725741609930992,0.0,0.0,-0.1135836243629455,0.7646579742431641
-0.1193032264709472,0.4244990646839142,0.029067313298583,-0.5958820581436157,-0.0746433958411216,0.0457694679498672,0.0,0.0,0.5486993789672852,0.4262309074401855
-0.1188676804304122,0.4117178916931152,0.0412037260830402,-0.5679381489753723,-0.0723191425204277,0.0464853905141353,0.0,0.0,0.1911737918853759,-0.1556441783905029
-0.1184472069144249,0.3990899622440338,0.0401779040694236,-0.5611522793769836,-0.0704685673117637,0.0370115265250206,0.0,0.0,0.4988503456115722,0.1547060012817382
-0.118006132543087,0.3869119584560394,0.0426040738821029,-0.5411756634712219,-0.0689802765846252,0.0297659821808338,0.0,0.0,0.4405398368835449,0.1279778480529785
-0.1175074577331543,0.375171959400177,0.0485400035977363,-0.5217185616493225,-0.0676687657833099,0.0262303054332733,0.0,0.0,0.1798747777938842,0.5051732063293457
-0.1168479919433593,0.3635673522949219,0.0656235963106155,-0.5157439112663269,-0.0673452541232109,0.0064698876813054,0.0,0.0,0.0905563831329345,-0.5225865840911865
-0.1161735504865646,0.3518227338790893,0.0661521479487419,-0.5219253897666931,-0.0660718157887458,0.0254687368869781,0.0,0.0,0.1676774024963379,-0.313429594039917
-0.1153920143842697,0.3400220870971679,0.0766763538122177,-0.5244092345237732,-0.0646115392446518,0.0292055644094944,0.0,0.0,0.2003341913223266,0.0505847930908203
-0.1144551262259483,0.3283566236495971,0.0918232724070549,-0.5183857083320618,-0.0627688989043235,0.0368527621030807,0.0,0.0,0.6093497276306152,-0.3650698661804199
-0.1133378967642784,0.3167780637741089,0.109340414404869,-0.5145047903060913,-0.0604057125747203,0.0472637265920639,0.0,0.0,-0.2335999011993408,-0.3658152818679809
-0.1122008338570594,0.3047239780426025,0.1114163175225257,-0.5356441736221313,-0.0581454709172248,0.0452050752937793,0.0,0.0,0.627230167388916,-0.6463632583618164
-0.1110195145010948,0.293319821357727,0.1145632117986679,-0.5067190527915955,-0.0546210780739784,0.0704878866672515,0.0,0.0,0.1434015035629272,-0.0128147602081298
-0.1097094565629959,0.2821246385574341,0.1271348297595977,-0.4974263906478882,-0.0507911965250968,0.0765976011753082,0.0,0.0,0.3980791568756103,-0.179975688457489
-0.1082836166024208,0.2708615064620971,0.1383930593729019,-0.500449538230896,-0.0466546863317489,0.0827303528785705,0.0,0.0,0.4525344371795654,-0.3953912258148193
-0.1068677902221679,0.2597969770431518,0.1376980543136596,-0.4916375875473022,-0.0428148359060287,0.076797179877758,0.0,0.0,0.0801420211791992,0.074230670928955
-0.1053582206368446,0.2490989118814468,0.1468805968761444,-0.4753575026988983,-0.0387966968119144,0.0803629010915756,0.0,0.0,0.1712533235549926,-0.22193443775177
-0.1038366332650184,0.2385312169790268,0.1482523828744888,-0.4695783853530884,-0.0349272787570953,0.0773882120847702,0.0,0.0,0.3313732147216797,-0.2630634903907776
-0.1023807525634765,0.2284543365240097,0.1422037184238433,-0.4477844834327698,-0.0315885357558727,0.066774733364582,0.0,0.0,-0.5681913495063782,-0.8203152418136597
-0.1009695082902908,0.217908889055252,0.1363942772150039,-0.4685934484004974,-0.026914793998003,0.0934747010469436,0.0,0.0,0.2105481624603271,-0.629852831363678
-0.0996271148324012,0.207720935344696,0.1283688843250274,-0.4527060687541961,-0.0211137011647224,0.116021953523159,0.0,0.0,0.342231273651123,0.1501908302307129
-0.0983303040266037,0.1979722082614898,0.1241654902696609,-0.4332104325294494,-0.0156735368072986,0.1088032573461532,0.0,0.0,-0.2533772587776184,-0.2182059288024902
-0.0970259681344032,0.1877482086420059,0.1249667257070541,-0.4543513655662536,-0.0102776838466525,0.1079171299934387,0.0,0.0,0.2770737409591675,-0.1791350841522216
-0.0958004966378212,0.1777475625276565,0.1175399273633956,-0.4444432854652405,-0.005337624810636,0.0988011509180069,0.0,0.0,0.2383582592010498,-0.4850565195083618
-0.0946803092956543,0.167861521244049,0.1075783744454383,-0.4393738806247711,-0.0009522567270323,0.0877071619033813,0.0,0.0,0.3538758754730224,0.6370820999145508
-0.0934090614318847,0.1583868116140365,0.1238183975219726,-0.4210974276065826,0.0023175785318017,0.0653967335820198,0.0,0.0,0.3030085563659668,-0.1292464733123779
-0.0920865982770919,0.1488733440637588,0.1287262141704559,-0.4228293299674988,0.005789553746581,0.0694395452737808,0.0,0.0,0.1730823516845703,-0.7314802408218384
-0.0907058715820312,0.1397032588720321,0.1329739540815353,-0.4075864553451538,0.0108258984982967,0.100726805627346,0.0,0.0,0.3497084379196167,-0.2713977694511413
-0.0893491730093956,0.1310085356235504,0.1306653171777725,-0.3864775002002716,0.0157651882618665,0.0987857058644294,0.0,0.0,0.2712578773498535,0.0857770442962646
-0.0878925323486328,0.1228272318840026,0.1401528567075729,-0.3636793792247772,0.0212072003632783,0.1088401228189468,0.0,0.0,-0.3542519211769104,-0.3526001572608948
-0.0864362716674804,0.1141707748174667,0.1401156485080719,-0.3848201632499695,0.0266493894159793,0.1088437288999557,0.0,0.0,0.4629553556442261,-0.9504292011260986
-0.0850832015275955,0.1061295866966247,0.1278904676437378,-0.3575367927551269,0.0339793711900711,0.1465996950864792,0.0,0.0,0.5726214647293091,-0.7741727828979492
-0.0837552100419998,0.0987444967031478,0.1237050741910934,-0.3284599184989929,0.0429708585143089,0.179829329252243,0.0,0.0,0.0336962938308715,0.9267330169677734
-0.0823087692260742,0.0913184955716133,0.1374086886644363,-0.3302674889564514,0.050121184438467,0.1430067270994186,0.0,0.0,0.3870528936386108,0.0468955039978027
-0.0809945091605186,0.0841875374317169,0.1246500238776207,-0.3171738088130951,0.0568167939782142,0.1339123249053955,0.0,0.0,0.1602134704589843,-0.4217453002929687
-0.0797950774431228,0.0771152377128601,0.1135590299963951,-0.3145806491374969,0.063120424747467,0.1260728985071182,0.0,0.0,0.5783390998840332,0.442762017250061
-0.0786553397774696,0.0703720897436142,0.1076726168394088,-0.2999733686447143,0.0693584457039833,0.1247604265809059,0.0,0.0,0.39214026927948,0.9087579250335692
-0.0774557143449783,0.0638347938656807,0.1154352873563766,-0.2907635569572449,0.0738445743918418,0.0897227749228477,0.0,0.0,0.2719086408615112,0.277551531791687
-0.0761824622750282,0.0572475045919418,0.1222841516137123,-0.2930269241333008,0.0788339301943779,0.0997873246669769,0.0,0.0,0.833125114440918,0.8810263872146606
-0.0747875198721885,0.0513456426560878,0.1359748393297195,-0.2624970078468323,0.0823257118463516,0.0698355287313461,0.0,0.0,0.3081483840942383,0.4075008630752563
-0.0734325423836708,0.0459255799651145,0.1318295896053314,-0.2410978525876999,0.0859553292393684,0.0725923925638198,0.0,0.0,0.2192404270172119,0.8948851823806763
-0.0719798058271408,0.040380273014307,0.1433324515819549,-0.2465679794549942,0.0878836587071418,0.0385666266083717,0.0,0.0,0.553162693977356,0.7361404895782471
