x_pos,y_pos,x_vel,y_vel,angle,ang_vel,leg_1,leg_2,main_booster,lat_booster
-0.0015201568603515,1.4033315181732178,-0.1536418944597244,-0.3372675478458404,0.0014548006001859,0.0286742448806762,0.0,0.0,0.1709868856913643,-0.7379044179402081
-0.0030543326865881,1.3959600925445557,-0.1560631096363067,-0.3276233971118927,0.0040768706239759,0.0524470284581184,0.0,0.0,0.4476522599539105,-0.3313198015292627
-0.0044707297347486,1.388826847076416,-0.144556239247322,-0.3170382678508758,0.0069627496413886,0.0577228963375091,0.0,0.0,0.9456886539427838,0.6874839521068453
-0.0059866905212402,1.3822801113128662,-0.152433305978775,-0.2909714579582214,0.0077966409735381,0.016679149121046,0.0,0.0,0.3067181949009885,0.6533836061124519
-0.0073412894271314,1.3762179613113403,-0.1349369883537292,-0.2694277465343475,0.0072745522484183,-0.0104425391182303,0.0,0.0,-0.310214669851333,-0.3160240189398398
-0.0086957933381199,1.3698627948760986,-0.1346479505300521,-0.282447338104248,0.0064869620837271,-0.0157534722238779,0.0,0.0,-0.3549689235448332,0.7058875850012231
-0.0099972728639841,1.363215446472168,-0.1277330219745636,-0.2954322397708893,0.0041006891988217,-0.0477300696074962,0.0,0.0,-0.0810757134593744,-0.0481243357462618
-0.0112998010590672,1.356275200843811,-0.1276063323020935,-0.3084497451782226,0.0014745199587196,-0.0525284297764301,0.0,0.0,0.2075569562195425,0.5505002023073338
-0.0125715257599949,1.3499658107757568,-0.1231651157140731,-0.2804209887981415,-0.002489467151463,-0.0792868062853813,0.0,0.0,-0.6335504152203968,-0.774541662369513
-0.0139070507138967,1.3433685302734375,-0.1308692991733551,-0.2932194173336029,-0.0051290090195834,-0.0527958087623119,0.0,0.0,-0.6594976488818856,0.4060883359236692
-0.0152456285431981,1.3364787101745603,-0.1310014277696609,-0.3062334656715393,-0.0079671675339341,-0.0567680187523365,0.0,0.0,0.6362009349222626,0.8067061644455596
-0.0164431575685739,1.3300774097442627,-0.1152205318212509,-0.2845324277877807,-0.0124416593462228,-0.0894982665777206,0.0,0.0,0.3525781997882562,-0.9601791216056418
-0.0175907127559185,1.324246168136597,-0.1120875030755996,-0.2591879069805145,-0.0150839649140834,-0.0528506152331829,0.0,0.0,-0.7609085190085141,-0.1095120099338829
-0.0187437050044536,1.318122148513794,-0.1124753206968307,-0.2722100019454956,-0.0178756285458803,-0.0558385550975799,0.0,0.0,0.4270966382462786,-0.091794367416675
-0.0197681430727243,1.312770128250122,-0.1000651344656944,-0.237897127866745,-0.020222945138812,-0.0469504743814468,0.0,0.0,-0.1679763308640378,-0.911293963985327
-0.0208581928163766,1.3071162700653076,-0.1080106869339943,-0.2512997388839721,-0.0212039481848478,-0.0196220893412828,0.0,0.0,0.164411346046702,-0.1949571538774257
-0.0218456275761127,1.3020706176757812,-0.0981141775846481,-0.2242587655782699,-0.0218224432319402,-0.0123711368069052,0.0,0.0,0.4579210993112754,-0.8839116669479901
-0.0227613449096679,1.297217845916748,-0.0928255692124366,-0.2156568616628646,-0.0205861572176218,0.0247281454503536,0.0,0.0,0.3694999671786825,-0.5416201871321727
-0.0236269943416118,1.2930738925933838,-0.0890663564205169,-0.1841397732496261,-0.0181259606033563,0.0492087788879871,0.0,0.0,-0.7925784914091416,-0.9207505816203122
-0.0245842933654785,1.2886390686035156,-0.1002730354666709,-0.197058618068695,-0.013627422042191,0.0899790376424789,0.0,0.0,0.5171538001638509,0.3481751152298429
-0.0254243854433298,1.2849448919296265,-0.089100107550621,-0.1641489714384079,-0.008597987703979,0.1005978137254715,0.0,0.0,0.8284923081079836,-0.5935631625162568
-0.0263032913208007,1.2816896438598633,-0.0942126587033271,-0.1446542888879776,-0.0023472236935049,0.1250264048576355,0.0,0.0,0.5002080001866962,-0.3771451517927022
-0.027073573321104,1.2788832187652588,-0.0839217826724052,-0.1247339099645614,0.0044757598079741,0.136472001671791,0.0,0.0,-0.6408078832479918,-0.1568262611275773
-0.0278544425964355,1.275784611701965,-0.0850389748811721,-0.1377581506967544,0.0113424863666296,0.1373469531536102,0.0,0.0,-0.079061429369887,0.1924906804582402
-0.0286464691162109,1.2723935842514038,-0.086208775639534,-0.1507774144411087,0.0182727891951799,0.1386182755231857,0.0,0.0,0.0528841271373403,0.8979479267829535
-0.0294967647641897,1.2693655490875244,-0.0903209522366523,-0.1346581131219864,0.0235024206340312,0.1045924425125122,0.0,0.0,-0.1703588480624673,-0.4278947090498987
-0.0303583145141601,1.2660449743270874,-0.0915668979287147,-0.1476760655641555,0.0288337469100952,0.1066266447305679,0.0,0.0,0.6103058228307832,0.0974526954459007
-0.03138218075037,1.2636324167251587,-0.1073076352477073,-0.1073233634233474,0.0336954593658447,0.0972343310713768,0.0,0.0,-0.0232947848478159,-0.2975613867944483
-0.0324179641902446,1.260927438735962,-0.1086363941431045,-0.1203411966562271,0.038694005459547,0.0999709293246269,0.0,0.0,0.4178920713540255,0.3864037876636438
-0.0335000045597553,1.258556246757507,-0.1133363470435142,-0.1055277958512306,0.0437625423073768,0.1013708114624023,0.0,0.0,-0.386151432382265,-0.6137738802149241
-0.0346415527164936,1.2558966875076294,-0.1206555813550949,-0.1184109151363372,0.0501823797821998,0.1283967494964599,0.0,0.0,-0.9837868213653564,0.9906823635101318
-0.0357273109257221,1.2529441118240356,-0.113512098789215,-0.1314007192850113,0.0550709962844848,0.0977721363306045,0.0,0.0,-0.994677722454071,0.971581220626831
-0.0367596633732318,1.2497135400772097,-0.1066935434937477,-0.1437086164951324,0.0584880635142326,0.06834127753973,0.0,0.0,-0.9957647919654846,0.9871487617492676
-0.0377347953617572,1.246187686920166,-0.0993967726826667,-0.1567824482917785,0.0603626742959022,0.0374922528862953,0.0,0.0,-0.990276575088501,0.983116626739502
-0.038642980158329,1.2423784732818604,-0.0909095481038093,-0.1693051904439926,0.0604524314403533,0.0017949504544958,0.0,0.0,-0.9839630722999572,0.9788527488708496
-0.0394847877323627,1.2382910251617432,-0.0824787020683288,-0.1815930753946304,0.0587707832455635,-0.0336330644786357,0.0,0.0,-0.925033450126648,0.8768923282623291
-0.0402731895446777,1.233912467956543,-0.0757035464048385,-0.1944830417633056,0.0556696467101573,-0.0620227456092834,0.0,0.0,-0.9204145073890686,0.875184178352356
-0.0410014167428016,1.2292543649673462,-0.0680777579545974,-0.2068587690591812,0.0509747490286827,-0.0938976556062698,0.0,0.0,-0.8883589506149292,0.7426793575286865
-0.0416884422302246,1.2243163585662842,-0.0628140717744827,-0.2192768156528473,0.0451665259897708,-0.1161648482084274,0.0,0.0,-0.9833499789237976,0.4482864141464233
-0.042388629168272,1.2190861701965332,-0.0644225999712944,-0.2322961390018463,0.0396371074020862,-0.110588289797306,0.0,0.0,-0.986613929271698,0.7984737157821655
-0.0430503860116004,1.2135735750198364,-0.0595455951988697,-0.244843915104866,0.0330873504281044,-0.1309952586889267,0.0,0.0,-0.9866751432418824,0.4614818096160888
-0.0437254905700683,1.207768797874451,-0.0611823312938213,-0.2578637897968292,0.0268331263214349,-0.1250842213630676,0.0,0.0,-0.9741932153701782,0.5126352310180664
-0.0443669334053993,1.2016681432724,-0.0569119527935981,-0.2710292637348175,0.0196984149515628,-0.1426946073770523,0.0,0.0,-0.9738258719444276,0.6707496643066406
-0.0449599251151084,1.1952760219573977,-0.0508135482668876,-0.284008651971817,0.0113198263570666,-0.1675715148448944,0.0,0.0,-0.9802964925765992,0.5126235485076904
-0.0455285087227821,1.1885864734649658,-0.0477333553135395,-0.2972646057605743,0.0023072918411344,-0.1802508682012558,0.0,0.0,-0.939803659915924,-0.3304673433303833
-0.0461106300354003,1.181605339050293,-0.0494135245680809,-0.3102869391441345,-0.0063829110004007,-0.1738040149211883,0.0,0.0,-0.992118775844574,-0.3858115673065185
-0.0467062965035438,1.1743321418762207,-0.0511023811995983,-0.3233085572719574,-0.014745308086276,-0.1672476083040237,0.0,0.0,-0.9712094068527222,0.2798746824264526
-0.0473155975341796,1.166767120361328,-0.0527991652488708,-0.3363294899463653,-0.0227748118340969,-0.1605900079011917,0.0,0.0,-0.9961762428283693,-0.0698997974395752
-0.0479385368525981,1.158909797668457,-0.0545031540095806,-0.349349707365036,-0.0304667744785547,-0.1538391858339309,0.0,0.0,-0.9879202246665956,0.2407659292221069
-0.0485750213265419,1.1507604122161863,-0.056213729083538,-0.3623692393302917,-0.037816897034645,-0.1470023691654205,0.0,0.0,-0.9672380685806274,-0.2466733455657959
-0.0492252334952354,1.1423184871673584,-0.0579302981495857,-0.3753881752490997,-0.0448212251067161,-0.1400863826274871,0.0,0.0,-0.7341806888580322,0.2193144559860229
-0.0498890876770019,1.1335842609405518,-0.0596522986888885,-0.3884064555168152,-0.0514760985970497,-0.1330975443124771,0.0,0.0,-0.9943637251853944,-0.5972410440444946
-0.0506053939461708,1.1245570182800293,-0.0662378296256065,-0.4014053046703338,-0.0568061172962188,-0.1066003441810607,0.0,0.0,-0.9621334671974182,-0.2585991024971008
-0.0513354316353797,1.1152368783950806,-0.0679692029953002,-0.4144214689731598,-0.0617802664637565,-0.0994830429553985,0.0,0.0,-0.9543278813362122,-0.0335386991500854
-0.0520791038870811,1.1056241989135742,-0.0697046369314193,-0.4274371266365051,-0.0663957297801971,-0.0923091620206832,0.0,0.0,-0.9660419821739196,0.0298596620559692
-0.0528365150094032,1.0957183837890625,-0.0714437291026115,-0.440452367067337,-0.0706499069929122,-0.085083432495594,0.0,0.0,-0.9513309597969056,-0.651759684085846
-0.0536507591605186,1.085530161857605,-0.0786056667566299,-0.4529443979263305,-0.0734438076615333,-0.0558778718113899,0.0,0.0,-0.6437397599220276,-0.4670420289039612
-0.0544787421822547,1.075048804283142,-0.0803510025143623,-0.4659582376480102,-0.0758718624711036,-0.0485611446201801,0.0,0.0,-0.9343443512916564,-0.3654316663742065
-0.0553205497562885,1.0642743110656738,-0.0820990204811096,-0.4789718687534332,-0.0779320895671844,-0.0412046387791633,0.0,0.0,-0.9618322849273682,-0.339930772781372
-0.0561760887503623,1.0532066822052002,-0.0838494449853897,-0.4919852912425995,-0.0796226933598518,-0.0338118113577365,0.0,0.0,-0.8552001714706421,-0.3810160160064697
-0.0570454597473144,1.0418459177017212,-0.0856019929051399,-0.504998505115509,-0.0809419900178909,-0.0263859294354915,0.0,0.0,-0.7345301508903503,-0.6098821759223938
-0.0579845421016216,1.0302016735076904,-0.0943806022405624,-0.517490565776825,-0.0804704427719116,0.0094306711107492,0.0,0.0,-0.996812641620636,-0.0773879885673523
-0.0589373596012592,1.0182644128799438,-0.096136674284935,-0.530503511428833,-0.0796247497200965,0.0169138591736555,0.0,0.0,-0.9947939515113832,-0.627742350101471
-0.0599514953792095,1.0060405731201172,-0.1038595587015152,-0.5431575775146484,-0.0772020146250724,0.0484547317028045,0.0,0.0,-0.979466676712036,0.7493977546691895
-0.0609198585152626,0.9935109615325928,-0.0981308668851852,-0.5568044185638428,-0.0759163051843643,0.0257141552865505,0.0,0.0,-0.8191602826118469,0.0674118995666503
-0.0619019493460655,0.9806880354881288,-0.0998906269669532,-0.5698175430297852,-0.074253149330616,0.0332634150981903,0.0,0.0,-0.923397958278656,0.568091630935669
-0.0628510490059852,0.9675735235214232,-0.0957923084497451,-0.5828261971473694,-0.0733815655112266,0.0174316875636577,0.0,0.0,-0.9657995700836182,0.156907320022583
-0.0638139694929122,0.9541657567024232,-0.0975534915924072,-0.5958393216133118,-0.0721308961510658,0.0250136610120534,0.0,0.0,-0.9917646050453186,0.5632524490356445
-0.0647438019514083,0.9404661655426024,-0.0934548527002334,-0.6088444590568542,-0.0716707408428192,0.0092031061649322,0.0,0.0,-0.8140496015548706,0.7549240589141846
-0.0656373053789138,0.9264649152755736,-0.0889235362410545,-0.6223056316375732,-0.072099469602108,-0.0085743721574544,0.0,0.0,-0.9280123710632324,-0.6712486147880554
-0.0666055679321289,0.9121796488761902,-0.0983335897326469,-0.6348256468772888,-0.0706062689423561,0.0298639927059412,0.0,0.0,-0.9398127794265748,-0.5982966423034668
-0.0676323920488357,0.8976072072982788,-0.1057133302092552,-0.6475239992141724,-0.067601203918457,0.0601012632250785,0.0,0.0,-0.953604519367218,0.2231765985488891
-0.0686729401350021,0.8827417492866516,-0.1074748486280441,-0.6605380773544312,-0.064214676618576,0.0677307248115539,0.0,0.0,-0.7772964835166931,0.116036057472229
-0.069727137684822,0.8675832152366638,-0.1092358604073524,-0.673552393913269,-0.0604464523494243,0.0753644406795501,0.0,0.0,-0.9020232558250428,-0.3184754848480224
-0.0707951560616493,0.8521316647529602,-0.1109961718320846,-0.6865670084953308,-0.056296419352293,0.0830007344484329,0.0,0.0,-0.9319698810577391,0.6584787368774414
-0.0718192085623741,0.8363754153251648,-0.1055161207914352,-0.7001641392707825,-0.0532244518399238,0.0614393875002861,0.0,0.0,-0.8239839673042297,0.5709578990936279
-0.0728144645690918,0.8203170895576477,-0.1019300371408462,-0.7136219143867493,-0.0508483611047267,0.04752167314291,0.0,0.0,-0.5858289003372192,0.3378480672836303
-0.0738234519958496,0.8039657473564148,-0.1036869660019874,-0.7266361713409424,-0.048090573400259,0.0551559217274189,0.0,0.0,-0.4810496568679809,0.4495956897735595
-0.0748459845781326,0.7873213291168213,-0.1054423823952674,-0.7396507263183594,-0.0449512675404548,0.0627862960100174,0.0,0.0,-0.0838039517402648,0.2278560400009155
-0.0758823379874229,0.7703840732574463,-0.1071960106492042,-0.7526655793190002,-0.0414307080209255,0.0704110562801361,0.0,0.0,-0.6283889412879944,0.2276444435119629
-0.0769323334097862,0.7531539797782898,-0.1089476346969604,-0.765680730342865,-0.0375292859971523,0.0780286937952041,0.0,0.0,0.2009791135787964,0.8500646352767944
-0.0778731331229209,0.7364940047264099,-0.0967267528176307,-0.7403726577758789,-0.034915093332529,0.0522838123142719,0.0,0.0,-0.2662802934646606,0.6956801414489746
-0.0787818878889083,0.7195388674736023,-0.0927313938736915,-0.7535238265991211,-0.0330720171332359,0.0368615202605724,0.0,0.0,-0.3539679050445556,0.7707719802856445
-0.0796486884355545,0.7022910118103027,-0.0875149220228195,-0.7665479779243469,-0.0322428829967975,0.0165824480354785,0.0,0.0,0.4901297092437744,0.557471513748169
-0.080476090312004,0.685697078704834,-0.0828190445899963,-0.7375057339668274,-0.0321716256439685,0.0014250262174755,0.0,0.0,0.2577507495880127,0.5279724597930908
-0.081188678741455,0.6694686412811279,-0.070807047188282,-0.7212677001953125,-0.0326177477836608,-0.008922460488975,0.0,0.0,0.0638875961303711,-0.3844565153121948
-0.0818922966718673,0.6532770991325378,-0.0703666359186172,-0.7196266055107117,-0.0326163470745086,2.8227737857378088e-05,0.0,0.0,0.4150910377502441,0.3256328105926513
-0.0825187712907791,0.637305736541748,-0.0634003654122352,-0.7098263502120972,-0.03187146037817,0.0148978605866432,0.0,0.0,0.3393434286117553,0.6154050827026367
-0.0829641371965408,0.6217264533042908,-0.0446855351328849,-0.6924046874046326,-0.03172317892313,0.0029654505196958,0.0,0.0,-0.5204825401306152,0.1710728406906128
-0.0834229439496994,0.605854332447052,-0.0464044362306594,-0.70541912317276,-0.0312012508511543,0.0104382839053869,0.0,0.0,0.492761492729187,0.4698383808135986
-0.0838788971304893,0.5907070636749268,-0.0464856997132301,-0.67319256067276,-0.0303307138383388,0.0174108780920505,0.0,0.0,0.0967557430267334,0.3712430000305176
-0.0843125358223915,0.5760208964347839,-0.0447069033980369,-0.6526917219161987,-0.0289942473173141,0.0267293807119131,0.0,0.0,-0.854400634765625,-0.3188906908035278
-0.08475923538208,0.5610418319702148,-0.0464068502187728,-0.66570645570755,-0.0272884145379066,0.0341164693236351,0.0,0.0,0.0439592599868774,0.94293212890625
-0.0850630775094032,0.5460628867149353,-0.0305546279996633,-0.6657249927520752,-0.027110643684864,0.0035553954076021,0.0,0.0,0.4578750133514404,-0.0667029023170471
-0.0854141265153884,0.5314667224884033,-0.0354369729757308,-0.6487134695053101,-0.0267814975231885,0.0065827369689941,0.0,0.0,-0.0294604301452636,0.9687321186065674
-0.0856904983520507,0.5165855884552002,-0.026123845949769,-0.6614094376564026,-0.0282849464565515,-0.0300689786672592,0.0,0.0,0.3817571401596069,0.7926826477050781
-0.0859256759285926,0.5021233558654785,-0.020736064761877,-0.6428239941596985,-0.0310324449092149,-0.0549498610198497,0.0,0.0,0.3308801651000976,0.2682411670684814
-0.0862540230154991,0.4883335828781128,-0.0299495495855808,-0.6129406690597534,-0.0338841192424297,-0.0570334494113922,0.0,0.0,-0.8989871144294739,0.8120874166488647
-0.086521528661251,0.474251389503479,-0.0223582331091165,-0.6259822249412537,-0.0382271111011505,-0.0868596583604812,0.0,0.0,-0.4641177654266357,0.4338436126708984
-0.0868017226457595,0.4598764181137085,-0.0239872634410858,-0.6389980912208557,-0.0422156266868114,-0.0797703266143798,0.0,0.0,0.2227746248245239,-0.0724570751190185
-0.0871323570609092,0.4460429251194,-0.0290921423584222,-0.614936113357544,-0.046135701239109,-0.0784016698598861,0.0,0.0,-0.8311604857444763,-0.6683969497680664
-0.0875305160880088,0.4319181442260742,-0.0376014858484268,-0.6278380155563354,-0.0483227111399173,-0.0437404587864875,0.0,0.0,0.8105742931365967,0.7121607065200806
-0.0879915207624435,0.4184945821762085,-0.0424719862639904,-0.596724808216095,-0.0518980808556079,-0.0715076476335525,0.0,0.0,0.3853179216384887,0.6618006229400635
-0.088528536260128,0.4054412841796875,-0.0488479472696781,-0.5803222060203552,-0.0567032732069492,-0.0961038172245025,0.0,0.0,-0.4931626319885254,0.847321629524231
-0.0889986976981163,0.3920936286449432,-0.0404938869178295,-0.5934893488883972,-0.0631520822644233,-0.1289761811494827,0.0,0.0,0.7868945598602295,0.6213738918304443
-0.0893353447318077,0.3790341317653656,-0.0264204554259777,-0.5807477235794067,-0.0703236311674118,-0.1434308290481567,0.0,0.0,0.4756031036376953,-0.868799090385437
-0.089558221399784,0.3667000532150268,-0.0173099022358655,-0.5484234690666199,-0.0752505585551261,-0.0985385105013847,0.0,0.0,0.3255194425582886,-0.6047781109809875
-0.089813232421875,0.3550169765949249,-0.0220319926738739,-0.5194261074066162,-0.0786848962306976,-0.0686865001916885,0.0,0.0,-0.0810402035713195,-0.935571014881134
-0.0901350975036621,0.3430582582950592,-0.0304827932268381,-0.5315878391265869,-0.080372966825962,-0.0337613373994827,0.0,0.0,-0.3361880779266357,0.1317278146743774
-0.0904678329825401,0.3308064341545105,-0.0318922214210033,-0.5446015000343323,-0.0817446336150169,-0.0274331867694854,0.0,0.0,0.6461997032165527,0.0662293434143066
-0.0907519310712814,0.3194785118103027,-0.0273046493530273,-0.5035228133201599,-0.0828383564949035,-0.021874563768506,0.0,0.0,-0.496147096157074,-0.445432960987091
-0.0910462364554405,0.3078574538230896,-0.0286433808505535,-0.5165363550186157,-0.0836264491081237,-0.0157613381743431,0.0,0.0,-0.6189076900482178,0.058833360671997
-0.0913506522774696,0.2959432303905487,-0.0299423988908529,-0.529549777507782,-0.0841146633028984,-0.0097646433860063,0.0,0.0,0.6366044282913208,-0.4579536914825439
-0.0917338356375694,0.284666508436203,-0.0375586450099945,-0.5012277364730835,-0.0848697125911712,-0.0151007743552327,0.0,0.0,-0.6379997730255127,0.6989016532897949
-0.0920829772949218,0.2730893790721893,-0.0333377867937088,-0.5146311521530151,-0.0864337608218193,-0.0312807820737361,0.0,0.0,-0.4094856381416321,0.443281888961792
-0.0924408882856369,0.2612189948558807,-0.0344984829425811,-0.5276448130607605,-0.0877173766493797,-0.0256721023470163,0.0,0.0,0.853506326675415,0.6398639678955078
-0.0926732048392295,0.2499379068613052,-0.0209997314959764,-0.5015156269073486,-0.0899232774972915,-0.0441181547939777,0.0,0.0,0.1697361469268798,-0.5588920712471008
-0.0928330421447753,0.2387311309576034,-0.0153453070670366,-0.498118132352829,-0.0905651077628135,-0.0128363147377967,0.0,0.0,0.658973217010498,-0.4403170347213745
-0.0928406715393066,0.2282436192035675,-0.0008343745721504,-0.4661081731319427,-0.0904961377382278,0.0013796355342492,0.0,0.0,0.5200055837631226,-0.6378681659698486
-0.0928128212690353,0.2185810953378677,0.0011268744710832,-0.4293448030948639,-0.0888503566384315,0.032915361225605,0.0,0.0,-0.3091732263565063,0.5205786228179932
