x_pos,y_pos,x_vel,y_vel,angle,ang_vel,leg_1,leg_2,main_booster,lat_booster
-0.0015129089588299,1.403437614440918,-0.1532583385705948,-0.3325619101524353,0.0017598906997591,0.034715324640274,0.0,0.0,0.4383182545509982,-0.7111324400046672
-0.0030218125320971,1.396390080451965,-0.1541304588317871,-0.3132297098636627,0.0049724937416613,0.064258798956871,0.0,0.0,-0.1225224893474634,-0.6380201207666631
-0.0045588491484522,1.3891501426696775,-0.157941460609436,-0.3217922747135162,0.0091606173664331,0.0837703123688697,0.0,0.0,-0.9158483931929478,-0.9332675939407716
-0.0061729429289698,1.3817194700241089,-0.1678716838359832,,0.0155528280884027,0.1278560012578964,0.0,0.0,0.5840284550324784,0.967598228816656
-0.0075699808076024,1.37504780292511,-0.1444086134433746,-0.2965691685676574,0.0202058758586645,0.093069739639759,0.0,0.0,0.6655166543087321,-0.6118406806712176
-0.0088660242035985,1.3690129518508911,-0.1359187811613083,-0.26832115650177,0.0264505762606859,0.124905489385128,0.0,0.0,-0.3550615255520202,0.8360203853379891
-0.0100878719240427,1.3627938032150269,-0.1268848478794098,-0.2764981389045715,0.0310937631875276,0.0928722023963928,0.0,0.0,0.5069660053868126,0.939904603057542
-0.0110888481140136,1.357285976409912,-0.1030824929475784,-0.2448549419641494,0.0340580530464649,0.0592912510037422,0.0,0.0,0.171821824554887,-0.7482652855340912
-0.0121677396818995,1.3524856567382812,-0.1123653799295425,-0.2134562134742736,0.0384860932826995,0.0885690301656723,0.0,0.0,0.0850691026141849,-0.9706712199767834
-0.0133311273530125,1.3482153415679932,-0.1227599382400512,-0.1899707466363906,0.0448291264474391,0.1268723458051681,0.0,0.0,-0.5734763310906223,-0.9163744801826396
-0.0145456315949559,1.343755125999451,-0.1294192224740982,-0.1984906494617462,0.0527213439345359,0.1578588336706161,0.0,0.0,0.1216978509177226,-0.6715232155336064
-0.0157668106257915,1.3396447896957395,-0.1314955353736877,-0.183034285902977,0.0620089136064052,0.185768574476242,0.0,0.0,0.7672669754948902,-0.8041551140950577
-0.0169342048466205,1.3364813327789309,-0.1280300915241241,-0.1410980969667434,0.073196992278099,0.2237817496061325,0.0,0.0,0.7006244597879581,-0.9229568548411116
-0.0181105621159076,1.333671808242798,-0.130884364247322,-0.1255662441253662,0.0863364934921264,0.2628140747547149,0.0,0.0,0.7056202335891324,0.6052758595010123
-0.0191462524235248,1.3319820165634155,-0.1159872859716415,-0.0758648589253425,0.0986664369702339,0.2466212213039398,0.0,0.0,-0.7714321454765427,-0.9607095050648063
-0.0202322006225585,1.3300869464874268,-0.1225679144263267,-0.085207849740982,0.112555555999279,0.2778075337409973,0.0,0.0,0.1133204822594393,-0.6870893268057872
-0.0213222503662109,1.3288836479187012,-0.1244423612952232,-0.0547212287783622,0.1279228180646896,0.3073733747005462,0.0,0.0,-0.207264202018875,-0.7577991741710357
-0.0224466323852539,1.3274811506271362,-0.1289904117584228,-0.0638325288891792,0.1444366723299026,0.3303069174289703,0.0,0.0,-0.4430772055569401,0.9735308713620904
-0.0234732627868652,1.325923204421997,-0.116911269724369,-0.0706865713000297,0.1586790829896927,0.2848741412162781,0.0,0.0,-0.2671937250185081,-0.8494150165679399
-0.0245645530521869,1.324162840843201,-0.1252462565898895,-0.0800416842103004,0.1748386174440384,0.3232201933860779,0.0,0.0,-0.6163235191523377,-0.8221985360789137
-0.0256965644657611,1.322211503982544,-0.1305613070726394,-0.0888611003756523,0.1922808587551117,0.3488765358924866,0.0,0.0,0.2483926270178662,-0.872116917316667
-0.0269394870847463,1.320548176765442,-0.1433038860559463,-0.0765125975012779,0.2114727646112442,0.383872777223587,0.0,0.0,-0.225495854510477,-0.6765171178352511
-0.0282131191343069,1.3186885118484497,-0.1473598778247833,-0.0856421142816543,0.2317212671041488,0.4050061106681824,0.0,0.0,-0.8977538235162272,-0.926743858272234
-0.029538344591856,1.316615104675293,-0.1540402173995971,-0.0956840217113494,0.2536183297634125,0.4379808306694031,0.0,0.0,0.4683840279577043,-0.7551195861503356
-0.0311917308717966,1.3151183128356934,-0.1879672110080719,-0.0706023424863815,0.2768029272556305,0.4637334942817688,0.0,0.0,-0.1745326470305994,-0.7288295530848248
-0.0329010002315044,1.313395619392395,-0.1952181905508041,-0.081362210214138,0.3018100261688232,0.5001422166824341,0.0,0.0,-0.7748158134716738,-0.6982366132755231
-0.0346539504826068,1.3114742040634155,-0.2007420510053634,-0.0909027904272079,0.328216016292572,0.528119683265686,0.0,0.0,-0.6998611161084227,-0.6303026113569379
-0.0364563949406147,1.3093520402908323,-0.2069496661424636,-0.1006301715970039,0.3561733067035675,0.5591466426849365,0.0,0.0,0.9689583475914024,0.9887697471633928
-0.0386626236140728,1.3083077669143677,-0.244851753115654,-0.0526367351412773,0.3818029165267944,0.5125930309295654,0.0,0.0,-0.4957858210013208,-0.6516509214593125
-0.0409086234867572,1.3070530891418457,-0.249863713979721,-0.0627636834979057,0.4088174998760223,0.5402915477752686,0.0,0.0,-0.555226658036537,-0.9019903233125932
-0.0432118400931358,1.3055893182754517,-0.2569516003131866,-0.0730163902044296,0.437620609998703,0.5760623812675476,0.0,0.0,-0.7732880667481934,0.8960489648332892
-0.045450210571289,1.303982138633728,-0.2486213892698288,-0.0794081836938858,0.4647968411445617,0.5435250401496887,0.0,0.0,-0.3577690355905614,0.7122738003843856
-0.0476393699645996,1.3022346496582031,-0.2422045916318893,-0.0856808200478553,0.4906677901744842,0.5174189209938049,0.0,0.0,0.7612372266078669,-0.9977514133274212
-0.0501345619559288,1.300700545310974,-0.2742798924446106,-0.0772685557603836,0.5185528993606567,0.5577035546302795,0.0,0.0,-0.9950072659454384,-0.9141961427298904
-0.05268345028162,1.2989389896392822,-0.2808713316917419,-0.08848437666893,0.5483105778694153,0.5951536893844604,0.0,0.0,-0.2150458257428713,-0.8068556982374809
-0.055279828608036,1.2969584465026855,-0.2865614593029022,-0.0993326753377914,0.5797178149223328,0.6281461715698242,0.0,0.0,-0.2511159761906714,-0.8577689038084944
-0.0579269416630268,1.2947417497634888,-0.2926845550537109,-0.1111280024051666,0.6130450963973999,0.6665464639663696,0.0,0.0,-0.6928370369440382,-0.7777694654795412
-0.0606178268790245,0.0,-0.2976660430431366,-0.1220773607492446,0.6479290127754211,0.697678804397583,0.0,0.0,0.8748127337771647,-0.7125258081313786
-0.0639675110578537,1.290754318237305,-0.363921195268631,-0.0841134637594223,0.6842383742332458,0.7261885404586792,0.0,0.0,0.2815873849932495,0.8846197343214843
-0.0675393119454383,1.2896653413772583,-0.3838135898113251,-0.0633444488048553,0.718601405620575,0.6872618794441223,0.0,0.0,-0.3946458784327868,0.8504169532399921
-0.0710696205496788,1.288459300994873,-0.3776988387107849,-0.0684308558702468,0.7513920664787292,0.6558143496513367,0.0,0.0,-0.9947136640548706,0.997406005859375
-0.0745264068245887,1.2871687412261963,-0.3676749467849731,-0.0714323595166206,0.781494140625,0.6020411849021912,0.0,0.0,-0.97393000125885,0.9997992515563964
-0.0779089927673339,1.285785675048828,-0.3577888309955597,-0.0747145190834999,0.808996856212616,0.5500538349151611,0.0,0.0,-0.9954167008399964,0.9997168779373168
-0.0812226310372352,1.2843173742294312,-0.3485399484634399,-0.0775332823395729,0.8338598608970642,0.4972597956657409,0.0,0.0,-0.9968783259391784,0.9986965656280518
-0.0844754204154014,1.2827386856079102,-0.3405955731868744,-0.0816507264971733,0.856617271900177,0.4551491737365722,0.0,0.0,-0.9948098063468932,0.997818112373352
-0.0876616463065147,1.2810633182525637,-0.3319632411003113,-0.0848935097455978,0.8769288063049316,0.4062321782112121,0.0,0.0,-0.9949127435684204,0.9962613582611084
-0.0907834023237228,1.2792977094650269,-0.3235959112644195,-0.0877747908234596,0.8947216272354126,0.3558562099933624,0.0,0.0,-0.9939736127853394,0.99864661693573
-0.0938634872436523,1.2774262428283691,-0.3180069029331207,-0.0915897637605667,0.9106149673461914,0.3178668618202209,0.0,0.0,-0.9968730807304382,0.9858531951904296
-0.0969037041068077,1.275444507598877,-0.3126998245716095,-0.0956377312541008,0.9247071743011476,0.2818445265293121,0.0,0.0,-0.998282551765442,0.9948631525039672
-0.0998891815543174,1.2733628749847412,-0.305734246969223,-0.0989388450980186,0.9365688562393188,0.2372331917285919,0.0,0.0,-0.9998703002929688,0.9855520725250244
-0.1028100997209549,1.2712070941925049,-0.2974736094474792,-0.1007264927029609,0.9455830454826356,0.1802845895290374,0.0,0.0,-0.9992532134056092,0.9564297199249268
-0.1056863814592361,1.2689485549926758,-0.2917497456073761,-0.1042095199227333,0.9525625705718994,0.1395903527736663,0.0,0.0,-0.9999147653579712,0.9661970138549804
-0.1084996238350868,1.2666064500808716,-0.2838541269302368,-0.1064745634794235,0.9568780064582824,0.0863081514835357,0.0,0.0,-0.992700219154358,0.9261863231658936
-0.11126708984375,1.2641689777374268,-0.2779790759086609,-0.1095039546489715,0.9589956998825072,0.0423537567257881,0.0,0.0,-0.9991565942764282,0.8265902996063232
-0.1139781028032302,1.2616389989852903,-0.2709272503852844,-0.112280435860157,0.9587005376815796,-0.0059030437842011,0.0,0.0,-0.9998591542243958,0.7029047012329102
-0.1166519150137901,1.258975386619568,-0.2664066553115845,-0.1174515411257743,0.9570222496986388,-0.0335659906268119,0.0,0.0,-0.9996445775032043,0.5730867385864258
-0.119290255010128,1.2561895847320557,-0.2619407474994659,-0.122023768723011,0.9537804126739502,-0.0648367404937744,0.0,0.0,-0.9998441338539124,0.5940961837768555
-0.1218887344002723,0.0,-0.256926417350769,-0.1263108104467392,0.9488227367401124,-0.0991536155343055,0.0,0.0,-0.999748468399048,0.4399228096008301
-0.124478243291378,1.2501962184906006,-0.2560113966464996,-0.1346213668584823,0.943861186504364,-0.0992306694388389,0.0,0.0,-0.999448835849762,0.5232114791870117
-0.127041146159172,1.2469640970230105,-0.2526866793632507,-0.140351265668869,0.9378212690353394,-0.120796725153923,0.0,0.0,-0.9992280006408693,-0.0481332540512084
-0.1295956671237945,1.2435452938079834,-0.2518089413642883,-0.1486624181270599,0.9317777156829834,-0.1208717077970504,0.0,0.0,-0.99393630027771,-0.2552863359451294
-0.1321417838335037,1.2399396896362305,-0.2509525716304779,-0.1569736152887344,0.9257304668426514,-0.1209455356001854,0.0,0.0,-0.9993078112602234,-0.0947294235229492
-0.1346799880266189,1.23614764213562,-0.2501190304756164,-0.1652848273515701,0.919679582118988,-0.1210180297493934,0.0,0.0,-0.9999462962150574,-0.4165231585502624
-0.1372104585170745,1.232168674468994,-0.2493098080158233,-0.173596054315567,0.9136251211166382,-0.1210890784859657,0.0,0.0,-0.9999856352806092,-0.1900655031204223
-0.1397333145141601,1.2280030250549316,-0.2485264837741851,-0.1819073110818863,0.9075672030448914,-0.1211584955453872,0.0,0.0,-0.9994918704032898,-0.3115847110748291
-0.1422490179538726,1.2236506938934326,-0.2477706372737884,-0.1902185827493667,0.9015059471130372,-0.1212260872125625,0.0,0.0,-0.9999505281448364,-0.6014298796653748
-0.1447888314723968,1.2190637588500977,-0.2509973645210266,-0.2013590633869171,0.8967699408531189,-0.0947190597653389,0.0,0.0,-0.99974524974823,-0.5559980273246765
-0.147341251373291,1.214242935180664,-0.2529460787773132,-0.2123484909534454,0.8931517004966736,-0.0723644495010376,0.0,0.0,-0.9998836517333984,-0.1454432010650634
-0.1498870849609375,1.2092351913452148,-0.252284824848175,-0.2206586003303527,0.8895304203033447,-0.0724255442619323,0.0,0.0,-0.9999377727508544,-0.5279603600502014
-0.1524550467729568,1.2039848566055298,-0.2553715407848358,-0.2321851998567581,0.8873180747032166,-0.0442472584545612,0.0,0.0,-0.999917209148407,-0.4039623141288757
-0.1550169885158538,1.198547601699829,-0.2547807991504669,-0.2404949218034744,0.8851029276847839,-0.0443027764558792,0.0,0.0,-0.9999019503593444,-0.3222448229789734
-0.1575736105442047,1.1929234266281128,-0.2542272210121155,-0.2488046288490295,0.8828851580619812,-0.0443551465868949,0.0,0.0,-0.9984275698661804,-0.6080488562583923
-0.1601643562316894,1.1870511770248413,-0.2587338387966156,-0.260711520910263,0.8823524117469788,-0.0106549393385648,0.0,0.0,-0.9999418258666992,-0.4862042665481567
-0.1627503335475921,1.1809918880462646,-0.2582594752311706,-0.2690209746360779,0.8818174004554749,-0.010700698941946,0.0,0.0,-0.9975935816764832,-0.6818435788154602
-0.1653642654418945,0.0,-0.2621166408061981,-0.2811753451824188,0.8829472661018372,0.0225969813764095,0.0,0.0,-0.9795054793357848,-0.5356388688087463
-0.1679943054914474,1.168133020401001,-0.2644425332546234,-0.2920853197574615,0.885179340839386,0.0446419715881347,0.0,0.0,-0.9938396215438844,-0.3608707189559936
-0.1706209182739257,1.161400556564331,-0.2640953660011291,-0.3003951013088226,0.8874096870422363,0.0446074195206165,0.0,0.0,-0.9984013438224792,-0.3252369165420532
-0.1732446700334549,1.1544809341430664,-0.2637928128242492,-0.3087048828601837,0.8896385431289673,0.0445767939090728,0.0,0.0,-0.9994727969169616,-0.2272017002105713
-0.1758658438920974,1.1473745107650757,-0.263535588979721,-0.3170146644115448,0.8918660283088684,0.0445501655340194,0.0,0.0,-0.9995233416557312,-0.1453805565834045
-0.1784850060939788,1.1400810480117798,-0.2633242607116699,-0.3253244757652282,0.8940923810005188,0.044527594000101,0.0,0.0,-0.998019516468048,0.170740008354187
-0.1811024695634842,1.1326005458831787,-0.2631592154502868,-0.3336342871189117,0.8963178396224976,0.0445089787244796,0.0,0.0,-0.999822199344635,-0.2617144584655761
-0.1837188750505447,1.1249333620071411,-0.2630406320095062,-0.3419440984725952,0.898542582988739,0.0444943830370903,0.0,0.0,-0.999600350856781,-0.0153673887252807
-0.1863345205783844,1.1170791387557983,-0.2629685699939728,-0.3502539098262787,0.9007667899131776,0.0444838404655456,0.0,0.0,-0.999817430973053,-0.2910831570625305
-0.1889499723911285,1.1090381145477295,-0.2629428505897522,-0.3585637509822845,0.9029906392097472,0.0444773249328136,0.0,0.0,-0.998281717300415,-0.0638397336006164
-0.1915657073259353,1.100809931755066,-0.2629630863666534,-0.3668736219406128,0.9052143692970276,0.0444747917354106,0.0,0.0,-0.9984489679336548,-0.0264172554016113
-0.1941821128129959,1.0923949480056765,-0.2630287706851959,-0.375183492898941,0.9074381589889526,0.0444759987294673,0.0,0.0,-0.9990761876106262,0.054410696029663
-0.1967996656894683,1.0837931632995603,-0.2631392478942871,-0.3834933638572693,0.9096621870994568,0.0444809682667255,0.0,0.0,-0.9817860722541808,-0.3285516500473022
-0.1994188278913498,1.07500422000885,-0.2632936239242553,-0.3918032646179199,0.9118866920471193,0.0444896854460239,0.0,0.0,-0.9996939897537231,-0.2211765646934509
-0.2020399123430252,1.0660284757614136,-0.2634909451007843,-0.4001131653785705,0.9141117930412292,0.0445016920566558,0.0,0.0,-0.9963385462760924,-0.0088322162628173
-0.2046634703874588,1.056865930557251,-0.2637301087379455,-0.4084230661392212,0.9163376688957214,0.0445174202322959,0.0,0.0,-0.9981841444969176,0.16126549243927
-0.207289844751358,1.0475163459777832,-0.2640098631381988,-0.4167329967021942,0.91856449842453,0.0445364415645599,0.0,0.0,-0.9830737113952636,-0.0467727184295654
-0.2099194526672363,1.0379798412322998,-0.2643288969993591,-0.4250429570674896,0.9207924604415894,0.044558722525835,0.0,0.0,-0.9997469782829284,0.1442459821701049
-0.2125526964664459,1.0282561779022217,-0.2646859288215637,-0.4333528876304626,0.923021674156189,0.0445840954780578,0.0,0.0,-0.9962331652641296,-0.0336759686470031
-0.2151898890733719,1.0183459520339966,-0.2650794386863708,-0.441662847995758,0.9252523183822632,0.0446124747395515,0.0,0.0,-0.9998195767402648,0.0058416128158569
-0.2178313732147216,1.0082485675811768,-0.2655079066753387,-0.4499727785587311,0.9274845123291016,0.0446436814963817,0.0,0.0,-0.999620258808136,0.3986132144927978
-0.2204774916172027,0.997964322566986,-0.2659699022769928,-0.4582827687263489,0.9297184348106384,0.0446778759360313,0.0,0.0,-0.9799999594688416,0.2230342626571655
-0.2231286466121673,0.9874932169914246,-0.2664638757705688,-0.466592788696289,0.9319541454315186,0.0447142980992794,0.0,0.0,-0.996233344078064,0.1759697198867797
-0.2257850170135498,0.9768351912498474,-0.2669882476329803,-0.4749027490615845,0.9341918230056764,0.0447531417012214,0.0,0.0,-0.995042324066162,0.4352273941040039
-0.2284469604492187,0.9659902453422546,-0.2675415873527527,-0.4832127690315246,0.9364315271377563,0.0447943098843097,0.0,0.0,-0.9849401712417604,0.5382034778594971
-0.2310947477817535,0.9550057649612428,-0.2654326856136322,-0.4887935817241668,0.9375240802764891,0.0218515805900096,0.0,0.0,-0.9968419075012208,0.416910171508789
-0.233748584985733,0.9438341856002808,-0.2660397887229919,-0.4971034228801727,0.9386188983917236,0.0218968652188777,0.0,0.0,-0.9930976629257202,0.6335374116897583
-0.2363802939653396,0.9325305819511414,-0.2629787921905517,-0.5022110342979431,0.9383038878440856,-0.0062998845241963,0.0,0.0,-0.9996382594108582,0.3790515661239624
-0.2390184849500656,0.9210401177406312,-0.263633668422699,-0.5105207562446594,0.9379913806915284,-0.006250244565308,0.0,0.0,-0.9975268244743348,0.4130796194076538
-0.2416634559631347,0.9093625545501708,-0.2643104195594787,-0.5188305974006653,0.9376814365386964,-0.0061989682726562,0.0,0.0,-0.9791991710662842,0.6546013355255127
-0.2442828118801117,0.8975712656974792,-0.2606730163097381,-0.5229120850563049,0.9355734586715698,-0.0421598739922046,0.0,0.0,-0.9995583295822144,0.2526004314422607
-0.2469093799591064,0.885593056678772,-0.2613889873027801,-0.5312221050262451,0.933468222618103,-0.0421049520373344,0.0,0.0,-0.9980036616325378,0.4097225666046142
-0.2495432794094085,0.8734278082847595,-0.2621229887008667,-0.5395321249961853,0.9313658475875854,-0.0420479737222194,0.0,0.0,-0.9993939399719238,0.5532045364379883
-0.2521630823612213,0.8611274361610413,-0.2599522471427917,-0.544880211353302,0.9280197024345398,-0.0669227614998817,0.0,0.0,-0.9928930997848512,0.5820262432098389
-0.2547614574432373,0.8487098813056946,-0.2567741870880127,-0.5491784811019897,0.922990381717682,-0.1005861386656761,0.0,0.0,-0.9941968321800232,0.2773972749710083
-0.2573678493499756,0.8361055254936218,-0.2575534582138061,-0.5574895739555359,0.9179641604423524,-0.1005241423845291,0.0,0.0,-0.9980857372283936,0.4558820724487304
-0.2599822878837585,0.8233144283294678,-0.2583464384078979,-0.5658007264137268,0.9129411578178406,-0.1004604250192642,0.0,0.0,-0.998089611530304,0.4746996164321899
-0.2626050114631653,0.810336709022522,-0.259152203798294,-0.5741118788719177,0.9079214334487916,-0.1003950461745262,0.0,0.0,-0.9986592531204224,0.7147667407989502
-0.2651961743831634,0.7972432374954224,-0.2548102140426636,-0.5782746076583862,0.9010347723960876,-0.1377334743738174,0.0,0.0,-0.9979999661445618,0.5768771171569824
-0.2677748203277588,0.7840051054954529,-0.2528424859046936,-0.5841638445854187,0.8930869102478027,-0.1589569896459579,0.0,0.0,-0.997644066810608,0.2234874963760376
-0.2703622281551361,0.7705804705619812,-0.2536775171756744,-0.5924769639968872,0.8851426243782043,-0.1588861048221588,0.0,0.0,-0.984953999519348,0.647606372833252
-0.2729282975196838,0.7570247054100037,-0.2505608201026916,-0.5975882411003113,0.8757639527320862,-0.1875733435153961,0.0,0.0,-0.9947069883346558,0.3925447463989258
-0.275503545999527,0.7432827353477478,-0.2514115571975708,-0.6059027314186096,0.8663890361785889,-0.187498390674591,0.0,0.0,-0.987445831298828,0.7479983568191528
-0.2780396044254303,0.7294301390647888,-0.2460485249757766,-0.6098054051399231,0.8549420237541199,-0.2289406508207321,0.0,0.0,-0.9911569356918336,0.3681262731552124
-0.2805851995944977,0.7153918147087097,-0.2469104975461959,-0.6181224584579468,0.843498945236206,-0.2288611233234405,0.0,0.0,-0.942114233970642,0.1826547384262085
-0.2831405103206634,0.701167643070221,-0.2477792799472808,-0.62643963098526,0.8320599794387817,-0.2287797182798385,0.0,0.0,-0.9822495579719543,0.3298176527023315
-0.2857055068016052,0.686757504940033,-0.2486542016267776,-0.6347568035125732,0.8206251263618469,-0.2286965101957321,0.0,0.0,-0.9767277836799622,0.3264498710632324
