x_pos,y_pos,x_vel,y_vel,angle,ang_vel,leg_1,leg_2,main_booster,lat_booster
-0.0014958381652832,1.4030647277832031,-0.1507872343063354,-0.349130779504776,0.001074056723155,0.0211357735097408,0.0,0.0,-0.1791775822639465,0.9160912036895752
-0.0028857230208814,1.3946683406829834,-0.1373635381460189,-0.3731746971607208,-0.0005266115767881,-0.0320157893002033,0.0,0.0,0.1926900148391723,-0.0748121738433837
-0.0041508674621582,1.3861489295959473,-0.1246703416109085,-0.3786381483078003,-0.0023434453178197,-0.0363404303789138,0.0,0.0,-0.0418007969856262,0.0919684171676635
-0.0053876875899732,1.3770697116851809,-0.1211563348770141,-0.4035257399082184,-0.0048420401290059,-0.0499765612185001,0.0,0.0,-0.0790881514549255,0.1658985614776611
-0.0065961838699877,1.3674309253692627,-0.1176315993070602,-0.4284053146839142,-0.0080226836726069,-0.0636189132928848,0.0,0.0,0.0189334154129028,0.0299967527389526
-0.0076889037154614,1.3577340841293335,-0.1057723760604858,-0.4309999644756317,-0.0114820189774036,-0.0691931545734405,0.0,0.0,-0.1499143838882446,0.5697588920593262
-0.0087099075317382,1.347476840019226,-0.0968155339360237,-0.4559272229671478,-0.0167117938399314,-0.1046048253774643,0.0,0.0,0.3422015905380249,0.4887402057647705
-0.0095721241086721,1.3374457359313965,-0.0808281376957893,-0.4459017217159271,-0.0220475737005472,-0.1067252904176712,0.0,0.0,-0.4044427871704101,-0.3940454125404358
-0.0104056354612112,1.326855182647705,-0.0772683918476104,-0.4707917869091034,-0.0280699599534273,-0.1204589456319809,0.0,0.0,-0.8202913999557495,-0.80742347240448
-0.0112741468474268,1.3157131671905518,-0.0816776752471923,-0.4952999353408813,-0.0331763178110122,-0.1021365970373153,0.0,0.0,-0.7573490142822266,-0.8352123498916626
-0.0121701238676905,1.3040156364440918,-0.085179753601551,,-0.037551861256361,-0.0875189155340194,0.0,0.0,0.4565269947052002,-0.8193759918212891
-0.0130146024748682,1.292454719543457,-0.081077367067337,-0.5139045119285583,-0.0408867970108985,-0.0667046755552291,0.0,0.0,-0.8118640780448914,-0.2563678622245788
-0.013830279931426,1.28033447265625,-0.077505275607109,-0.5387935638427734,-0.0449111498892307,-0.0804943069815635,0.0,0.0,-0.0379248261451721,-0.6724494695663452
-0.0146642681211233,1.2676520347595217,-0.0798309966921806,-0.5637768507003784,-0.0484439395368099,-0.0706620663404464,0.0,0.0,0.1502778530120849,-0.8908191323280334
-0.0153969768434762,1.2552762031555176,-0.0708430707454681,-0.5501152873039246,-0.0508481562137603,-0.0480885580182075,0.0,0.0,-0.1518316268920898,-0.9708312749862672
-0.0161639209836721,1.2423343658447266,-0.0751567557454109,-0.5752458572387695,-0.0523682944476604,-0.0304057635366916,0.0,0.0,-0.0823010206222534,-0.8339336514472961
-0.0169524196535348,1.2288471460342407,-0.0779059156775474,-0.5994726419448853,-0.0532997325062751,-0.0186304990202188,0.0,0.0,-0.081725537776947,-0.785469651222229
-0.0177596099674701,1.2147974967956543,-0.0802841931581497,-0.6244434714317322,-0.0537317655980587,-0.0086411191150546,0.0,0.0,-0.2671777606010437,-0.7069731950759888
-0.0185845382511615,1.2001991271972656,-0.0825490653514862,-0.6488191485404968,-0.0536751598119735,0.0011319591430947,0.0,0.0,-0.5502269268035889,-0.1794723272323608
-0.0193806644529104,1.1850413084030151,-0.0789702385663986,-0.6737025380134583,-0.0543095581233501,-0.0126891983672976,0.0,0.0,0.6138622760772705,-0.8056567907333374
-0.0200334545224905,1.170423984527588,-0.0658077001571655,-0.6496344804763794,-0.0537891946732997,0.0104082124307751,0.0,0.0,-0.5540520548820496,-0.6052265763282776
-0.0207044593989849,1.155247688293457,-0.0681194216012954,-0.6744678020477295,-0.0527809932827949,0.0201659370213747,0.0,0.0,-0.7573322057723999,-0.4116609096527099
-0.0213466640561819,1.139512062072754,-0.0645415186882019,-0.6993469595909119,-0.052462987601757,0.0063607380725443,0.0,0.0,0.2458081245422363,-0.729817271232605
-0.0219463352113962,1.1235616207122805,-0.061134785413742,-0.7088711261749268,-0.0513080134987831,0.0231017433106899,0.0,0.0,-0.7594290971755981,-0.7859408855438232
-0.022593880072236,1.1070598363876345,-0.0671804994344711,-0.7333315014839172,-0.048910167068243,0.0479614064097404,0.0,0.0,-0.428178071975708,-0.4356424212455749
-0.0232132915407419,1.0899772644042969,-0.0636785924434661,-0.7591666579246521,-0.0472010560333728,0.0341823734343051,0.0,0.0,0.1476857662200927,-0.7017677426338196
-0.0238325111567974,1.0730996131896973,-0.0643698498606681,-0.7500384449958801,-0.0447791628539562,0.0484377369284629,0.0,0.0,0.1148924827575683,-0.3352836370468139
-0.0244860649108886,1.0565032958984375,-0.0666990354657173,-0.7375782132148743,-0.0434518232941627,0.0265465322881937,0.0,0.0,0.0257138013839721,0.2306936979293823
-0.0251708980649709,1.0400735139846802,-0.0687538236379623,-0.7302060723304749,-0.0431847758591175,0.0053412625566124,0.0,0.0,0.0591694116592407,-0.5801108479499817
-0.0258744247257709,1.0235545635223389,-0.0710815787315368,-0.7341561913490295,-0.042470209300518,0.0142912473529577,0.0,0.0,0.6020960807800293,0.1576008796691894
-0.0264963153749704,1.0077053308486938,-0.0623042173683643,-0.7044028043746948,-0.0423544831573963,0.0023145081941038,0.0,0.0,-0.2765796184539795,-0.6690126061439514
-0.0271492954343557,0.9912968277931212,-0.0662531703710556,-0.7292454838752747,-0.0414177142083644,0.0187354758381843,0.0,0.0,-0.1606621146202087,-0.4804850816726684
-0.0277737621217966,0.9743288159370422,-0.0627024620771408,-0.7541264891624451,-0.0411604531109333,0.0051452489569783,0.0,0.0,-0.2224540710449218,-0.4548228979110718
-0.0283696167171001,0.9568014740943908,-0.0591579303145408,-0.7790074944496155,-0.0415807776153087,-0.0084063811227679,0.0,0.0,0.3103036880493164,-0.5487446784973145
-0.0289454460144042,0.9394630789756776,-0.0576160438358783,-0.7705902457237244,-0.0415544956922531,0.000525624200236,0.0,0.0,0.0797510147094726,-0.7838067412376404
-0.029520321637392,0.9223151206970216,-0.0584240444004535,-0.7621073126792908,-0.0406332686543464,0.0184245929121971,0.0,0.0,0.4038611650466919,-0.7507815361022949
-0.030135441571474,0.9051889181137084,-0.0632367432117462,-0.7611197233200073,-0.038927637040615,0.0341128334403038,0.0,0.0,0.1828545331954956,0.2135474681854248
-0.0306737907230854,0.8883184790611267,-0.0550059750676155,-0.7497633695602417,-0.0377635955810546,0.0232805553823709,0.0,0.0,-0.2479479908943176,-0.063937246799469
-0.0311838146299123,0.8708886504173279,-0.0515037775039672,-0.774644136428833,-0.0372641868889331,0.0099881403148174,0.0,0.0,-0.0352681279182434,-0.0668939352035522
-0.0316656120121479,0.8528995513916016,-0.0480127856135368,-0.79952472448349,-0.0374259948730468,-0.0032361976336687,0.0,0.0,-0.2033407688140869,-0.0568711161613464
-0.0321192741394043,0.8343508243560791,-0.0445341058075428,-0.8244053721427917,-0.0382452718913555,-0.0163858588784933,0.0,0.0,0.0725073814392089,-0.6678764224052429
-0.0324938781559467,0.8157486319541931,-0.0374096632003784,-0.8267742991447449,-0.0382912307977676,-0.0009194017620757,0.0,0.0,0.2729462385177612,0.1644009351730346
-0.0327564254403114,0.7969446778297424,-0.025903707370162,-0.8357397317886353,-0.038639809936285,-0.0069715403951704,0.0,0.0,0.5862410068511963,0.1556531190872192
-0.0328762046992778,0.7783364653587341,-0.0114281345158815,-0.8270437717437744,-0.0391913801431655,-0.0110313678160309,0.0,0.0,0.3657422065734863,-0.1116288304328918
-0.0329924598336219,0.7595357894897461,-0.0102573307231068,-0.8356238007545471,-0.0405369438230991,-0.0269113294780254,0.0,0.0,0.6256301403045654,-0.8280961513519287
-0.0330832488834857,0.7406609058380127,-0.0088337156921625,-0.8388894200325012,-0.0407856106758117,-0.0049730669707059,0.0,0.0,-0.0803619623184204,-0.3341903686523437
-0.0331466682255268,0.721226692199707,-0.0054585142061114,-0.8637701869010925,-0.0416604839265346,-0.0174973607063293,0.0,0.0,-0.0917021632194519,-0.5649943351745605
-0.033235739916563,0.7012424468994141,-0.0087412633001804,-0.8881966471672058,-0.0418198183178901,-0.0031868636142462,0.0,0.0,0.359116792678833,0.3239609003067016
-0.0333796516060829,0.6816772222518921,-0.0130963008850812,-0.8696011900901794,-0.0430953837931156,-0.0255115590989589,0.0,0.0,0.1083111763000488,-0.3709186315536499
-0.0334960930049419,0.6620649099349976,-0.0096792737022042,-0.8717170357704163,-0.0450395494699478,-0.0388833321630954,0.0,0.0,0.6808903217315674,-0.6373944878578186
-0.033452320843935,0.6427564024925232,0.0052846819162368,-0.8581854104995728,-0.0459362268447876,-0.017933715134859,0.0,0.0,0.7336728572845459,-0.1046916842460632
-0.0334070213139057,0.624051034450531,0.0063174231909215,-0.831407368183136,-0.0476959086954593,-0.0351936593651771,0.0,0.0,-0.0640609860420227,-0.6265977621078491
-0.0333761200308799,0.6047857403755188,0.0044162385165691,-0.856281578540802,-0.0490083396434783,-0.0262487586587667,0.0,0.0,0.305159330368042,-0.2132630348205566
-0.0332859046757221,0.5859048366546631,0.0109017034992575,-0.8392102718353271,-0.0508695878088474,-0.0372249074280262,0.0,0.0,0.6305193901062012,-0.7255235910415649
-0.0330421440303325,0.5671748518943787,0.0250365287065505,-0.8324661254882812,-0.0515120662748813,-0.0128497276455163,0.0,0.0,0.4407093524932861,-0.4573886394500732
-0.0328350067138671,0.5485074520111084,0.0222858618944883,-0.8297175168991089,-0.0530732683837413,-0.0312237981706857,0.0,0.0,0.6765236854553223,-0.7604278922080994
-0.0325153358280658,0.5304955244064331,0.0323328003287315,-0.8005433678627014,-0.0534326583147048,-0.0071880654431879,0.0,0.0,0.1130828857421875,-0.853061854839325
-0.0321059226989746,0.5126050114631653,0.0400572605431079,-0.7951042652130127,-0.0525539368391037,0.0175742208957672,0.0,0.0,0.1642429828643798,-0.8231775760650635
-0.0316460616886615,0.49503293633461,0.0438908971846103,-0.7809075713157654,-0.0504784397780895,0.0415098033845424,0.0,0.0,-0.0850221514701843,-0.6887330412864685
-0.0312236789613962,0.4769121408462524,0.0390419214963912,-0.8052625060081482,-0.0473219156265258,0.0631305500864982,0.0,0.0,0.9154649972915648,-0.6655834317207336
-0.0307469367980957,0.4588688313961029,0.0434181876480579,-0.80179762840271,-0.0431230552494525,0.0839773789048194,0.0,0.0,0.918632745742798,-0.5027458071708679
-0.0303753856569528,0.4415001273155212,0.0327053517103195,-0.7718227505683899,-0.0387162864208221,0.0881351754069328,0.0,0.0,0.9489911794662476,-0.3483138084411621
-0.0298125259578228,0.4244780540466308,0.0515327826142311,-0.756419837474823,-0.034032255411148,0.093680702149868,0.0,0.0,0.8028794527053833,-0.0934142470359802
-0.0291801448911428,0.4078981876373291,0.0587550774216651,-0.7367912530899048,-0.0296005457639694,0.08863415569067,0.0,0.0,0.872768759727478,-0.1913119554519653
-0.0285049434751272,0.39143967628479,0.0633415356278419,-0.731410026550293,-0.0254722069948911,0.0825668424367904,0.0,0.0,0.9088246822357178,-0.512336015701294
-0.0279844291508197,0.3754534125328064,0.0476138591766357,-0.710433840751648,-0.0210930071771144,0.0875841528177261,0.0,0.0,0.9190919399261476,-0.1321611404418945
-0.0273991581052541,0.3603976368904114,0.0542659647762775,-0.6690901517868042,-0.0168844871222972,0.084170177578926,0.0,0.0,0.72652268409729,0.3879945278167724
-0.0267048832029104,0.3452385663986206,0.0650129839777946,-0.6736913323402405,-0.0125339506193995,0.0870107561349868,0.0,0.0,0.8565797805786133,-0.2932898998260498
-0.0259512905031442,0.3309584259986877,0.0710403025150299,-0.6346461772918701,-0.0082650193944573,0.0853786021471023,0.0,0.0,0.5579946041107178,0.1274806261062622
-0.0252666473388671,0.3167893588542938,0.0647434517741203,-0.6297218799591064,-0.0045950706116855,0.0733990892767906,0.0,0.0,0.8038206100463867,-0.3653947114944458
-0.0246639251708984,0.30317023396492,0.0571781881153583,-0.6052869558334351,-0.0015425608726218,0.0610502362251281,0.0,0.0,0.8435553312301636,-0.0703102946281433
-0.0240119937807321,0.2900331318378448,0.06205840036273,-0.5838724970817566,0.0015507030766457,0.0618651993572711,0.0,0.0,0.541191577911377,-0.1393405199050903
-0.0234687812626361,0.2775177359580993,0.0518276765942573,-0.5562422871589661,0.004006321541965,0.049112431704998,0.0,0.0,0.6768379211425781,-0.292772889137268
-0.0228421203792095,0.2653222680091858,0.0598836950957775,-0.5420288443565369,0.0067619564943015,0.0551126711070537,0.0,0.0,0.4289149045944214,-0.0040765404701232
-0.0222367290407419,0.2530742883682251,0.0578898303210735,-0.5443711876869202,0.0093745607882738,0.052252322435379,0.0,0.0,0.6629538536071777,-0.4768587350845337
-0.021557331085205,0.2407583743333816,0.0649488940834999,-0.5473974943161011,0.0123327067121863,0.0591626353561878,0.0,0.0,0.7063617706298828,-0.1671468019485473
-0.0209074970334768,0.2284079939126968,0.0620720610022544,-0.5489329695701599,0.0152056589722633,0.0574590750038623,0.0,0.0,0.8639063835144043,0.000762939453125
-0.0202747341245412,0.2168398648500442,0.0603004768490791,-0.5141707062721252,0.0181371327489614,0.0586295649409294,0.0,0.0,0.4799766540527344,-0.425936758518219
-0.0195791237056255,0.2058101296424865,0.0661151409149169,-0.4902577996253967,0.0215382762253284,0.0680229738354682,0.0,0.0,0.4472814798355102,-0.6194597482681274
-0.019052505493164,0.1952957212924957,0.0480264313519001,-0.4673786759376526,0.0261186491698026,0.0916074216365814,0.0,0.0,0.5238387584686279,-0.5051828622817993
-0.0187000278383493,0.1846683174371719,0.0297162532806396,-0.4724351763725281,0.0315749980509281,0.1091270446777343,0.0,0.0,0.7411328554153442,0.1420300006866455
-0.0183314327150583,0.1747327595949173,0.0308984108269214,-0.4417205452919006,0.0374678634107112,0.1178573369979858,0.0,0.0,0.5395903587341309,0.5798341035842896
-0.0180405620485544,0.1650385409593582,0.0242631044238805,-0.4309815764427185,0.0422360002994537,0.0953624695539474,0.0,0.0,0.7468540668487549,-0.0024130344390869
-0.0178406722843647,0.1558553725481033,0.0151233002543449,-0.4082826375961303,0.0470377020537853,0.096034325659275,0.0,0.0,0.6646580696105957,-0.0259525179862976
-0.0176902767270803,0.1471678763628006,0.0098961973562836,-0.3862810134887695,0.0521142445504665,0.1015309244394302,0.0,0.0,0.4879713058471679,0.7015498876571655
-0.0174311641603708,0.1387172788381576,0.0216704197227954,-0.375735342502594,0.0563137270510196,0.0839896127581596,0.0,0.0,0.5400041341781616,-0.2119241952896118
-0.0171750076115131,0.1301872134208679,0.0208781454712152,-0.3793004155158996,0.0609991140663623,0.0937077403068542,0.0,0.0,0.6855206489562988,-0.0002413988113403
-0.016857910901308,0.1217216551303863,0.0261222478002309,-0.3764817118644714,0.0665303170680999,0.110624074935913,0.0,0.0,0.6630616188049316,0.5683063268661499
-0.0163850784301757,0.1135776862502098,0.0419870764017105,-0.3621982932090759,0.0717695727944374,0.1047852262854576,0.0,0.0,0.6133379936218262,0.2603957653045654
-0.01581497117877,0.1054657548666,0.0506165623664855,-0.360852301120758,0.0780906379222869,0.1264214813709259,0.0,0.0,0.466752290725708,-0.2871899604797363
-0.0153141021728515,0.097791850566864,0.0432487092912197,-0.3414332270622253,0.0848603919148445,0.1353953927755355,0.0,0.0,0.3855727910995483,0.4411901235580444
-0.0148546220734715,0.0905135497450828,0.0385044887661933,-0.3239209353923797,0.0922406166791915,0.1476045697927475,0.0,0.0,0.520068883895874,0.5862977504730225
-0.0142962457612156,0.0836191996932029,0.0487698167562484,-0.3068658709526062,0.0992474630475044,0.140137106180191,0.0,0.0,0.4201169013977051,-0.4502493143081665
-0.0136947631835937,0.0765983164310455,0.0521553345024585,-0.3125928342342376,0.1071786433458328,0.1586234122514724,0.0,0.0,0.138484239578247,0.7704188823699951
-0.0131277088075876,0.0695433244109153,0.0497638545930385,-0.3140667676925659,0.1140784546732902,0.1379963010549545,0.0,0.0,0.7167222499847412,0.2993273735046386
-0.0125924106687307,0.0632812604308128,0.0456217750906944,-0.2789392173290252,0.1219364628195762,0.1571601331233978,0.0,0.0,0.2442384958267212,0.7888282537460327
-0.0120851518586277,0.0571065992116928,0.0438622087240219,-0.2750032842159271,0.1287632584571838,0.1365356743335724,0.0,0.0,0.7417097091674805,0.096871018409729
-0.0118345264345407,0.0515961274504661,0.0182440839707851,-0.2455157488584518,0.1355583667755127,0.1359021067619323,0.0,0.0,0.8070136308670044,0.9613956212997437
-0.0115264896303415,0.0467034913599491,0.0251719765365123,-0.2179712504148483,0.1411783248186111,0.1123988777399063,0.0,0.0,0.5427380800247192,0.8729689121246338
-0.0113249775022268,0.0423019491136074,0.0157491229474544,-0.1960456669330597,0.1455690115690231,0.0878135710954666,0.0,0.0,0.4516195058822632,0.9206629991531372
-0.0112501140683889,0.0383229106664657,0.0044107851572334,-0.1771524399518966,0.1486357897520065,0.0613359436392784,0.0,0.0,0.2512122392654419,0.94744610786438
-0.0111997602507472,0.0343533866107463,0.0032551623880863,-0.1765999346971511,0.1504123359918594,0.0355309695005416,0.0,0.0,0.538442850112915,0.7629251480102539
-0.0113146780058741,0.0306432098150253,-0.0121491402387619,-0.164963960647583,0.1510747671127319,0.0132485833019018,0.0,0.0,0.5347402095794678,0.9625626802444458
-0.0116066932678222,0.0270752292126417,-0.0283967442810535,-0.1584966033697128,0.150273323059082,-0.016028769314289,0.0,0.0,0.5455324649810791,0.944066286087036
-0.0118379592895507,0.0239932630211114,-0.021192442625761,-0.1367831379175186,0.1483387947082519,-0.0386904366314411,0.0,0.0,0.6529026031494141,0.8128095865249634
-0.0120156286284327,0.0209227427840232,-0.0149603514000773,-0.1361896991729736,0.1455385088920593,-0.0560055896639823,0.0,0.0,0.4089599847793579,0.794994592666626
-0.0121124265715479,0.0183094125241041,-0.0061031794175505,-0.1158009842038154,0.1419776529073715,-0.071217305958271,0.0,0.0,0.2076056003570556,0.6907849311828613
-0.0122784618288278,0.0159933418035507,-0.0122758382931351,-0.1025285571813583,0.1376557201147079,-0.0864386856555938,0.0,0.0,0.081135869026184,0.641434907913208
-0.012435627169907,0.0143730733543634,-0.0015620521735399,-0.0707644149661064,0.1235706582665443,-0.2817017138004303,0.0,1.0,0.2882013320922851,0.3733329772949219
-0.0125895496457815,0.012879405170679,-0.0015009066555649,-0.0652941465377807,0.1097609177231788,-0.27619469165802,0.0,1.0,0.2738443613052368,0.3764042854309082
-0.0128181455656886,0.0117661813274025,-0.0089186122640967,-0.0485112853348255,0.0959256738424301,-0.2767048180103302,0.0,1.0,0.0760585069656372,0.0770571231842041
-0.0130566600710153,0.0108672473579645,-0.0100786881521344,-0.0391253903508186,0.0822734162211418,-0.2730452716350555,0.0,0.0,-0.7373917102813721,0.5704652070999146
-0.0132687566801905,0.009415385313332,-0.0067822583951056,-0.063798151910305,0.0679896920919418,-0.2856743037700653,0.0,0.0,-0.5635915398597717,0.3742398023605346
-0.0135059356689453,0.0074068759568035,-0.0099340984597802,-0.0886975303292274,0.0543658100068569,-0.2724778056144714,0.0,0.0,-0.236993134021759,0.3147940635681152
-0.013768196105957,0.0048413965851068,-0.0131154181435704,-0.1135946437716484,0.0414049960672855,-0.2592162787914276,0.0,0.0,-0.0595759153366088,-0.1035807132720947
-0.0140559198334813,0.0017186617478728,-0.016323734074831,-0.1384895592927932,0.0291102267801761,-0.2458955496549606,0.0,0.0,0.5398247241973877,-0.2206400036811828
-0.0144072528928518,-0.0008758926414884,-0.0143465278670191,-0.1150526255369186,0.0085248621180653,-0.4117744565010071,0.0,1.0,0.4602482318878174,0.1232208013534545
-0.0146495820954442,-0.0035236978437751,-0.0033229938708245,-0.1177021041512489,-0.0121497884392738,-0.4135438501834869,1.0,1.0,0.925190567970276,-0.3977693915367126
-0.0147348400205373,-0.0049883984029293,0.0035417273174971,-0.0655499026179313,-0.0228862818330526,-0.2132377922534942,1.0,1.0,0.5161864757537842,0.0185624361038208
-0.0146981235593557,-0.0051845572888851,0.0041833180002868,-0.0087443888187408,-0.0233852658420801,-0.0099694402888417,1.0,1.0,-0.5504140257835388,-0.0306561589241027
-0.0146934511139988,-0.0051304483786225,-0.0031366366893053,0.0024525977205485,-0.0198226328939199,0.0712547078728675,1.0,1.0,-0.2157219052314758,0.2511601448059082
