x_pos,y_pos,x_vel,y_vel,angle,ang_vel,leg_1,leg_2,main_booster,lat_booster
-0.0015707969432696,1.4033747911453247,-0.1591159403324127,-0.3353458344936371,0.0018247156403958,0.0359986200928688,0.0,0.0,-0.6150789260864258,0.8099575042724609
-0.0031193732284009,1.3955992460250854,-0.1549245119094848,-0.3455782532691955,0.0018874492961913,0.0012554010609164,0.0,0.0,0.1996421813964843,0.4575395584106445
-0.004617691040039,1.3880138397216797,-0.1503825783729553,-0.3371284902095794,0.0024413431528955,0.0110790012404322,0.0,0.0,0.2843191623687744,0.7354118824005127
-0.0062083243392407,1.3807587623596191,-0.15802663564682,-0.3224492073059082,0.0014098156243562,-0.020632330328226,0.0,0.0,-0.3674564361572265,0.1993037462234497
-0.0078435894101858,1.3732539415359497,-0.162502110004425,-0.3335475027561188,0.0004088847490493,-0.0200206637382507,0.0,0.0,-0.3488468527793884,0.7078301906585693
-0.0094539644196629,1.3654985427856443,-0.158318430185318,-0.3446835279464721,-0.0022803035099059,-0.05378869920969,0.0,0.0,-0.0839947462081909,0.7890582084655762
-0.0110471723601222,1.3574936389923096,-0.1551112085580825,-0.3557906448841095,-0.0064387931488454,-0.0831779390573501,0.0,0.0,-0.5051872134208679,0.5286186933517456
-0.0126299858093261,1.3492403030395508,-0.1527844965457916,-0.3668467402458191,-0.0118673564866185,-0.1085810512304306,0.0,0.0,-0.5116192102432251,-0.1454434394836425
-0.0142530445009469,1.3407378196716309,-0.1568584740161895,-0.3779442012310028,-0.0172584243118762,-0.107831560075283,0.0,0.0,-0.6000370979309082,0.5360208749771118
-0.0158731453120708,1.3319883346557615,-0.1555214375257492,-0.3889538049697876,-0.0236715171486139,-0.1282734721899032,0.0,0.0,-0.0719435811042785,0.5107090473175049
-0.0174851417541503,1.322988510131836,-0.1535781323909759,-0.4001272320747375,-0.0312007348984479,-0.150598332285881,0.0,0.0,-0.115320086479187,0.3694069385528564
-0.0191334728151559,1.3137400150299072,-0.1572626084089279,-0.4112268090248108,-0.0386882200837135,-0.1497633159160614,0.0,0.0,0.1673527956008911,0.3562301397323608
-0.0207056049257516,1.3049778938293457,-0.1501263082027435,-0.3896284401416778,-0.0456983745098114,-0.1402160376310348,0.0,0.0,-0.0686982870101928,0.4707149267196655
-0.0223110206425189,1.295966625213623,-0.1535070985555648,-0.4007338881492615,-0.0526656471192836,-0.1393580585718155,0.0,0.0,-0.5489686727523804,0.4698743820190429
-0.0239480976015329,1.2867063283920288,-0.156718224287033,-0.4118312895298004,-0.0595888271927833,-0.1384764015674591,0.0,0.0,-0.1829127073287964,0.5656988620758057
-0.0255626682192087,1.2771856784820557,-0.153169110417366,-0.4234884679317474,-0.0677966400980949,-0.1641713827848434,0.0,0.0,-0.3850017786026001,0.8557944297790527
-0.0271217338740825,1.2674179077148438,-0.1455729901790619,-0.4346181154251098,-0.0780455246567726,-0.2049963027238845,0.0,0.0,-0.5543567538261414,0.2629954814910888
-0.0287065505981445,1.2574018239974976,-0.1482029110193252,-0.4457227885723114,-0.0882483124732971,-0.2040739506483078,0.0,0.0,0.1732691526412964,0.5278029441833496
-0.0301475524902343,1.2479788064956665,-0.1329711377620697,-0.4194934070110321,-0.0993009433150291,-0.2210722863674163,0.0,0.0,-0.4276347756385803,-0.6159272193908691
-0.0316648483276367,1.2383151054382324,-0.1420561522245407,-0.4301627874374389,-0.1089174598455429,-0.1923477351665496,0.0,0.0,-0.8271160125732422,-0.3786041736602783
-0.0332014076411724,1.228403091430664,-0.1440227180719375,-0.4412640333175659,-0.1184897273778915,-0.1914624571800232,0.0,0.0,-0.5590544939041138,0.1540597677230835
-0.0347545631229877,1.2182424068450928,-0.1457489281892776,-0.4523679316043854,-0.1280171871185302,-0.1905666887760162,0.0,0.0,-0.570057213306427,-0.0104945302009582
-0.0363219268620014,1.207833170890808,-0.1472270488739013,-0.4634726941585541,-0.1375007778406143,-0.1896888166666031,0.0,0.0,-0.2396885156631469,-0.0463001132011413
-0.0379010215401649,1.1971752643585205,-0.1484503448009491,-0.4745776355266571,-0.1469412446022033,-0.1888259351253509,0.0,0.0,-0.4451774358749389,0.500069260597229
-0.0394590385258197,1.1862637996673584,-0.1456473171710968,-0.4859922230243683,-0.1571028530597686,-0.2032502442598343,0.0,0.0,-0.0285195112228393,-0.6965048313140869
-0.0410931594669818,1.1751021146774292,-0.1550140678882599,-0.4969826340675354,-0.1654903888702392,-0.1677504032850265,0.0,0.0,0.3801640272140503,0.6016750335693359
-0.0425804145634174,1.1645808219909668,-0.1391989439725875,-0.468705952167511,-0.1750349551439285,-0.1908912509679794,0.0,0.0,-0.425886869430542,-0.5003870129585266
-0.0441158302128315,1.153828501701355,-0.1452817171812057,-0.4788769781589508,-0.1833180338144302,-0.1656615138053894,0.0,0.0,-0.3703627586364746,-0.0071878433227539
-0.0456498153507709,1.1428272724151611,-0.1451993435621261,-0.4899756610393524,-0.1915647089481353,-0.1649334132671356,0.0,0.0,-0.918948531150818,-0.508682906627655
-0.0472209937870502,1.131587266921997,-0.1500060409307479,-0.5004943609237671,-0.1987206786870956,-0.143119528889656,0.0,0.0,-0.5772312879562378,-0.5866995453834534
-0.0488286986947059,1.1201177835464478,-0.1548390239477157,-0.5105602145195007,-0.2046960592269897,-0.1195078343152999,0.0,0.0,-0.1364933252334594,-0.8891547918319702
-0.0505055412650108,1.1084182262420654,-0.1637966334819793,-0.5205307602882385,-0.2086242586374282,-0.0785636156797409,0.0,0.0,0.2476470470428466,-0.8045684695243835
-0.0521759986877441,1.0974066257476809,-0.1647256016731262,-0.4897390305995941,-0.210964098572731,-0.0467971190810203,0.0,0.0,0.0699753761291503,0.7412095069885254
-0.0537735931575298,1.0864778757095337,-0.1559580415487289,-0.4862680733203888,-0.214803010225296,-0.0767781212925911,0.0,0.0,0.4731817245483398,0.2382627725601196
-0.0552212707698345,1.076114535331726,-0.1410643011331558,-0.4611303210258484,-0.2185459285974502,-0.0748581662774086,0.0,0.0,-0.9008708000183104,0.2214515209197998
-0.056650161743164,1.0655019283294678,-0.1392125338315963,-0.4722245931625366,-0.2222611010074615,-0.0743034034967422,0.0,0.0,-0.8091862201690674,0.0926636457443237
-0.0580579750239849,1.05463969707489,-0.1371382176876068,-0.4833188652992248,-0.225949689745903,-0.0737717300653457,0.0,0.0,-0.6724042296409607,-0.0456340909004211
-0.0594426169991493,1.0435280799865725,-0.1348510682582855,-0.4944131076335907,-0.2296128422021865,-0.0732623487710952,0.0,0.0,-0.7656218409538269,-0.4800820350646972
-0.0608020797371864,1.032166838645935,-0.1323612332344055,-0.5055073499679565,-0.2332515567541122,-0.0727743804454803,0.0,0.0,0.0456782579421997,-0.3777436017990112
-0.0620281212031841,1.0211113691329956,-0.1191263198852539,-0.4919099509716034,-0.2367841750383377,-0.0706524401903152,0.0,0.0,-0.3888919353485107,-0.8967199325561523
-0.0633050948381424,1.0098429918289185,-0.1263385415077209,-0.5010377168655396,-0.2381583601236343,-0.0274835862219333,0.0,0.0,0.143179178237915,-0.7462871670722961
-0.0644287094473838,0.9988376498222352,-0.1125996336340904,-0.4890904426574707,-0.2379202842712402,0.0047614658251404,0.0,0.0,-0.8537307381629944,-0.4650740623474121
-0.0655201897025108,0.9875826239585876,-0.1094028577208519,-0.5001837015151978,-0.2376616448163986,0.0051723504438996,0.0,0.0,-0.807497501373291,-0.916820466518402
-0.0666370391845703,0.9760973453521729,-0.113475814461708,-0.5101643800735474,-0.2358400672674179,0.0364312157034873,0.0,0.0,-0.7132266759872437,-0.5916359424591064
-0.0677683800458908,0.9643732905387878,-0.1161952763795852,-0.5205840468406677,-0.2327314019203186,0.0621731877326965,0.0,0.0,-0.8824417591094971,-0.8290930986404419
-0.0689234733581543,0.9524123668670654,-0.1201060190796852,-0.5308743119239807,-0.2280672490596771,0.0932831317186355,0.0,0.0,-0.9815942049026488,-0.3259428739547729
-0.0700408965349197,0.9402022361755372,-0.116363450884819,-0.5419694185256958,-0.2233857810497284,0.0936292260885238,0.0,0.0,-0.9915457367897034,-0.2535138130187988
-0.0711195021867752,0.9277426600456238,-0.1125068888068199,-0.5530645251274109,-0.2186877429485321,0.0939608365297317,0.0,0.0,-0.9965670704841614,-0.0048518776893615
-0.0721583366394043,0.915033519268036,-0.1085445657372474,-0.564159631729126,-0.2139737904071808,0.0942787155508995,0.0,0.0,-0.9771437048912048,0.0748144388198852
-0.0731563568115234,0.9020752310752868,-0.104484237730503,-0.5752547383308411,-0.2092446237802505,0.0945834442973136,0.0,0.0,-0.986152172088623,0.0654939413070678
-0.0741126984357833,0.8888674974441528,-0.1003332361578941,-0.5863499045372009,-0.2045008391141891,0.0948756858706474,0.0,0.0,-0.9781129360198976,-0.3195900917053222
-0.0750265121459961,0.8754104971885681,-0.0960984006524086,-0.5974451303482056,-0.1997430473566055,0.0951559245586395,0.0,0.0,-0.9581296443939208,-0.0176683068275451
-0.0758969336748123,0.8617040514945984,-0.0917861610651016,-0.6085402965545654,-0.194971814751625,0.0954246744513511,0.0,0.0,-0.9900334477424622,-0.3304858207702636
-0.0767233818769455,0.8477484583854675,-0.0874024778604507,-0.6196355223655701,-0.1901876926422119,0.0956824272871017,0.0,0.0,-0.9655046463012696,0.4443366527557373
-0.0775051116943359,0.8335434794425964,-0.0829529613256454,-0.6307307481765747,-0.1853912323713302,0.0959295406937599,0.0,0.0,-0.9633114337921144,0.0070161819458007
-0.0782416313886642,0.8190889954566956,-0.07844278216362,-0.6418260335922241,-0.1805829107761383,0.0961663275957107,0.0,0.0,-0.9615631103515624,-0.5335371494293213
-0.0789667144417762,0.8043997883796692,-0.0782170817255973,-0.6521713137626648,-0.1748571991920471,0.1145141124725341,0.0,0.0,-0.9805994629859924,0.3895596265792846
-0.079645536839962,0.7894612550735474,-0.0735999196767807,-0.6632674932479858,-0.169120654463768,0.114730916917324,0.0,0.0,-0.880397617816925,0.0876861810684204
-0.0802774429321289,0.7742736339569092,-0.0689355283975601,-0.6743636727333069,-0.1633737683296203,0.1149381026625633,0.0,0.0,-0.8900587558746338,0.063227891921997
-0.0808621421456337,0.7588366866111755,-0.064227744936943,-0.6854598522186279,-0.1576169580221176,0.115135833621025,0.0,0.0,-0.9483953714370728,-0.0905646681785583
-0.0813992470502853,0.7431507110595703,-0.0594801008701324,-0.6965560913085938,-0.1518507599830627,0.1153241842985153,0.0,0.0,-0.9183358550071716,0.3083692789077759
-0.0818882957100868,0.7272155284881592,-0.0546959117054939,-0.7076523303985596,-0.1460755914449691,0.1155033111572265,0.0,0.0,-0.7085733413696289,0.6526732444763184
-0.0822677612304687,0.7110158801078796,-0.0421660840511322,-0.7195791602134705,-0.1418656408786773,0.0841988697648048,0.0,0.0,-0.4615057706832886,0.4597280025482178
-0.0825985893607139,0.6945666670799255,-0.037317406386137,-0.7306740880012512,-0.1376476436853408,0.0843598842620849,0.0,0.0,-0.3730769753456116,-0.0145317316055297
-0.0828805938363075,0.6778683066368103,-0.0324406735599041,-0.7417691349983215,-0.1334220319986343,0.0845117941498756,0.0,0.0,-0.5328084826469421,-0.0400906205177307
-0.0831134766340255,0.6609205007553101,-0.0275383088737726,-0.7528641223907471,-0.1291892975568771,0.0846545919775962,0.0,0.0,0.2891249656677246,0.5978149175643921
-0.0831452384591102,0.6447106599807739,-0.0062673976644873,-0.7201703786849976,-0.1261058151721954,0.0616696961224079,0.0,0.0,-0.2507685422897339,-0.0963745713233947
-0.0831273049116134,0.628251314163208,-0.0013202389236539,-0.7312647700309753,-0.1230161190032959,0.0617942102253437,0.0,0.0,-0.1784549355506897,-0.1328905820846557
-0.0830596908926963,0.6115426421165466,0.0036462401039898,-0.7423590421676636,-0.1199206337332725,0.06190937012434,0.0,0.0,0.1621365547180175,-0.3873628377914428
-0.0829681381583213,0.5950919985771179,0.0063504590652883,-0.730911910533905,-0.1171261072158813,0.055890716612339,0.0,0.0,-0.0261175036430358,-0.4489948153495788
-0.0828264206647872,0.5783919095993042,0.0113502498716115,-0.7420060634613037,-0.1143267750740051,0.0559866912662982,0.0,0.0,0.3290386199951172,-0.2734959125518799
-0.0825528129935264,0.56218421459198,0.0244204364717006,-0.720121443271637,-0.1114086806774139,0.0583618655800819,0.0,0.0,-0.2038466930389404,-0.4672107696533203
-0.0822289437055587,0.5457268953323364,0.0294470787048339,-0.7312155961990356,-0.1084867939352989,0.0584377944469451,0.0,0.0,0.2678797245025635,-0.629717230796814
-0.0817940682172775,0.5296790599822998,0.0391700156033039,-0.712931215763092,-0.1041980311274528,0.0857754573225975,0.0,0.0,-0.0327271223068237,-0.344628095626831
-0.0813085585832595,0.513381838798523,0.0442176982760429,-0.7240263223648071,-0.0999065190553665,0.0858302414417266,0.0,0.0,0.4826505184173584,-0.6971452236175537
-0.0807318687438964,0.4972615242004394,0.051813255995512,-0.7160751223564148,-0.094100221991539,0.1161258965730667,0.0,0.0,-0.0100696682929992,-0.4331332445144653
-0.0801045447587966,0.4808921813964844,0.0568768009543418,-0.7271715998649597,-0.0882923156023025,0.1161581724882125,0.0,0.0,0.1833944320678711,-0.4037274122238159
-0.0793823227286338,0.4651232957839966,0.0663892328739166,-0.7005053758621216,-0.082511119544506,0.1156238466501236,0.0,0.0,0.5055884122848511,-0.5689817667007446
-0.0785139054059982,0.4502182304859161,0.0796711891889572,-0.6620708107948303,-0.0754076689481735,0.1420691609382629,0.0,0.0,-0.1660792827606201,-0.4072557091712951
-0.0775945633649826,0.4350641965866089,0.084750011563301,-0.6731685400009155,-0.0683044046163559,0.1420652717351913,0.0,0.0,0.4157938957214355,-0.1094461679458618
-0.0767157524824142,0.4200972318649292,0.0812264159321785,-0.6649067401885986,-0.0617148727178573,0.1317906677722931,0.0,0.0,0.8272097110748291,0.4490193128585815
-0.0756875053048133,0.4061861038208008,0.0959497392177581,-0.6180055737495422,-0.0549204833805561,0.1358878761529922,0.0,0.0,-0.1417815089225769,0.2592167854309082
-0.0746085196733474,0.392025887966156,0.1010345071554184,-0.6291030049324036,-0.0481282174587249,0.1358453631401062,0.0,0.0,-0.2358806133270263,-0.4468836784362793
-0.0734786018729209,0.3776167631149292,0.106119193136692,-0.6402004957199097,-0.0413387455046176,0.1357894241809845,0.0,0.0,0.6926968097686768,-0.1550540328025818
-0.072280503809452,0.3640331327915191,0.1129989176988601,-0.6035441160202026,-0.0346094630658626,0.1345857083797454,0.0,0.0,0.1876574754714965,0.1566543579101562
-999.0,0.350824236869812,0.1255001574754715,-0.5869137048721313,-0.0275944285094738,0.1403006315231323,0.0,0.0,-0.5482578873634338,0.4808651208877563
-0.0695775970816612,0.3373664021492004,0.1305786073207855,-0.5980113744735718,-0.0205843020230531,0.1402026116847992,0.0,0.0,-0.3995989561080932,-0.4430222511291504
-0.0681502372026443,0.3236596584320068,0.13565294444561,-0.6091091632843018,-0.0135797914117574,0.1400899887084961,0.0,0.0,0.3658016920089721,0.2752163410186767
-0.0665439590811729,0.3104095458984375,0.1529567092657089,-0.5888429284095764,-0.0060190693475306,0.1512145847082138,0.0,0.0,0.4788038730621338,0.2182705402374267
-0.0647604018449783,0.2974390983581543,0.1701262891292572,-0.5764551758766174,0.0021117080468684,0.1626154631376266,0.0,0.0,0.2263541221618652,-0.0068852305412292
-0.0629316344857215,0.285056322813034,0.1746651828289032,-0.550378143787384,0.0102150831371545,0.1620677560567855,0.0,0.0,0.2026803493499755,-0.1490416526794433
-0.0610356330871582,0.2732534408569336,0.1812972575426101,-0.524651825428009,0.0184140037745237,0.1639781594276428,0.0,0.0,-0.2001392841339111,-0.4800716042518616
-0.0590892806649208,0.2612018883228302,0.1863353103399276,-0.5357509851455688,0.0266034789383411,0.1637896448373794,0.0,0.0,0.508807897567749,-0.5351988673210144
-0.0570438392460346,0.2493453174829483,0.1949338167905807,-0.5271555781364441,0.0360955260694026,0.189840629696846,0.0,0.0,0.6592711210250854,-0.1979870796203613
-0.0550195686519146,0.2380041480064392,0.193078726530075,-0.504304051399231,0.0453324206173419,0.1847381144762039,0.0,0.0,0.4811394214630127,-0.178768515586853
-0.0529046058654785,0.2275787144899368,0.2018033266067505,-0.4636735320091247,0.0549084842205047,0.1915214657783508,0.0,0.0,0.3803083896636963,-0.7827485203742981
-0.050849724560976,0.2176099866628646,0.194269448518753,-0.4434983432292938,0.0659999400377273,0.2218293398618698,0.0,0.0,0.0264219045639038,0.0128437280654907
-0.0488551147282123,0.2081253379583358,0.1886313259601593,-0.4220495522022247,0.0767204388976097,0.2144098728895187,0.0,0.0,-0.4173328876495361,-0.184362530708313
-0.0468112006783485,0.198392704129219,0.1935863941907882,-0.4331526756286621,0.0874268263578414,0.2141277492046356,0.0,0.0,-0.5505767464637756,0.3647623062133789
-0.044718075543642,0.1884118914604187,0.198522612452507,-0.4442557394504547,0.0981183424592018,0.2138305902481079,0.0,0.0,0.0803108215332031,0.2513692378997803
-0.042677879333496,0.1789059937000274,0.1935122311115265,-0.4232105016708374,0.1085440143942833,0.2085133343935012,0.0,0.0,-0.0165525674819946,-0.1536397933959961
-0.0405891425907611,0.1691518425941467,0.1984057277441024,-0.434313029050827,0.1189533695578575,0.2081869840621948,0.0,0.0,-0.1038461923599243,-0.1899951100349426
-0.038451861590147,0.1591494232416153,0.2032751739025116,-0.4454154968261719,0.1293456852436065,0.2078464031219482,0.0,0.0,0.6119346618652344,-0.3140993118286133
-0.0364779457449913,0.1496304422616958,0.1876522600650787,-0.4239384531974792,0.1390411257743835,0.1939091980457306,0.0,0.0,0.0032416582107543,-0.6027077436447144
-0.034492302685976,0.140520229935646,0.1875754594802856,-0.4059612452983856,0.1500066369771957,0.2193100154399871,0.0,0.0,-0.3652469515800476,-0.2764049172401428
-0.0324590690433979,0.1311619579792022,0.1923611909151077,-0.4170646369457245,0.1609530746936798,0.2189288884401321,0.0,0.0,0.3289964199066162,-0.083184540271759
-0.0303619392216205,0.122492492198944,0.1982592046260833,-0.3865947425365448,0.1724195629358291,0.2293297052383422,0.0,0.0,-0.0901781916618347,-0.0051785707473754
-0.0282179825007915,0.1135750412940979,0.202978178858757,-0.3976989686489105,0.1838657706975937,0.2289241999387741,0.0,0.0,0.6039016246795654,-0.4048647880554199
-0.026043128222227,0.1056710332632064,0.2054763287305832,-0.3528218865394592,0.1959318816661834,0.2413220852613449,0.0,0.0,0.151519775390625,-0.4196668863296509
-0.0238489154726266,0.0981293022632598,0.2072266042232513,-0.3368522822856903,0.2082225680351257,0.2458139657974243,0.0,0.0,-0.1409603357315063,-0.1415758728981018
-0.0216092113405466,0.0903398096561431,0.2118264883756637,-0.347957968711853,0.2204914093017578,0.2453771084547042,0.0,0.0,0.1174317598342895,-0.2545264959335327
-0.0194009784609079,0.0830957740545272,0.2085486352443695,-0.3238408863544464,0.2329277694225311,0.2487269192934036,0.0,0.0,0.0489935874938964,-0.2523107528686523
-0.0171656608581542,0.0760467126965522,0.2110806256532669,-0.3153132796287536,0.2455780655145645,0.2530059516429901,0.0,0.0,0.0034650564193725,-0.2147712707519531
-0.0150497434660792,0.0692693069577217,0.1995375454425811,-0.3032817840576172,0.2578616738319397,0.2456722557544708,0.0,0.0,-0.165999174118042,-0.360808253288269
-0.0128905298188328,0.0622440688312053,0.2039365768432617,-0.3143872022628784,0.2701219618320465,0.2452057152986526,0.0,0.0,0.5531535148620605,-0.308387279510498
-0.010849380865693,0.0557291619479656,0.1922771334648132,-0.2917864620685577,0.2822649776935577,0.2428605258464813,0.0,0.0,0.165306806564331,-0.1331090927124023
-0.0088533405214548,0.0495160929858684,0.1877528876066208,-0.2784757614135742,0.2944689393043518,0.2440790683031082,0.0,0.0,0.5433914661407471,0.1198647022247314
-0.0067965509369969,0.0435906983911991,0.1933439522981643,-0.2658993601799011,0.3072132170200348,0.2548863887786865,0.0,0.0,0.5330395698547363,-0.4159845113754272
-0.0048048021271824,0.038365826010704,0.1865179687738418,-0.23494853079319,0.320351779460907,0.2627714872360229,0.0,0.0,-0.1181889176368713,-0.4691234827041626
-0.0027730942238122,0.0328934751451015,0.1905865371227264,-0.2460552603006363,0.3334662318229675,0.2622892558574676,0.0,1.0,0.9955213069915771,0.9975482225418092
