x_pos,y_pos,x_vel,y_vel,angle,ang_vel,leg_1,leg_2,main_booster,lat_booster
-0.0015885352622717,1.4029288291931152,-0.1613644361495971,-0.3551696538925171,0.0022533249575644,0.044485367834568,0.0,0.0,-0.0671138167381286,0.9504513740539552
-0.0031616210471838,1.3942606449127195,-0.1578984558582306,-0.3852516412734985,0.002835308201611,0.0116414288058876,0.0,0.0,-0.214972972869873,0.7814607620239258
-0.0047254562377929,1.384890913963318,-0.1554865837097168,-0.4164288938045501,0.0019440376199781,-0.0178271140903234,0.0,0.0,0.5321612358093262,0.759026050567627
-0.0064189909026026,1.3755178451538086,-0.1670942902565002,-0.4165771305561065,-0.0002796834451146,-0.0444786697626113,0.0,0.0,0.562179684638977,0.9189103841781616
-0.007968807592988,1.3663767576217651,-0.1514938324689865,-0.406272143125534,-0.0037344999145716,-0.0691028386354446,0.0,0.0,0.2585628032684326,0.5781702995300293
-0.0094231609255075,1.35715913772583,-0.1414247155189514,-0.4096942245960235,-0.0077145444229245,-0.0796078890562057,0.0,0.0,-0.3032338619232178,0.6814980506896973
-0.0108928680419921,1.347245216369629,-0.1420006453990936,-0.4406489431858063,-0.0126257482916116,-0.0982333868741989,0.0,0.0,0.3587548732757568,0.5052850246429443
-0.0122502325102686,1.3374323844909668,-0.1304669976234436,-0.4361831247806549,-0.0178436040878295,-0.1043665185570716,0.0,0.0,0.1365935802459716,0.3505755662918091
-0.013672923669219,1.3277873992919922,-0.1373029947280883,-0.4287268817424774,-0.0227578058838844,-0.0982930287718772,0.0,0.0,0.6144046783447266,0.6766409873962402
-0.0150945661589503,1.3185139894485474,-0.1361619979143142,-0.4122560620307922,-0.0286832060664892,-0.1185188293457031,0.0,0.0,0.006783127784729,0.162164568901062
-0.0165207870304584,1.3090859651565552,-0.1372128427028656,-0.4191375374794006,-0.0340400598943233,-0.1071470379829406,0.0,0.0,0.0287801027297973,0.840261697769165
-0.0178858749568462,1.299448013305664,-0.1297285854816436,-0.4285243451595306,-0.0407439842820167,-0.1340905427932739,0.0,0.0,-0.37305748462677,0.6150703430175781
-0.0192599296569824,1.289114236831665,-0.1294309794902801,-0.4595097005367279,-0.0486358776688575,-0.1578524559736251,0.0,0.0,0.2728081941604614,0.0837010145187377
-0.0206357948482036,1.278491735458374,-0.1301447451114654,-0.4723768830299377,-0.0559943690896034,-0.1471833288669586,0.0,0.0,-0.6094059944152832,0.2294516563415527
-0.0220799446105957,1.2671737670898438,-0.1372571289539337,-0.5033033490180969,-0.0630837306380271,-0.1418000161647796,0.0,0.0,0.6615889072418213,-0.0606017112731933
-0.0234637260437011,1.255597710609436,-0.1320075690746307,-0.5147746205329895,-0.0693971142172813,-0.1262790113687515,0.0,0.0,-0.2126414775848388,0.7052662372589111
-0.0248476024717092,1.2433273792266846,-0.130532220005989,-0.5457327365875244,-0.0771854892373085,-0.1557813584804535,0.0,0.0,0.5631347894668579,0.4547328948974609
-0.0261385925114154,1.230876326560974,-0.1221170872449874,-0.5537517666816711,-0.084107868373394,-0.1384603232145309,0.0,0.0,-0.0887410640716552,-0.8002374768257141
-0.0275509841740131,1.2177441120147705,-0.1358286440372467,-0.5839711427688599,-0.0894724205136299,-0.1073006987571716,0.0,0.0,-0.200695514678955,-0.6164426207542419
-0.0290874484926462,1.203923225402832,-0.1498602926731109,-0.6144922971725464,-0.0932371318340301,-0.0753011554479599,0.0,0.0,0.2979941368103027,-0.1942676305770874
-0.0305385589599609,1.190274715423584,-0.1419838666915893,-0.6067951321601868,-0.0963370278477668,-0.0620033256709575,0.0,0.0,0.3241366147994995,-0.8960694670677185
-0.0320851318538188,1.1764633655548096,-0.1535238772630691,-0.6139129996299744,-0.097458928823471,-0.0224399641156196,0.0,0.0,0.8243304491043091,0.0611885786056518
-0.0335000976920127,1.162832736968994,-0.1412166208028793,-0.6058269143104553,-0.0977400094270706,-0.005622299388051,0.0,0.0,0.3203091621398926,-0.6363178491592407
-0.0349496826529502,1.1488697528839111,-0.1462278515100479,-0.6204936504364014,-0.0964796096086502,0.0252103768289089,0.0,0.0,-0.2795145511627197,0.0526769161224365
-0.0364691726863384,1.1342109441757202,-0.1533692181110382,-0.6514114141464233,-0.0950661972165107,0.0282707717269659,0.0,0.0,-0.0664697885513305,0.03755784034729
-0.038059901446104,1.1188350915908811,-0.1606418490409851,-0.6832779049873352,-0.0935089960694313,0.0311438832432031,0.0,0.0,0.3079944849014282,0.2148621082305908
-0.0396638885140419,1.1036217212677002,-0.1621120274066925,-0.6760380268096924,-0.0918047204613685,0.0340853668749332,0.0,0.0,0.1764873266220092,0.6522098779678345
-0.0413358695805072,1.08860445022583,-0.1675873696804046,-0.6674085855484009,-0.0914233922958374,0.0076267644762992,0.0,0.0,-0.2853996753692627,0.6019840240478516
-0.0430404655635356,1.0728914737701416,-0.1700115948915481,-0.6983900666236877,-0.0918665900826454,-0.0088639855384826,0.0,0.0,-0.5752721428871155,0.2217406034469604
-0.0448151603341102,1.0564825534820557,-0.177121952176094,-0.7293067574501038,-0.0922054275870323,-0.0067766765132546,0.0,0.0,-0.4589757919311523,0.3680810928344726
-0.0466598495841026,1.0393776893615725,-0.1842244565486908,-0.7602235078811646,-0.0924487337470054,-0.0048660608008503,0.0,0.0,-0.046586275100708,0.2022308111190796
-0.0485745444893837,1.0215773582458496,-0.1913181841373443,-0.7911403775215149,-0.0926049277186393,-0.0031239469535648,0.0,0.0,0.790273904800415,-0.7003853917121887
-0.0506303794682025,1.004406213760376,-0.2066922187805175,-0.7630913257598877,-0.0915066003799438,0.0219667144119739,0.0,0.0,0.6132302284240723,-0.0629690289497375
-0.0527860634028911,0.987074077129364,-0.2164542227983474,-0.770266592502594,-0.0906247422099113,0.0176372900605201,0.0,0.0,0.7298601865768433,-0.5309240221977234
-0.0549757964909076,0.9700315594673156,-0.2210553139448166,-0.7573208212852478,-0.0885700359940528,0.04109413549304,0.0,0.0,-0.569855272769928,-0.1043684482574462
-0.0572355277836322,0.952293336391449,-0.228103831410408,-0.7882382273674011,-0.0864577069878578,0.0422468073666095,0.0,0.0,0.4992015361785888,-0.097729206085205
-0.0595530495047569,0.9344801902770996,-0.233830377459526,-0.7915841341018677,-0.084404207766056,0.0410701818764209,0.0,0.0,0.8920917510986328,-0.0287948846817016
-0.0618234649300575,0.917268693447113,-0.2293564975261688,-0.7648252248764038,-0.0821035355329513,0.0460132211446762,0.0,0.0,-0.1366486549377441,-0.0091234445571899
-0.064163401722908,0.8993614315986633,-0.2363580018281936,-0.7957428693771362,-0.0797626450657844,0.046817597001791,0.0,0.0,-0.0281364321708679,0.2822932004928589
-0.0665727630257606,0.8807589411735535,-0.2433407753705978,-0.8266605734825134,-0.0773864462971687,0.0475241988897323,0.0,0.0,0.5235395431518555,0.6922435760498047
-0.0690489783883094,0.8625463843345642,-0.2484384477138519,-0.809403121471405,-0.0765675753355026,0.016377430409193,0.0,0.0,0.0511552095413208,-0.071175217628479
-0.0714904814958572,0.8441272377967834,-0.2453667670488357,-0.8185625076293945,-0.075358547270298,0.0241802614182233,0.0,0.0,0.6724008321762085,0.7176982164382935
-0.0738135352730751,0.8254609107971191,-0.232330173254013,-0.8296135067939758,-0.0753332823514938,0.0005054646753706,0.0,0.0,0.8075368404388428,0.5212712287902832
-0.0760055556893348,0.806945264339447,-0.2185326516628265,-0.8229531645774841,-0.0759947896003723,-0.0132303955033421,0.0,0.0,0.567542314529419,0.7209537029266357
-0.0782305747270584,0.7881417274475098,-0.2203212678432464,-0.8358274698257446,-0.0781582072377204,-0.0432681776583194,0.0,0.0,0.9102166891098022,0.4317259788513183
-0.0804407149553299,0.7692140936851501,-0.219083547592163,-0.8413307070732117,-0.0800602361559867,-0.038040954619646,0.0,0.0,0.877993106842041,-0.0763922929763794
-0.0826087966561317,0.7503418922424316,-0.2152236700057983,-0.8388439416885376,-0.0816275775432586,-0.0313468649983406,0.0,0.0,0.9700617790222168,0.7948477268218994
-0.0848452597856521,0.7322794198989868,-0.2201552838087082,-0.8029770255088806,-0.0850876048207283,-0.0692006200551986,0.0,0.0,0.1914979219436645,-0.4423629641532898
-0.0871957764029502,0.7143830060958862,-0.2311225831508636,-0.7956226468086243,-0.0889783054590225,-0.0778138414025306,0.0,0.0,-0.0946875810623169,0.2273272275924682
-0.0896127671003341,0.6957910656929016,-0.2377898693084716,-0.8265412449836731,-0.0928572937846183,-0.0775798037648201,0.0,0.0,0.9844892024993896,0.690737247467041
-0.091793343424797,0.6774948239326477,-0.2132375985383987,-0.8134772181510925,-0.0976322144269943,-0.095498576760292,0.0,0.0,0.9939754009246826,-0.2686135768890381
-0.0940217971801757,0.6598405838012695,-0.2177229225635528,-0.7849734425544739,-0.1027163341641426,-0.1016826182603836,0.0,0.0,0.9711534976959229,0.5588290691375732
-0.0960792526602745,0.6422513127326965,-0.1999187171459198,-0.7821540236473083,-0.1085016727447509,-0.1157064661383628,0.0,0.0,0.8089673519134521,-0.5090857744216919
-0.0981423407793045,0.6252798438072205,-0.2015299797058105,-0.7546427845954895,-0.1132443249225616,-0.0948531776666641,0.0,0.0,0.7124671936035156,0.4979794025421142
-0.1000582724809646,0.6083400249481201,-0.1875586062669754,-0.7531952261924744,-0.1172561272978782,-0.0802362114191055,0.0,0.0,0.7632291316986084,-0.2809040546417236
-0.1020793914794921,0.5914717316627502,-0.19761723279953,-0.7500607371330261,-0.1217210590839386,-0.0892986804246902,0.0,0.0,0.720146894454956,0.3377971649169922
-0.1039644256234169,0.5751256942749023,-0.1844837367534637,,-0.1257120221853256,-0.0798196643590927,0.0,0.0,0.0994343757629394,-0.1413692235946655
-0.1057628616690635,0.5587348341941833,-0.1762842535972595,-0.7287898659706116,-0.1292540580034256,-0.0708403959870338,0.0,0.0,0.9331041574478148,-0.067627727985382
-0.1074102371931076,0.5430644154548645,-0.1616138815879821,-0.6967365741729736,-0.1323642879724502,-0.0622044391930103,0.0,0.0,0.4095726013183594,-0.2033761739730835
-0.1090922355651855,0.5277081727981567,-0.1648072302341461,-0.6828060150146484,-0.1357440054416656,-0.0675942301750183,0.0,0.0,0.758176326751709,-0.3188028335571289
-0.110724352300167,0.5122309923171997,-0.1601139456033706,-0.6881622672080994,-0.1388365775346756,-0.0618516206741333,0.0,0.0,0.7225772142410278,-0.1215417385101318
-0.1124150305986404,0.4971663355827331,-0.1655170768499374,-0.6698743104934692,-0.1423733681440353,-0.0707357078790664,0.0,0.0,0.4813668727874756,-0.0514637231826782
-0.11398496478796,0.4820710718631744,-0.1540050059556961,-0.6711892485618591,-0.1453537791967392,-0.0596083998680114,0.0,0.0,0.482011079788208,0.2789793014526367
-0.1155075058341026,0.4670916199684143,-0.1494130194187164,-0.6660327911376953,-0.1481874138116836,-0.0566723830997943,0.0,0.0,0.5192973613739014,0.0559321641921997
-0.1170200332999229,0.4519618153572082,-0.1484959870576858,-0.6727124452590942,-0.1509335488080978,-0.0549225732684135,0.0,0.0,0.8984291553497314,-0.4808574914932251
-0.118620678782463,0.4371755421161651,-0.1567160636186599,-0.6575104594230652,-0.1542780548334121,-0.0668901801109314,0.0,0.0,0.4551811218261719,-0.2227517366409301
-0.1201345473527908,0.4228065013885498,-0.1481913030147552,-0.6389576196670532,-0.1574697494506836,-0.0638340860605239,0.0,0.0,0.0219004154205322,0.1591385602951049
-0.1216155067086219,0.4079978466033935,-0.1452147662639618,-0.6584710478782654,-0.1603552550077438,-0.0577101893723011,0.0,0.0,0.708815336227417,0.2071703672409057
-0.1229713410139083,0.393794298171997,-0.1329079419374466,-0.6315627694129944,-0.163034051656723,-0.0535758323967456,0.0,0.0,0.6795103549957275,-0.3660473823547363
-0.1243846863508224,0.379630446434021,-0.1382891982793808,-0.6298385858535767,-0.1660716235637664,-0.0607514604926109,0.0,0.0,0.7717063426971436,-0.5587998628616333
-0.1258635520935058,0.3658844232559204,-0.1457746922969818,-0.6111719012260437,-0.1681832671165466,-0.0422332063317298,0.0,0.0,0.8516813516616821,0.7325620651245117
-0.1271674185991287,0.3524515628814697,-0.1269972175359726,-0.5974031686782837,-0.1715802699327469,-0.0679400339722633,0.0,0.0,0.2682591676712036,-0.4599320888519287
-0.1284913122653961,0.3393065333366394,-0.1286377161741256,-0.5846618413925171,-0.1753310263156891,-0.0750153288245201,0.0,0.0,-0.4474008083343506,0.7061278820037842
-0.1297836303710937,0.3254494667053222,-0.1240300759673118,-0.6164939403533936,-0.180559366941452,-0.1045666188001632,0.0,0.0,0.7356421947479248,-0.8930466771125793
-0.1311385184526443,0.3115257918834686,-0.1321124881505966,-0.6192463636398315,-0.1839471459388733,-0.0677557215094566,0.0,0.0,0.9684393405914308,-0.5132898688316345
-0.132403090596199,0.2974596321582794,-0.1244818940758705,-0.6254062652587891,-0.1859255284070968,-0.0395675674080848,0.0,0.0,0.9979205131530762,-0.074195384979248
-0.1336501091718673,0.2833133041858673,-0.1226885467767715,-0.628980278968811,-0.1879487484693527,-0.0404643788933754,0.0,0.0,0.9949169158935548,-0.3650975227355957
-0.1347455978393554,0.2698851823806762,-0.1076241135597229,-0.5970498323440552,-0.1898795813322067,-0.0386167578399181,0.0,0.0,0.9957890510559082,-0.5436546802520752
-0.1356099098920822,0.2572011053562164,-0.0860521346330642,-0.5637829303741455,-0.1902669370174408,-0.0077470601536333,0.0,0.0,0.8917758464813232,-0.3193858861923218
-0.1364339888095855,0.2452360987663269,-0.0815845429897308,-0.5318877696990967,-0.1910948455333709,-0.0165585074573755,0.0,0.0,0.959603786468506,-0.1459822058677673
-0.1373411118984222,0.233197271823883,-0.0893439203500747,-0.5352362990379333,-0.192471444606781,-0.0275318063795566,0.0,0.0,0.9823434352874756,0.6304824352264404
-0.1379697769880294,0.2218352109193802,-0.0605506226420402,-0.5052812695503235,-0.194802388548851,-0.0466186366975307,0.0,0.0,0.981783390045166,-0.4466498494148254
-0.1385838538408279,0.2108283638954162,-0.058711189776659,-0.4895495176315307,-0.1975194215774536,-0.0543408095836639,0.0,0.0,0.7042933702468872,-0.5415439009666443
-0.1391578614711761,0.2001865655183792,-0.0558069534599781,-0.4731848537921905,-0.1991260200738906,-0.0321322791278362,0.0,0.0,0.9300167560577391,-0.650460422039032
-0.1396275460720062,0.1900726407766342,-0.0468277633190155,-0.4495278596878052,-0.1992711573839187,-0.0029028134886175,0.0,0.0,0.867178201675415,0.0981961488723754
-0.1398596763610839,0.1801999658346176,-0.0237213391810655,-0.4387140870094299,-0.1987619251012802,0.0101846633478999,0.0,0.0,0.9192702770233154,-0.0093968510627746
-0.1399721205234527,0.1702077686786651,-0.012077703140676,-0.4439857304096222,-0.1979193836450576,0.016851108521223,0.0,0.0,0.8207511901855469,-0.5511825680732727
-0.1399160325527191,0.1601487696170807,0.0031567253172397,-0.4467412531375885,-0.1954567283391952,0.0492531284689903,0.0,0.0,0.9170409440994264,-0.2833022475242615
-0.1395429670810699,0.1503189355134964,0.0338562950491905,-0.4364299774169922,-0.1919836848974228,0.0694609135389328,0.0,0.0,0.994099497795105,-0.6646594405174255
-0.1389300376176834,0.1404524892568588,0.0558150112628936,-0.4378103911876678,-0.1864822804927826,0.1100281327962875,0.0,0.0,0.9119505882263184,-0.7414413094520569
-0.1381926536560058,0.1311953663825988,0.0665588229894638,-0.4105396270751953,-0.1792707294225692,0.1442307233810424,0.0,0.0,0.9125485420227052,-0.3957729339599609
-0.1372332572937011,0.1225293278694152,0.088338628411293,-0.3842612206935882,-0.171651229262352,0.1523902714252472,0.0,0.0,0.7093601226806641,-0.7131785154342651
-0.1360397338867187,0.1141690611839294,0.1097591072320938,-0.3704863786697387,-0.1620511412620544,0.1920019835233688,0.0,0.0,0.4036544561386108,0.1830275058746338
-0.134681224822998,0.1055038049817085,0.125587910413742,-0.3840394914150238,-0.1517983376979828,0.2050561010837555,0.0,0.0,0.4832900762557983,-0.4754747152328491
-0.1332620680332183,0.0968322604894638,0.1315981894731521,-0.384380042552948,-0.1415006071329116,0.2059545516967773,0.0,0.0,0.7936620712280273,0.7880203723907471
-0.1315079629421234,0.0888316929340362,0.1661807149648666,-0.3547295331954956,-0.1322999596595764,0.1840128749608993,0.0,0.0,0.5361502170562744,-0.914262354373932
-0.1297370940446853,0.0809420645236969,0.16575887799263,-0.3496838510036468,-0.1210262849926948,0.2254737168550491,0.0,0.0,0.7613765001296997,-0.4253333806991577
-0.1279504746198654,0.0736448839306831,0.1676500737667083,-0.3234646916389465,-0.1100835129618644,0.2188552916049957,0.0,0.0,0.5100951194763184,-0.1916174292564392
-0.1259676963090896,0.0665911734104156,0.1865931451320648,-0.3126789927482605,-0.0984837189316749,0.231996089220047,0.0,0.0,0.1517372131347656,-0.4610867500305176
-0.1239216774702072,0.059629451483488,0.1927758008241653,-0.3086726069450378,-0.0867614895105362,0.2344443798065185,0.0,0.0,0.440528392791748,-0.0226991176605224
-0.1218402832746505,0.0529585443437099,0.1963341683149337,-0.295840173959732,-0.075072057545185,0.2337889224290847,0.0,0.0,0.1960469484329223,-0.6944862604141235
-0.1197546944022178,0.0461392253637313,0.1950624734163284,-0.302459180355072,-0.0617197938263416,0.2670452296733856,0.0,0.0,0.7543721199035645,0.2811119556427002
-0.1176996231079101,0.0395939201116561,0.1922723650932312,-0.2904110252857208,-0.0486286394298076,0.2618231475353241,0.0,0.0,0.8323438167572021,-0.4537649154663086
-0.1157277077436447,0.033237300813198,0.1844008266925811,-0.282146543264389,-0.0359923280775547,0.2527265846729278,0.0,0.0,0.9451141357421876,0.524512767791748
-0.1134953498840332,0.027449021115899,0.2107737362384796,-0.2570039927959442,-0.0236835349351167,0.2461758404970169,0.0,0.0,0.8926389217376709,-0.6785920858383179
-0.1111732497811317,0.0215945094823837,0.2178502976894378,-0.2600359618663788,-0.0095111802220344,0.2834469377994537,0.0,0.0,0.9081207513809204,0.0088138580322265
-0.1086164489388465,0.0163664910942316,0.2402041852474212,-0.2323319613933563,0.0057673738338053,0.3055710792541504,0.0,0.0,0.9706759452819824,-0.6178409457206726
-0.1060831993818283,0.0118391374126076,0.236349731683731,-0.2013666331768036,0.0225302223116159,0.3352569937705993,0.0,0.0,0.9106390476226808,-0.0637333989143371
-0.1033463478088378,0.0081077190116047,0.2555915713310241,-0.1662085354328155,0.0403955578804016,0.3573069274425506,0.0,0.0,0.871894121170044,-0.6742267608642578
-0.1005346328020095,0.0046723461709916,0.2611594796180725,-0.1533419787883758,0.0601748898625373,0.3955864608287811,0.0,1.0,0.7516293525695801,0.6931667327880859
-0.0978899970650672,0.0022971248254179,0.2604420483112335,-0.1058948263525962,0.0635410398244857,0.0665261596441268,0.0,1.0,-0.5977858901023865,-0.1959486007690429
-0.0954829230904579,-0.0002307319664396,0.2568173110485077,-0.1117457672953605,0.0476081818342208,-0.3186694681644439,0.0,1.0,-0.1854612231254577,-0.5162204504013062
-0.093312457203865,-0.0029733444098383,0.2493444383144378,-0.1211890950798988,0.015658039599657,-0.6390563249588013,0.0,1.0,0.8896427154541016,-0.6571488380432129
-0.0914194136857986,-0.0043136980384588,0.2143253982067108,-0.0595117919147014,-0.0090424073860049,-0.4940100610256195,1.0,1.0,0.5155048370361328,-0.9852727055549622
-0.0897269248962402,-0.004715135321021,0.183120995759964,-0.0179894771426916,-0.0227446164935827,-0.2740480005741119,1.0,1.0,0.1415503025054931,-0.9958215951919556
-0.0881156921386718,-0.0043070460669696,0.1638067662715912,0.0180959161370992,-0.0254020616412162,-0.0531567633152008,1.0,1.0,-0.3727653622627258,-0.9990550875663756
-0.0868186950683593,-0.0036541246809065,0.1246418729424476,0.0290920790284872,-0.0204028580337762,0.099989540874958,1.0,1.0,-0.7455843687057495,-0.9935380816459656
-0.0856480598449707,-0.0035310650710016,0.116148330271244,0.0054809525609016,-0.0194981284439563,0.018087251111865,0.0,1.0,-0.8853082656860352,0.0021556615829467
-0.0845376029610633,-0.0037721062544733,0.1127217635512352,-0.0107425041496753,-0.0211436320096254,-0.0328962504863739,1.0,1.0,-0.2350229024887085,-0.9731980562210084
-0.0835799202322959,-0.0040953662246465,0.0980511084198951,-0.0144053669646382,-0.0233891420066356,-0.0448938384652137,1.0,1.0,-0.4553990364074707,-0.9648317098617554
