x_pos,y_pos,x_vel,y_vel,angle,ang_vel,leg_1,leg_2,main_booster,lat_booster
-0.0015346526633948,1.403012990951538,-0.1553909331560135,-0.3514197170734405,0.0017192927189171,0.0339115522801876,0.0,0.0,0.815902872604011,-0.4857269459367466
-0.0030244826339185,1.3952785730361938,-0.1508839130401611,-0.3437547385692596,0.003609822364524,0.0378149673342704,0.0,0.0,0.3181421924565348,0.1228572791794619
-0.0044198036193847,1.3874164819717407,-0.141906052827835,-0.3494411110877991,0.0059515228495001,0.0468382239341735,0.0,0.0,0.4424433311901448,0.4432117820142449
-0.0059327124617993,1.3795961141586304,-0.1531044840812683,-0.347573310136795,0.0077345143072307,0.0356631875038147,0.0,0.0,-0.8123186030070126,-0.3172794101520954
-0.0074566840194165,1.3711645603179932,-0.1541377753019333,-0.374746024608612,0.0094590838998556,0.0344944447278976,0.0,0.0,-0.5475127394532828,-0.7787772045266891
-0.0090389251708984,1.3621201515197754,-0.1611041873693466,-0.4020000994205475,0.0123158087953925,0.0571397915482521,0.0,0.0,-0.5365771934525196,0.5136839495283729
-0.010593032464385,1.352465033531189,-0.1572478115558624,-0.4291296601295471,0.0141347534954547,0.0363819561898708,0.0,0.0,0.7209019137611283,0.0022916767274654
-0.0120116230100393,1.3432128429412842,-0.1443998217582702,-0.4112372994422912,0.0166381448507308,0.0500727705657482,0.0,0.0,0.4175290829417719,-0.1184860655272567
-0.0134632112458348,1.334425687789917,-0.1475896537303924,-0.3905666768550873,0.0190340131521224,0.0479217991232872,0.0,0.0,-0.1648349683694878,-0.3389275358893426
-0.014925479888916,1.3250272274017334,-0.1485916078090667,-0.4177410304546356,0.0213733594864606,0.0467911995947361,0.0,0.0,-0.237648349301365,-0.9318072527528464
-0.016461182385683,1.3150163888931274,-0.1574796438217163,-0.4449893534183502,0.0252390056848526,0.0773200243711471,0.0,0.0,0.6594290834993839,0.0866384446047656
-0.0179497711360454,1.3051927089691162,-0.1530457437038421,-0.4366850256919861,0.029384197667241,0.0829114019870758,0.0,0.0,0.8787047781916901,-0.5578792333558278
-0.0193584449589252,1.2959582805633545,-0.1465877145528793,-0.4105396866798401,0.0350411906838417,0.1131500750780105,0.0,0.0,-0.4585424745512003,-0.0130202251178105
-0.0207775123417377,1.2861127853393557,-0.1475636810064315,-0.4377178847789764,0.0406422577798366,0.1120315343141555,0.0,0.0,0.2102615426033909,0.9475043906473876
-0.0220361705869436,1.2765833139419556,-0.1296110600233078,-0.4236427843570709,0.0443546362221241,0.0742543116211891,0.0,0.0,-0.2841186901917703,-0.2316690291918481
-0.0233048442751169,1.2664424180984497,-0.1305592358112335,-0.4508205950260162,0.0480140969157218,0.0731956958770752,0.0,0.0,0.7379788370737683,0.0531720363839015
-0.0244817733764648,1.2570492029190063,-0.1220207661390304,-0.4176219701766968,0.0523011088371276,0.0857477709650993,0.0,0.0,-0.4790870080348965,0.4417212883380205
-0.0256685260683298,1.247044563293457,-0.1229473203420639,-0.4448038637638092,0.0565353743731975,0.0846928656101226,0.0,0.0,-0.9054660454638148,-0.3381168365434038
-0.0268649104982614,1.2364288568496704,-0.1238617748022079,-0.4719705581665039,0.0607185140252113,0.0836700499057769,0.0,0.0,0.3889409998367852,-0.8977664850375356
-0.0282476432621479,1.2259008884429932,-0.1441665291786193,-0.4681678414344787,0.0665575712919235,0.1167917847633361,0.0,0.0,-0.3958461779653524,-0.7001529710735825
-0.0296834949404001,1.2147624492645264,-0.1505403816699981,-0.4953619837760925,0.0734423249959945,0.1377074718475341,0.0,0.0,-0.1387804908075791,0.4405731567724666
-0.0311287883669137,1.20301353931427,-0.1514210402965545,-0.5225333571434021,0.0802775174379348,0.1367161124944687,0.0,0.0,-0.7221455556995378,0.9093473911112852
-0.0324960723519325,1.1906627416610718,-0.1413488090038299,-0.549176812171936,0.0848644375801086,0.0917468219995498,0.0,0.0,0.1285410057132401,0.9053990520360052
-0.0337624549865722,1.1780256032943726,-0.1294189095497131,-0.5618065595626831,0.0876173079013824,0.0550623349845409,0.0,0.0,0.4885501862835146,0.2181962064138503
-0.0352158546447753,1.1656270027160645,-0.1474644243717193,-0.5511820912361145,0.0897310972213745,0.0422794744372367,0.0,0.0,-0.7820368648538409,0.2986388094690978
-0.0366764068603515,1.1525954008102417,-0.1481393724679947,-0.5793043971061707,0.0918001011013984,0.0413799472153186,0.0,0.0,0.199713129338801,0.2152722551041438
-0.0381907448172569,1.1397409439086914,-0.1534916460514068,-0.5714359879493713,0.0938381478190422,0.0407609790563583,0.0,0.0,0.5617332151301329,-0.2580371111833892
-0.0399092659354209,1.12742280960083,-0.1732851564884185,-0.5475589036941528,0.0952619761228561,0.0284763518720865,0.0,0.0,0.5066298213349227,0.9157446647631632
-0.0417652130126953,1.115546941757202,-0.1849954724311828,-0.5277808308601379,0.0946610197424888,-0.0120188547298312,0.0,0.0,-0.1944763141857464,-0.7540919776509073
-0.0436902046203613,1.1030482053756714,-0.1934193074703216,-0.5555621981620789,0.0955757647752761,0.018294995650649,0.0,0.0,-0.7738799950661284,-0.2796349825915828
-0.0456226356327533,1.089938044548035,-0.194127470254898,-0.5827296376228333,0.0964508280158042,0.0175013355910778,0.0,0.0,-0.8944605588912964,0.8539450168609619
-0.0475034713745117,1.076220154762268,-0.1874342262744903,-0.6096433997154236,0.0958066582679748,-0.0128837302327156,0.0,0.0,-0.4161410331726074,0.9342458248138428
-0.0493285171687603,1.0619088411331177,-0.1801897585391998,-0.6359120011329651,0.0935149416327476,-0.0458342656493186,0.0,0.0,-0.1535279154777526,0.8667123317718506
-0.0510988235473632,1.0469870567321775,-0.17312753200531,-0.6629492044448853,0.0896449238061904,-0.0774004012346267,0.0,0.0,-0.8616651296615601,0.9385535717010498
-0.0527999885380268,1.0314666032791138,-0.164233386516571,-0.6894598007202148,0.0838182345032692,-0.1165336593985557,0.0,0.0,-0.8674973845481873,0.7012474536895752
-0.0544508919119834,1.0153477191925049,-0.1577203124761581,-0.7159967422485352,0.0765167325735092,-0.1460300832986831,0.0,0.0,-0.8599780201911926,0.1289340257644653
-0.0561080947518348,0.9986183047294616,-0.1583053767681121,-0.7431685924530029,0.0691825300455093,-0.1466843783855438,0.0,0.0,-0.8619431257247925,-0.2209681272506714
-0.0577712059020996,0.981278359889984,-0.1588689684867859,-0.7703405618667603,0.0618168450891971,-0.1473139226436615,0.0,0.0,-0.96259742975235,-0.5565577745437622
-0.0594872459769248,0.9633294939994812,-0.1653122305870056,-0.7974807620048523,0.0555997341871261,-0.124342143535614,0.0,0.0,-0.6308151483535767,-0.158778429031372
-0.0612087249755859,0.9447698593139648,-0.1658323407173156,-0.8246515393257141,0.0493536852300167,-0.1249212995171547,0.0,0.0,-0.3197547793388366,-0.8083394765853882
-0.0630109757184982,0.9256005883216858,-0.1757905036211013,-0.8518306612968445,0.044972289353609,-0.0876279324293136,0.0,0.0,0.8478327989578247,0.1973044872283935
-0.0647066086530685,0.9067069888114928,-0.1657529175281524,-0.8396109342575073,0.0412030480802059,-0.0753846988081932,0.0,0.0,0.8743247985839844,0.4964578151702881
-0.0663116425275802,0.8877421021461487,-0.1571742445230484,-0.8427917957305908,0.0379185862839221,-0.0656891763210296,0.0,0.0,0.9095578193664552,0.4038926362991333
-0.067829705774784,0.8690885305404663,-0.1489900648593902,-0.8289803862571716,0.0351411551237106,-0.0555486679077148,0.0,0.0,0.5794577598571777,0.4036183357238769
-0.0694006904959678,0.8502438068389893,-0.1540892124176025,-0.8374776840209961,0.0321614779531955,-0.0595933124423027,0.0,0.0,0.942042112350464,-0.0776629447937011
-0.0709344893693924,0.8313793540000916,-0.1505938917398452,-0.8383634686470032,0.0294104404747486,-0.0550208278000354,0.0,0.0,0.9457614421844482,0.579959511756897
-0.0723651871085167,0.8126952052116394,-0.1393147855997085,-0.830341637134552,0.0257017835974693,-0.0741730779409408,0.0,0.0,-0.3583967685699463,0.353579044342041
-0.0737995132803917,0.7933997511863708,-0.1396585702896118,-0.8575103282928467,0.0219745859503746,-0.0745440647006034,0.0,0.0,0.9831430912017822,0.8777296543121338
-0.0753631591796875,0.7749165296554565,-0.1504492908716201,-0.8214028477668762,0.0161316692829132,-0.1168582662940025,0.0,0.0,0.790093183517456,0.6006327867507935
-0.0769159346818924,0.7566478848457336,-0.1480670720338821,-0.8118761777877808,0.009014313109219,-0.1423474103212356,0.0,0.0,-0.6717572808265686,-0.3443375825881958
-0.0784716606140136,0.7377687096595764,-0.1483471691608429,-0.8390480875968933,0.0018822381971403,-0.1426411569118499,0.0,0.0,0.6888084411621094,0.3802895545959472
-0.0800903290510177,0.719408392906189,-0.1543559283018112,-0.8160238265991211,-0.0055355345830321,-0.1483553349971771,0.0,0.0,0.3291225433349609,-0.6472017168998718
-0.0816635116934776,0.700969934463501,-0.1512745767831802,-0.8195247650146484,-0.0115054389461874,-0.1193980127573013,0.0,0.0,0.947271466255188,-0.4163894653320312
-0.0832244902849197,0.6833307147026062,-0.1500505059957504,-0.7840231657028198,-0.0174689479172229,-0.1192700043320655,0.0,0.0,0.8874013423919678,-0.4547959566116333
-0.0846075043082237,0.6659115552902222,-0.1330541223287582,-0.7742550373077393,-0.0226548891514539,-0.1037190109491348,0.0,0.0,0.2740767002105713,0.5627424716949463
-0.0860204696655273,0.648425281047821,-0.1347369253635406,-0.7772825956344604,-0.0291322171688079,-0.1295465528964996,0.0,0.0,0.644787073135376,-0.144740343093872
-0.087318517267704,0.6315135955810547,-0.1236693859100341,-0.7517530918121338,-0.0351841375231742,-0.1210383921861648,0.0,0.0,0.8467507362365723,-0.4832778573036194
-0.0884372740983963,0.615113377571106,-0.1064668148756027,-0.7290405035018921,-0.0405289307236671,-0.1068958044052124,0.0,0.0,-0.1263020634651184,0.0352951288223266
-0.0895573645830154,0.5981020927429199,-0.1065960749983787,-0.7562105655670166,-0.0458790957927703,-0.1070032864809036,0.0,0.0,0.1472194194793701,-0.7413803935050964
-0.0907722488045692,0.5813121199607849,-0.1175041794776916,-0.746347963809967,-0.0498156324028968,-0.0787306353449821,0.0,0.0,0.932297706604004,0.2911937236785888
-0.0919066444039344,0.5645554661750793,-0.1097435131669044,-0.744868278503418,-0.0534785911440849,-0.073258951306343,0.0,0.0,0.9068620204925536,0.2200373411178589
-0.0931142792105674,0.548409640789032,-0.1165112107992172,-0.7177496552467346,-0.0576793290674686,-0.0840146914124488,0.0,0.0,0.80414879322052,0.6609869003295898
-0.0940924659371376,0.5324798226356506,-0.0925973206758499,-0.7082030177116394,-0.0628433972597122,-0.1032814607024192,0.0,0.0,0.8926694393157959,0.0958560705184936
-0.0950001701712608,0.5169877409934998,-0.0856716483831405,-0.6887607574462891,-0.0678832083940506,-0.1007958501577377,0.0,0.0,0.166981816291809,0.1712043285369873
-0.0958834663033485,0.5013077855110168,-0.0832666233181953,-0.697121798992157,-0.0728972107172012,-0.1002798452973365,0.0,0.0,0.749976396560669,0.711230993270874
-0.0968075767159462,0.4859634935855865,-0.0856018215417862,-0.6823152899742126,-0.0796417966485023,-0.1348916739225387,0.0,0.0,0.8908216953277588,-0.3207247257232666
-0.0976294502615928,0.4714701175689697,-0.0754908323287963,-0.6445217728614807,-0.0862709283828735,-0.1325826346874237,0.0,0.0,0.0882443189620971,-0.1231674551963806
-0.0983808487653732,0.4566468894481659,-0.0687045156955719,-0.6591949462890625,-0.0926474034786224,-0.1275294125080108,0.0,0.0,0.7360718250274658,-0.9099756479263306
-0.0990885719656944,0.4425685703754425,-0.0662341713905334,-0.6259877681732178,-0.0971536636352539,-0.0901252999901771,0.0,0.0,-0.0522393584251403,-0.6612488627433777
-0.0998565703630447,0.4278852343559265,-0.0737989321351051,-0.6527937650680542,-0.1001329571008682,-0.0595855191349983,0.0,0.0,0.9449403285980223,0.3715062141418457
-0.1006522178649902,0.4137966334819793,-0.0760614424943924,-0.6263999938964844,-0.1036078929901123,-0.0694986283779144,0.0,0.0,0.7965800762176514,-0.4101182818412781
-0.1013443022966384,0.4001014232635498,-0.0658630430698394,-0.608913004398346,-0.1069231331348419,-0.0663048475980758,0.0,0.0,0.9157066345214844,-0.2277300357818603
-0.1020798683166503,0.3872794508934021,-0.0695333108305931,-0.5701573491096497,-0.1109239235520362,-0.0800157338380813,0.0,0.0,0.4137216806411743,-0.1958886981010437
-0.1026978492736816,0.3745726346969604,-0.0580683425068855,-0.5650284290313721,-0.1146279573440551,-0.0740806311368942,0.0,0.0,0.508291482925415,-0.5496652722358704
-0.1033510193228721,0.3617956042289734,-0.062614582479,-0.5680770874023438,-0.1173115968704223,-0.053673155605793,0.0,0.0,0.2918579578399658,0.3065217733383178
-0.1039211302995681,0.3487766683101654,-0.0545594394207,-0.5788120627403259,-0.1197425946593284,-0.0486200265586376,0.0,0.0,0.8286052942276001,-0.6932544112205505
-0.1045382469892501,0.3357157409191131,-0.0605793483555316,-0.5805766582489014,-0.1208749935030937,-0.0226480495184659,0.0,0.0,0.1553167104721069,-0.7046121954917908
-0.1051492691040039,0.3228870630264282,-0.0613830015063285,-0.5701401829719543,-0.1205984055995941,0.0055318162776529,0.0,0.0,0.2987990379333496,-0.4357388019561767
-0.1056200042366981,0.3103906810283661,-0.0476589649915695,-0.5553456544876099,-0.1200232505798339,0.0115033285692334,0.0,0.0,0.2279137372970581,-0.5740729570388794
-0.1061532944440841,0.2982180118560791,-0.0548909530043602,-0.5408781170845032,-0.118464320898056,0.031178331002593,0.0,0.0,0.3999545574188232,0.7872965335845947
-0.1067137718200683,0.2858549654483795,-0.0558646544814109,-0.5494846701622009,-0.1186419352889061,-0.0035522975958883,0.0,0.0,0.7153530120849609,-0.4199009537696838
-0.1071348190307617,0.2740955948829651,-0.0421310514211654,-0.5226356983184814,-0.1186178773641586,0.0004807904479093,0.0,0.0,0.1078608036041259,-0.5395833849906921
-0.1076266318559646,0.2623206973075866,-0.0501595214009285,-0.5232536792755127,-0.1176420301198959,0.0195170529186725,0.0,0.0,-0.4418548345565796,-0.2762645483016968
-0.108117863535881,0.2499343901872635,-0.0501119866967201,-0.550421416759491,-0.1166581213474273,0.019678084179759,0.0,0.0,0.948859453201294,-0.351434588432312
-0.1085266098380088,0.2381682991981506,-0.041800033301115,-0.5228680372238159,-0.1157314702868461,0.0185329020023345,0.0,0.0,0.9281766414642334,0.4938936233520508
-0.1087552085518837,0.2267848551273346,-0.0242820475250482,-0.5058180093765259,-0.1143261790275573,0.0281059481203556,0.0,0.0,0.8988540172576904,0.0500053167343139
-0.1089115142822265,0.2153718769550323,-0.017178189009428,-0.5071263909339905,-0.112787015736103,0.0307832956314086,0.0,0.0,0.8720488548278809,-0.1045604348182678
-0.1089116111397743,0.2040099054574966,-0.0020573129877448,-0.5048231482505798,-0.1107539311051368,0.0406615585088729,0.0,0.0,0.926545262336731,0.6733889579772949
-0.108601376414299,0.1929898113012313,0.0298485215753316,-0.4896962940692901,-0.1095914393663406,0.023250039666891,0.0,0.0,0.9435968399047852,0.1895700693130493
-0.1080772429704666,0.1820233613252639,0.0504774376749992,-0.4872581362724304,-0.1076630353927612,0.0385679081082344,0.0,0.0,0.962160348892212,0.0021479129791259
-0.1074637398123741,0.1717772632837295,0.0594376400113105,-0.4552419781684875,-0.1057588160037994,0.0380844511091709,0.0,0.0,0.6847569942474365,-0.7161468863487244
-0.1067900657653808,0.1620828211307525,0.0639252141118049,-0.4306263625621795,-0.1023450419306755,0.0682756081223487,0.0,0.0,0.2697031497955322,-0.4992345571517944
-0.1059688553214073,0.1525275856256485,0.0782291889190673,-0.424418032169342,-0.0984821319580078,0.0772579982876777,0.0,0.0,0.5538268089294434,-0.8686271905899048
-0.1050807014107704,0.1428049653768539,0.0830200612545013,-0.4317447245121002,-0.092736043035984,0.1149218529462814,0.0,0.0,0.6995202302932739,-0.6083092093467712
-0.1042503342032432,0.1332671046257019,0.0761618763208389,-0.4234958589076996,-0.0859168469905853,0.1363838613033294,0.0,0.0,0.7618038654327393,-0.0796955823898315
-0.1032512634992599,0.124481976032257,0.0925886183977127,-0.3900489211082458,-0.0786750391125679,0.1448361426591873,0.0,0.0,0.3616557121276855,-0.6579360365867615
-0.1022889167070388,0.1157961934804916,0.0876304805278778,-0.385605126619339,-0.070156380534172,0.1703733950853347,0.0,0.0,0.7567954063415527,0.5058448314666748
-0.1013679504394531,0.107780821621418,0.0849121958017349,-0.3559161126613617,-0.0630436018109321,0.14225535094738,0.0,0.0,0.6987119913101196,0.1183547973632812
-0.10031308978796,0.1002207100391388,0.0978691428899765,-0.3357065618038177,-0.0555132515728473,0.1506069451570511,0.0,0.0,-0.2352185845375061,0.330822229385376
-0.0992590934038162,0.0920499861240387,0.0977766364812851,-0.3628788888454437,-0.0479798503220081,0.150668129324913,0.0,0.0,0.6646342277526855,0.8443671464920044
-0.0981953591108322,0.0844068378210067,0.1005992069840431,-0.3395199775695801,-0.0422779098153114,0.114039123058319,0.0,0.0,0.6975922584533691,0.7877063751220703
-0.0970769897103309,0.0769148170948028,0.1076939851045608,-0.3328683972358703,-0.0381951928138732,0.0816544815897941,0.0,0.0,0.6943387985229492,-0.0660825967788696
-0.096056081354618,0.0697430223226547,0.0985207259654998,-0.3186594247817993,-0.0346646979451179,0.0706101432442665,0.0,0.0,0.7193460464477539,0.3128335475921631
-0.0951742157340049,0.0627852976322174,0.0853441953659057,-0.3091678619384765,-0.0318580642342567,0.0561327748000621,0.0,0.0,0.7513011693954468,0.642059326171875
-0.09409761428833,0.0563540086150169,0.1058056503534317,-0.2857964336872101,-0.0300335772335529,0.0364898964762687,0.0,0.0,0.5495162010192871,0.6866706609725952
-0.0928952246904373,0.0498190745711326,0.1196441054344177,-0.2904309928417206,-0.0294494219124317,0.0116831818595528,0.0,0.0,0.7476522922515869,-0.1426897048950195
-0.0915177315473556,0.0438760854303836,0.1364443898200988,-0.2641071677207947,-0.0281571112573146,0.0258461274206638,0.0,0.0,0.1917521953582763,-0.0804517865180969
-0.0901431068778038,0.0381619073450565,0.136236160993576,-0.2539417445659637,-0.0269435159862041,0.0242719464004039,0.0,0.0,0.5035266876220703,-0.4006000757217407
-0.0886199027299881,0.0329972617328166,0.1504759043455124,-0.2295079082250595,-0.0251324158161878,0.0362223014235496,0.0,0.0,0.714841365814209,-0.8519291877746582
-0.0870639830827713,0.0281228646636009,0.1519034206867218,-0.2165804505348205,-0.0214792340993881,0.0730634406208992,0.0,0.0,0.5825934410095215,-0.9179311394691468
-0.0855740532279014,0.0238222461193799,0.1434556543827057,-0.1910707950592041,-0.0160146988928318,0.1092906445264816,0.0,0.0,0.258726954460144,-0.5797694325447083
-0.0840723067522049,0.0198157411068677,0.143371969461441,-0.1780088245868683,-0.00930483546108,0.1341973692178726,0.0,0.0,0.3403761386871338,-0.7219247221946716
-0.0825543403625488,0.015752874314785,0.1434408873319625,-0.1805437207221985,-0.0010555707849562,0.1649853885173797,0.0,0.0,0.5513800382614136,-0.0350368022918701
-0.0811537727713584,0.0119505738839507,0.1322417557239532,-0.1690026074647903,0.0066551878117024,0.1542153507471084,0.0,0.0,0.5430679321289062,-0.6943605542182922
-0.0799464210867881,0.0082554910331964,0.1118012517690658,-0.164292886853218,0.0154784591868519,0.1764651089906692,0.0,0.0,0.8445289134979248,0.236380934715271
-0.0787762627005577,0.0048935390077531,0.1081888824701309,-0.1495375484228134,0.0241815950721502,0.1740626990795135,0.0,0.0,0.482446551322937,0.6285437345504761
-0.077546402812004,0.0016405200585722,0.1153980046510696,-0.1447210609912872,0.0316789001226425,0.1499461382627487,0.0,0.0,0.7382199764251709,0.523338794708252
-0.076290413737297,-0.0009983086492866,0.1379572451114654,-0.1170986741781234,0.0193860586732625,-0.2459758222103119,0.0,1.0,0.3548907041549682,0.2354029417037964
-0.0751693695783615,-0.0029155875090509,0.1412675082683563,-0.0851123034954071,-0.0094845434650778,-0.5775295495986938,1.0,1.0,-0.065729022026062,-0.9657998085021972
-0.0740817040205001,-0.0047933124005794,0.1237681880593299,-0.0839059054851532,-0.0233737584203481,-0.2765965163707733,1.0,1.0,0.7838335037231445,-0.9563153982162476
-0.0730254203081131,-0.0057568694464862,0.1130695939064025,-0.0429704748094081,-0.0307331196963787,-0.147200733423233,1.0,1.0,0.0253002643585205,-0.9731010794639589
