x_pos,y_pos,x_vel,y_vel,angle,ang_vel,leg_1,leg_2,main_booster,lat_booster
-0.001463794731535,1.403248906135559,-0.1488934606313705,-0.3409366309642792,0.0022625615820288,0.0446680188179016,0.0,0.0,-0.5758294854391952,0.8937179361845362
-0.0027902603615075,1.395221471786499,-0.1334721148014068,-0.3567744493484497,0.0030791426543146,0.0163335148245096,0.0,0.0,-0.8102503636663017,-0.7350922585515303
-0.0040998458862304,1.386812686920166,-0.1334663331508636,-0.3737330138683319,0.0055572930723428,0.049567811191082,0.0,0.0,0.4490073241622845,0.7868937440469328
-0.0054041864350438,1.3786827325820925,-0.1317138820886612,-0.3613375127315521,0.0068132057785987,0.0251208879053592,0.0,0.0,-0.6237708135187199,-0.6587210013960711
-0.006686401553452,1.3701790571212769,-0.1310569941997528,-0.3779608011245727,0.0096252467483282,0.0562462881207466,0.0,0.0,0.8085305900230515,0.517292348376765
-0.0077105523087084,1.362193942070007,-0.1052479892969131,-0.3549135625362396,0.0124281197786331,0.0560625605285167,0.0,0.0,-0.3310233805994409,0.6678129699374711
-0.0086200712248682,1.3538343906402588,-0.0930369421839714,-0.3715552687644958,0.014488972723484,0.0412205979228019,0.0,0.0,0.3727956648119723,-0.621304874866025
-0.0093855857849121,1.345909595489502,-0.0807049199938774,-0.3522539138793945,0.0185981895774602,0.0821917802095413,0.0,0.0,-0.3440864360371902,-0.5562781448758372
-0.010131168179214,1.33761465549469,-0.0803724601864814,-0.3687494099140167,0.0243600979447364,0.1152486354112625,0.0,0.0,0.7521139115061488,-0.5845876740890343
-0.010877227410674,1.3301022052764893,-0.0821393430233001,-0.3340276479721069,0.0318073965609073,0.1489596515893936,0.0,0.0,0.0684040047556924,-0.5813630195496662
-0.0115536693483591,1.322792649269104,-0.0769741088151931,-0.3250864446163177,0.0410361550748348,0.1845923066139221,0.0,0.0,-0.6334197580778778,-0.7605078937237257
-0.0122173307463526,1.3151047229766846,-0.0775718316435813,-0.3420322835445404,0.052125371992588,0.2218039780855178,0.0,0.0,0.1998710581306177,0.8161076884508167
-0.0126692773774266,1.3078217506408691,-0.0553762540221214,-0.3240675628185272,0.0622207336127758,0.201925441622734,0.0,0.0,0.3577739035220473,0.557759943246281
-0.0129673006013035,1.3006067276000977,-0.0395531728863716,-0.3211017549037933,0.0718805938959121,0.1932150423526764,0.0,0.0,-0.9402597319553504,-0.6427422230916758
-0.0132380481809377,1.2930206060409546,-0.0383389964699745,-0.3377378582954407,0.0830452591180801,0.2233134061098098,0.0,0.0,-0.5181924581425303,-0.6074615877331049
-0.0134811401367187,1.2850494384765625,-0.0370809696614742,-0.3550254106521606,0.0957272350788116,0.2536624670028686,0.0,0.0,0.0388581071757223,0.959741348221085
-0.0135309221222996,1.2775455713272097,-0.0163138005882501,-0.3342687785625458,0.1069935485720634,0.2253466099500656,0.0,0.0,-0.5477380906604661,0.673132773881868
-0.0134482383728027,1.2696733474731443,-0.0019165765261277,-0.3506434857845306,0.1171330288052558,0.202807992696762,0.0,0.0,0.8007575610838384,-0.6984157060773158
-0.0133420946076512,1.2627484798431396,-0.0017631724476814,-0.3087862730026245,0.129459410905838,0.2465502917766571,0.0,0.0,0.9976055527643272,0.5300449545676833
-0.0133181568235158,1.2564566135406494,-0.0091101322323083,-0.2806817889213562,0.1409387290477752,0.2296070158481598,0.0,0.0,-0.3201479874237585,0.5387827067193652
-0.0131764411926269,1.2498064041137695,0.0034616731572896,-0.2966106832027435,0.1516388207674026,0.2140211164951324,0.0,0.0,-0.4775013146116205,-0.5018547537968874
-0.0130057334899902,1.242771863937378,0.0048737130127847,-0.3139281868934631,0.1638488173484802,0.244221806526184,0.0,0.0,0.8834243765613996,-0.7356001092702752
-0.0127680776640772,1.2363080978393557,0.00924011785537,-0.2889454662799835,0.1784252971410751,0.2915554344654083,0.0,0.0,0.9353207755496222,-0.5024226566169303
-0.0124815944582223,1.2300198078155518,0.0123716052621603,-0.2815204262733459,0.1947969049215316,0.3274609744548797,0.0,0.0,-0.1613330079763664,-0.879865324128033
-0.0122130392119288,1.223338961601257,0.0079667596146464,-0.2995309829711914,0.2138712704181671,0.3815211057662964,0.0,0.0,0.8687637671899704,-0.7876274323118979
-0.0122808460146188,1.2173625230789185,-0.0273225847631692,-0.2687262296676636,0.2346696555614471,0.4159674644470215,0.0,0.0,-0.7212592912193649,0.5976608008042845
-0.0122361183166503,1.2110381126403809,-0.0152927860617637,-0.2843686640262604,0.2547739148139953,0.4020854830741882,0.0,0.0,-0.4537691583276311,-0.879034593441528
-0.0122077940031886,1.2043226957321167,-0.019449982792139,-0.302489697933197,0.2775548696517944,0.4556193947792053,0.0,0.0,0.9341550769292436,0.842383222019897
-0.0124597549438476,1.1985135078430176,-0.0458359085023403,-0.2622514069080353,0.2988051474094391,0.4250064492225647,0.0,0.0,0.3963020275925744,0.6939100041996462
-0.012732314877212,1.19294011592865,-0.0468894876539707,-0.251867413520813,0.3191343247890472,0.4065837860107422,0.0,0.0,0.0438274883782341,-0.6784564557165278
-0.0131460186094045,1.1877496242523191,-0.0626805871725082,-0.2355456203222274,0.3413712084293365,0.4447378516197204,0.0,0.0,-0.8741730451583862,0.999902367591858
-0.0134275434538722,1.1822209358215332,-0.0481159351766109,-0.2505971491336822,0.36235111951828,0.4195989072322845,0.0,0.0,-0.6371556520462036,0.9974150657653807
-0.01358203869313,1.1763688325881958,-0.0340614058077335,-0.264920562505722,0.3820699453353882,0.3943768143653869,0.0,0.0,-0.6649819016456604,0.9984502792358398
-0.0136029245331883,1.17017924785614,-0.019334452226758,-0.2798204123973846,0.4004773199558258,0.3681475520133972,0.0,0.0,-0.4862692356109619,0.995468020439148
-0.0134842870756983,1.1636697053909302,-0.0037690214812755,-0.2938216924667358,0.4172840416431427,0.3361338078975677,0.0,0.0,-0.7207493185997009,0.9993619918823242
-0.013227748684585,1.156846284866333,0.0116364862769842,-0.3074754476547241,0.432460069656372,0.3035207390785217,0.0,0.0,-0.2731410264968872,0.9967038631439208
-0.0128358844667673,1.1496955156326294,0.026621138677001,-0.3217537999153137,0.4461738467216491,0.2742754817008972,0.0,0.0,0.1400233507156372,0.999404788017273
-0.0125079154968261,1.1429626941680908,0.0217511355876922,-0.3028135001659393,0.458294004201889,0.2424030601978302,0.0,0.0,-0.4397124648094177,0.9958667755126952
-0.0120518682524561,1.135916829109192,0.0359370186924934,-0.3163566589355469,0.468962699174881,0.2133731395006179,0.0,0.0,-0.7659795880317688,0.9861574172973632
-0.0114580150693655,1.1285560131072998,0.0512515008449554,-0.3299258053302765,0.4779747724533081,0.1802423000335693,0.0,0.0,-0.6800040006637573,0.9863145351409912
-0.010744571685791,1.1208746433258057,0.0643394216895103,-0.3438328504562378,0.4857777953147888,0.1560601592063903,0.0,0.0,-0.7052371501922607,0.9959349632263184
-0.0098816873505711,1.1128854751586914,0.0811202228069305,-0.3569156229496002,0.4915648400783539,0.115741454064846,0.0,0.0,-0.7394844889640808,0.9883532524108888
-0.0088703157380223,1.1045780181884766,0.0976621061563491,-0.3704594075679779,0.4954533576965332,0.0777704268693924,0.0,0.0,-0.64588463306427,0.9822158813476562
-0.0077141760848462,1.09596049785614,0.1138502731919288,-0.3836371004581451,0.4974325299263,0.0395840033888816,0.0,0.0,-0.802035927772522,0.9907629489898682
-0.006425476167351,1.0870121717453003,0.1283871531486511,-0.397878348827362,0.4979772269725799,0.0108941281214356,0.0,0.0,-0.7743505239486694,0.9642271995544434
-0.0049972534179687,1.077741026878357,0.1438308805227279,-0.411680519580841,0.4968403875827789,-0.0227368380874395,0.0,0.0,-0.7574284076690674,0.9811097383499146
-0.0034284591674804,1.0681535005569458,0.1594844907522201,-0.4251800179481506,0.4939215183258056,-0.0583775416016578,0.0,0.0,-0.3765214681625366,0.9622318744659424
-0.0017448425060138,1.0582460165023804,0.1720211952924728,-0.4390192031860351,0.4898210763931274,-0.0820085480809211,0.0,0.0,-0.5497575998306274,0.8732860088348389
4.711151268566027e-05,1.0480108261108398,0.1837327182292938,-0.4532971084117889,0.4847536981105804,-0.1013475283980369,0.0,0.0,0.0542553663253784,0.8583781719207764
0.0017974853981286,1.0378681421279907,0.1807767450809478,-0.4487952589988708,0.4783583879470825,-0.1279064267873764,0.0,0.0,-0.2073442935943603,0.9073476791381836
0.0036889077164232,1.027413845062256,0.1966085433959961,-0.4620819389820099,0.4700704216957092,-0.1657590568065643,0.0,0.0,-0.1043269038200378,-0.1010832786560058
0.0056427954696118,1.016587495803833,0.2024769037961959,-0.4787888824939728,0.4622422456741333,-0.1565634906291961,0.0,0.0,0.4912785291671753,0.1152641773223877
0.0075681684538722,1.0059938430786133,0.1988259255886078,-0.4687532782554626,0.4553230106830597,-0.1383855044841766,0.0,0.0,0.268496036529541,0.2124221324920654
0.0092881200835108,0.9958548545837402,0.1778835356235504,-0.4487177431583404,0.4488596320152282,-0.1292679607868194,0.0,0.0,0.361093521118164,0.2632741928100586
0.0110054016113281,0.985966145992279,0.1767251789569854,-0.4379099905490875,0.4433999955654144,-0.1091927140951156,0.0,0.0,-0.2966072559356689,0.6359230279922485
0.0128220561891794,0.9757292866706848,0.1872874200344085,-0.4532045423984527,0.4372552335262298,-0.1228952407836914,0.0,0.0,0.50701904296875,0.8071274757385254
0.0145323751494288,0.9662153720855712,0.1777276396751403,-0.4207740724086761,0.4299695491790771,-0.1457137167453766,0.0,0.0,-0.501936137676239,0.5411574840545654
0.0163484569638967,0.9563636183738708,0.1892410069704055,-0.4355500936508178,0.4217026829719543,-0.1653372347354889,0.0,0.0,0.6492874622344971,-0.6915254592895508
0.0179093368351459,0.947287142276764,0.1619022935628891,-0.4016723036766052,0.4154223799705505,-0.1256061047315597,0.0,0.0,-0.2561066150665283,0.7548807859420776
0.019573401659727,0.9378750920295716,0.173156127333641,-0.4163406789302826,0.4081458151340484,-0.1455312073230743,0.0,0.0,-0.2311131954193115,0.4878931045532226
0.0212942119687795,0.928090274333954,0.1785182356834411,-0.4330413043498993,0.4012356400489807,-0.1382036358118057,0.0,0.0,0.5479623079299927,0.8071644306182861
0.022775363177061,0.9188199639320374,0.1559431850910186,-0.4098252952098846,0.3928447365760803,-0.1678186953067779,0.0,0.0,0.9102376699447632,0.8402194976806641
0.0242884643375873,0.910131335258484,0.1601874232292175,-0.3837424516677856,0.3833603262901306,-0.1896882504224777,0.0,0.0,0.6924936771392822,0.7904900312423706
0.0257021896541118,0.9019941687583924,0.1515032649040222,-0.3589624166488647,0.3726095259189605,-0.2150152176618576,0.0,0.0,0.883101224899292,0.7112739086151123
0.0270647052675485,0.8941539525985718,0.1474954336881637,-0.3455692231655121,0.360722154378891,-0.2377476394176483,0.0,0.0,0.907917618751526,0.9955391883850098
0.0281620975583791,0.8868574500083923,0.1229425072669982,-0.3210324048995971,0.3468270301818847,-0.2779031097888946,0.0,0.0,0.4115238189697265,0.9793401956558228
0.0291506759822368,0.8802815675735474,0.1138026937842369,-0.2887386083602905,0.3311825394630432,-0.3128906190395355,0.0,0.0,-0.8456985950469971,0.9827213287353516
0.0302737243473529,0.8733667731285095,0.1292916089296341,-0.3035370409488678,0.3135037422180176,-0.3535758256912231,0.0,0.0,0.9723377227783204,0.8545739650726318
0.0312253944575786,0.8675927519798279,0.1136646494269371,-0.2527453601360321,0.2943550646305084,-0.3829734921455383,0.0,0.0,0.0093640089035034,0.1287488937377929
0.032084085047245,0.861838698387146,0.1045528799295425,-0.2520729303359985,0.2751276791095733,-0.384548008441925,0.0,0.0,0.3704668283462524,0.382771372795105
0.0327614769339561,0.8564944267272949,0.0867092087864875,-0.2340682595968246,0.2557093501091003,-0.3883663117885589,0.0,0.0,-0.8554057478904724,0.2260971069335937
0.0334818847477436,0.8507801294326782,0.09098382294178,-0.2507860064506531,0.2364257425069809,-0.3856717050075531,0.0,0.0,0.0503606796264648,0.402085542678833
0.0340385437011718,0.8454497456550598,0.0749628990888595,-0.2339225262403488,0.2168704569339752,-0.3911060094833374,0.0,0.0,0.0404621362686157,-0.0616188049316406
0.0346021652221679,0.840296745300293,0.0754516497254371,-0.2263296991586685,0.1976080238819122,-0.3852487206459045,0.0,0.0,-0.8415384888648987,-0.1059614419937133
0.0352042205631732,0.8347734212875366,0.0793144255876541,-0.2430453449487686,0.1783955842256546,-0.3842488527297973,0.0,0.0,-0.7617221474647522,0.142870545387268
0.0358429923653602,0.8288794159889221,0.0830294862389564,-0.2597604393959045,0.1592038869857788,-0.383834034204483,0.0,0.0,-0.1676015257835388,-0.7608948945999146
0.03645496442914,0.82259202003479,0.0788189619779586,-0.2776488959789276,0.1416107714176178,-0.3518616557121277,0.0,0.0,-0.5488293170928955,-0.8738256096839905
0.0370301231741905,0.8159258365631104,0.0734386965632438,-0.2948388457298279,0.125746339559555,-0.3172886371612549,0.0,0.0,0.2666863203048706,-0.8950132727622986
0.0375574119389057,0.8098268508911133,0.0669204890727996,-0.2699370682239532,0.1116433590650558,-0.2820594608783722,0.0,0.0,-0.1055169105529785,-0.80720454454422
0.0380383506417274,0.8033499121665955,0.0604842081665992,-0.2869851887226105,0.0993506461381912,-0.2458545863628387,0.0,0.0,-0.6096493601799011,-0.905337929725647
0.0384610183537006,0.7964767813682556,0.0525805279612541,-0.3048166036605835,0.0891284495592117,-0.2044442445039749,0.0,0.0,-0.9235304594039916,-0.9376029372215272
0.0388400070369243,0.7892284989356995,0.0466077663004398,-0.3216535747051239,0.080493077635765,-0.1727072894573211,0.0,0.0,-0.9997568130493164,-0.9605416655540466
0.039154052734375,0.7815945744514465,0.0380524918437004,-0.3389438986778259,0.0739121884107589,-0.1316173523664474,0.0,0.0,-0.943551540374756,-0.9225916266441344
0.03941011428833,0.7735804319381714,0.0304366406053304,-0.3559508323669433,0.0691277161240577,-0.0956893563270568,0.0,0.0,-0.9850473999977112,-0.7644418478012085
0.0396239273250103,0.7651886343955994,0.0248840488493442,-0.3728193640708923,0.0656622648239135,-0.0693089291453361,0.0,0.0,-0.9608500003814696,-0.7021746635437012
0.0398076996207237,0.7564164400100708,0.0209371242672204,-0.3897586464881897,0.0631359219551086,-0.050526987761259,0.0,0.0,-0.9064236283302308,-0.6900164484977722
0.0399548523128032,0.7472571730613708,0.0162139404565095,-0.4070206880569458,0.0616513974964618,-0.0296905152499675,0.0,0.0,-0.9139857292175292,0.2504085302352905
0.0401152595877647,0.7377220988273621,0.0178440194576978,-0.4237037003040313,0.059865977615118,-0.0357084646821022,0.0,0.0,-0.7829170227050781,-0.2480331063270568
0.0402867309749126,0.7278115153312683,0.0192862972617149,-0.4403867721557617,0.0577592514455318,-0.0421346575021743,0.0,0.0,-0.9678614735603333,-0.2391010522842407
0.0404674522578716,0.7175252437591553,0.0205407086759805,-0.4570699334144592,0.0553120635449886,-0.0489437617361545,0.0,0.0,-0.9335073828697203,-0.4257341623306274
0.0406551361083984,0.706863522529602,0.0216077007353305,-0.4737531840801239,0.0525065325200557,-0.0561105832457542,0.0,0.0,-0.8866196870803833,-0.7496234774589539
0.0407915115356445,0.6958274245262146,0.0154172703623771,-0.4904313087463379,0.0507399886846542,-0.0353308282792568,0.0,0.0,-0.9793041348457336,-0.36501145362854
0.0409308448433876,0.6844157576560974,0.0161127224564552,-0.5071142911911011,0.0485830083489418,-0.0431392341852188,0.0,0.0,-0.9389715790748596,-0.01625257730484
0.0410711281001567,0.6726285219192505,0.0166250616312026,-0.5237973928451538,0.0460213720798492,-0.0512329638004303,0.0,0.0,-0.9913504719734192,-0.6257385015487671
0.0411568656563758,0.6604601740837097,0.0102137681096792,-0.5407674312591553,0.0443958491086959,-0.0325104668736457,0.0,0.0,-0.9232670664787292,-0.503929853439331
0.041205309331417,0.6479200124740601,0.0060534998774528,-0.557310163974762,0.0432010777294635,-0.0238953121006488,0.0,0.0,-0.8385944366455078,-0.0407918095588684
0.0412490852177143,0.6350040435791016,0.0060323704965412,-0.5739930868148804,0.041565291583538,-0.032715730369091,0.0,0.0,-0.7528649568557739,-0.465327501296997
0.0412863716483116,0.6217126250267029,0.0058400696143507,-0.5906761288642883,0.0394783467054367,-0.0417390391230583,0.0,0.0,-0.7323707938194275,-0.333141565322876
0.0413153655827045,0.6080456376075745,0.0054805069230496,-0.6073593497276306,0.0369309559464454,-0.0509475991129875,0.0,0.0,-0.780968964099884,-0.7245503067970276
0.041271973401308,0.5940048098564148,-0.0028835486155003,-0.6240027546882629,0.0354834049940109,-0.028950935229659,0.0,0.0,-0.7607694864273071,-0.5616773366928101
0.0411661155521869,0.5795896649360657,-0.0099135721102356,-0.6406568884849548,0.0348295383155345,-0.0130775105208158,0.0,0.0,-0.7585837841033936,-0.0807945132255554
0.0410470962524414,0.5647990107536316,-0.0107486601918935,-0.657339870929718,0.0336920954287052,-0.02274851500988,0.0,0.0,-0.8465837836265564,0.4953498840332031
0.0409133918583393,0.549632728099823,-0.0117326984182,-0.674022912979126,0.0320647656917572,-0.0325463749468326,0.0,0.0,-0.5025342702865601,-0.881690502166748
0.0406761169433593,0.5340845584869385,-0.0237932335585355,-0.6910284161567688,0.0321340039372444,0.001384733361192,0.0,0.0,-0.635962724685669,-0.6146540641784668
0.0403809547424316,0.5181625485420227,-0.0300945304334163,-0.7076577544212341,0.0327094905078411,0.0115094119682908,0.0,0.0,-0.4351587295532226,-0.3497106432914734
0.0400667190551757,0.5018649101257324,-0.0314944460988044,-0.7243407964706421,0.0327793806791305,0.0013979471987113,0.0,0.0,-0.4751830697059631,-0.2419381141662597
0.0397320762276649,0.4851915836334228,-0.0330222882330417,-0.74102383852005,0.0323394350707531,-0.0087988628074526,0.0,0.0,0.8374514579772949,-0.853352427482605
0.0392520911991596,0.469439148902893,-0.0486901253461837,-0.7001255750656128,0.0330290123820304,0.0137912882491946,0.0,0.0,-0.4232023954391479,-0.3316115140914917
0.0387492179870605,0.4533110857009887,-0.0504574477672576,-0.716808557510376,0.0332013927400112,0.0034475326538085,0.0,0.0,0.1231424808502197,0.2277909517288208
0.0382611267268657,0.4374006986618042,-0.0487022250890731,-0.7071279883384705,0.033093262463808,-0.0021625494118779,0.0,0.0,0.1466575860977172,0.1214206218719482
0.0377241149544715,0.4219639301300049,-0.0530369095504283,-0.6860640048980713,0.0324387475848197,-0.0130903106182813,0.0,0.0,0.4230661392211914,-0.1560257673263549
0.0371912941336631,0.4071711301803589,-0.0523423738777637,-0.6574381589889526,0.0315000601112842,-0.0187734793871641,0.0,0.0,0.4205183982849121,-0.5598618984222412
0.0366497039794921,0.3925924301147461,-0.0539704486727714,-0.6479402780532837,0.0313185937702655,-0.003629186656326,0.0,0.0,0.4324395656585693,-0.249946117401123
0.0359573364257812,0.378436803817749,-0.0680209919810295,-0.6291125416755676,0.0301164127886295,-0.0240435693413019,0.0,0.0,0.0475246906280517,0.2147670984268188
0.0351449027657508,0.3643913269042969,-0.0791117921471595,-0.6242024898529053,0.0280057284981012,-0.0422137156128883,0.0,0.0,0.1742361783981323,0.1038993597030639
0.0342761054635047,0.3505703806877136,-0.084125205874443,-0.6142128705978394,0.0252904556691646,-0.0543055310845375,0.0,0.0,0.2455663681030273,0.1666420698165893
0.0333863273262977,0.3369778096675873,-0.0857842043042182,-0.6040622591972351,0.0221303831785917,-0.0632014125585556,0.0,0.0,0.6818722486495972,-0.1813761591911316
0.0325900092720985,0.3235632479190826,-0.0765023157000541,-0.5961609482765198,0.0190484914928674,-0.0616378784179687,0.0,0.0,0.1989694833755493,0.2580204010009765
0.0318232551217079,0.3105194866657257,-0.0733473300933837,-0.5796841979026794,0.015755757689476,-0.0658547580242157,0.0,0.0,0.4862099885940552,0.3188188076019287
0.031035041436553,0.2981891930103302,-0.0750412791967392,-0.5479772090911865,0.0120281744748353,-0.0745517238974571,0.0,0.0,0.68534255027771,-0.4009456038475036
0.0302748680114746,0.2859621047973633,-0.0719891861081123,-0.5433980226516724,0.008060909807682,-0.0793453305959701,0.0,0.0,0.3435308933258056,-0.1273409128189087
0.0295570380985736,0.2741138339042663,-0.0675929561257362,-0.5265746116638184,0.0039216931909322,-0.0827846080064773,0.0,0.0,0.7486472129821777,-0.661536693572998
