x_pos,y_pos,x_vel,y_vel,angle,ang_vel,leg_1,leg_2,main_booster,lat_booster
-0.0016189574962481,1.402940034866333,-0.1643576323986053,-0.3546718060970306,0.0022013313136994,0.043456070125103,0.0,0.0,-0.6721650479818657,-0.769796561312744
-0.0033895492088049,1.3942949771881104,-0.1809979379177093,-0.3842424154281616,0.0061046495102345,0.0780742391943931,0.0,0.0,0.1176915306214945,0.8114035221700244
-0.0050896643660962,1.3853704929351809,-0.1727819740772247,-0.3966548144817352,0.0088472533971071,0.0548570454120636,0.0,0.0,0.4937145551731696,0.9989046299535276
-0.0069345473311841,1.3764352798461914,-0.1855067163705825,-0.3971281051635742,0.0098552927374839,0.0201625470072031,0.0,0.0,-0.1933115762266726,-0.6594143472306968
-0.0089162830263376,1.3668171167373655,-0.2006057202816009,-0.4274955689907074,0.0122589515522122,0.0480777509510517,0.0,0.0,-0.794273875592906,-0.8405545471163565
-0.0110452650114893,1.3565125465393066,-0.2169958800077438,-0.4580210149288177,0.0163167677819728,0.0811636596918106,0.0,0.0,0.9254952042401676,-0.9468713734712388
-0.0133847240358591,1.3465309143066406,-0.2402710914611816,-0.4437135457992553,0.0225635170936584,0.1249466761946678,0.0,0.0,-0.0118959307378065,0.6153358342876633
-0.0157598499208688,1.3358688354492188,-0.2426627874374389,-0.4739526510238647,0.0276604685932397,0.1019485741853714,0.0,0.0,0.0726445666779296,0.9196173004526208
-0.0181827545166015,1.3253501653671265,-0.2459749728441238,-0.4675716459751129,0.0313068479299545,0.0729342177510261,0.0,0.0,-0.4544137509486454,-0.8694902185318163
-0.0207696910947561,1.3141494989395142,-0.2645044326782226,-0.4979402124881744,0.0370513536036014,0.1149005889892578,0.0,0.0,0.0431541925932714,0.9479731819705056
-0.0233261100947856,1.3028359413146973,-0.2599124014377594,-0.5029335618019104,0.041278563439846,0.0845516547560691,0.0,0.0,-0.4621016612642903,0.9476591860695784
-0.0258938781917095,1.2908414602279663,-0.2593068480491638,-0.5331612229347229,0.0437820851802825,0.0500751808285713,0.0,0.0,-0.104804367290876,-0.9472384966159032
-0.0286147110164165,1.2781639099121094,-0.2764778137207031,-0.5635815262794495,0.0481335595250129,0.087037518620491,0.0,0.0,0.6028924966098137,-0.7836319046930044
-0.0314336791634559,1.2653123140335083,-0.2883791625499725,-0.5714015960693359,0.0545536130666732,0.1284127384424209,0.0,0.0,0.5178997092027733,-0.8078887115328474
-0.0343070998787879,1.252926468849182,-0.2960689961910248,-0.5508161783218384,0.0631859600543975,0.1726628839969635,0.0,0.0,-0.857437443873946,0.7108322720045092
-0.0372073166072368,1.2398552894592283,-0.2974303960800171,-0.581273078918457,0.0705267116427421,0.1468283087015152,0.0,0.0,-0.0874952241318955,-0.9700805798597568
-0.0402596481144428,1.226105809211731,-0.3145123124122619,-0.6115441918373108,0.0797286629676818,0.1840559244155883,0.0,0.0,-0.6127687477427659,0.918423199212108
-0.0433141700923442,1.2116761207580566,-0.3128409385681152,-0.6417244672775269,0.0870501399040222,0.1464427709579467,0.0,0.0,0.5863413704425924,0.7156148608423072
-0.0463692657649517,1.1977423429489136,-0.312034547328949,-0.619671642780304,0.0935302823781967,0.1296145617961883,0.0,0.0,0.8436289260625842,-0.6859650136992438
-0.0497246757149696,1.1840466260910034,-0.3435803949832916,-0.6092177629470825,0.1015141308307647,0.1596914082765579,0.0,0.0,0.3830099923137322,-0.6580343933515989
-0.0531686767935752,1.1706218719482422,-0.3543471693992615,-0.5973547697067261,0.1114030480384826,0.1977963000535965,0.0,0.0,0.505637994965213,0.8216116490121117
-0.0566699989140033,1.157123565673828,-0.3588175475597381,-0.6005921959877014,0.1200485825538635,0.1729260832071304,0.0,0.0,0.5393573507253613,-0.6243621049747348
-0.060238741338253,1.143712043762207,-0.3674662709236145,-0.5969558358192444,0.1306103616952896,0.2112544476985931,0.0,0.0,-0.8103850958501957,0.9776030189336432
-0.0638084411621093,1.1296238899230957,-0.3657519817352295,-0.6269353628158569,0.1393721252679824,0.1752510368824005,0.0,0.0,0.7001397571109398,-0.8535288270553771
-0.0677842125296592,1.1157913208007812,-0.4081528782844543,-0.6157980561256409,0.1499386727809906,0.2113497257232666,0.0,0.0,0.2803350254469277,-0.649470057069681
-0.0720998793840408,1.1020286083221436,-0.443604052066803,-0.6129340529441833,0.1619681268930435,0.2405891716480255,0.0,0.0,-0.4934018623759655,0.6825443652303373
-0.0764467269182205,1.0876013040542605,-0.4456961154937744,-0.642450213432312,0.1729932874441146,0.2205029726028442,0.0,0.0,-0.5361739180179101,0.676978946382243
-0.0808362960815429,1.072509765625,-0.4492565989494324,-0.6719731688499451,0.1833237111568451,0.2066082656383514,0.0,0.0,-0.9842159519970464,0.6600769608956856
-0.0852684006094932,1.0567525625228882,-0.4528214931488037,-0.7015447020530701,0.1929836869239807,0.1931993663311004,0.0,0.0,-0.8157329721700108,0.7364359716976655
-0.0897255912423133,1.0403263568878174,-0.4542828202247619,-0.7311962246894836,0.2015870064496994,0.1720666885375976,0.0,0.0,-0.5496279625444145,0.9512975365512264
-0.0941880196332931,1.0232510566711426,-0.4531761109828949,-0.7598601579666138,0.2085782289505005,0.1398249417543411,0.0,0.0,-0.9312485999249218,-0.8907604407752147
-0.0988055244088172,1.0054636001586914,-0.4710405766963959,-0.79189532995224,0.2179609090089798,0.1876536011695861,0.0,0.0,0.9978885198143136,0.9870611818138704
-0.1037426963448524,0.9884119033813475,-0.5011851191520691,-0.7589815258979797,0.2255224287509918,0.1512308418750763,0.0,0.0,-0.0756532560045069,0.8735697522380924
-0.1086937934160232,0.9706903100013732,-0.5013822317123413,-0.7885997891426086,0.231876865029335,0.1270882487297058,0.0,0.0,-0.5788268962020924,-0.865983680590514
-0.1137838363647461,0.9522649049758912,-0.5172815918922424,-0.8202337622642517,0.2402867674827575,0.1681981831789016,0.0,0.0,0.1642004058892434,0.9898149326581072
-0.1189836487174034,0.933973789215088,-0.5266259908676147,-0.8140344023704529,0.2470469623804092,0.1352040022611618,0.0,0.0,-0.0342117332989564,-0.7945445215962771
-0.1243167892098426,0.9149723052978516,-0.5419563055038452,-0.84598308801651,0.2558383047580719,0.1758268177509308,0.0,0.0,-0.3155521189400283,-0.6540115220379108
-0.1297669410705566,0.8952754735946655,-0.5551716089248657,-0.8772264719009399,0.2662138938903808,0.2075118720531463,0.0,0.0,0.7514175205080855,-0.631071803387866
-0.1356123983860016,0.8761588335037231,-0.5961407423019409,-0.8517785668373108,0.2780979871749878,0.2376816719770431,0.0,0.0,-0.8670623640925184,0.9972144182852672
-0.1414448767900467,0.8563957214355469,-0.5930849313735962,-0.8802648186683655,0.288206547498703,0.2021711617708206,0.0,0.0,-0.9380529748635702,0.8793056679314533
-0.1472883224487304,0.8359820246696472,-0.5930496454238892,-0.9090227484703064,0.2971781194210052,0.1794312745332718,0.0,0.0,0.1141029596328735,0.890474796295166
-0.1531366407871246,0.815464198589325,-0.5921009182929993,-0.9134098291397096,0.3046903908252716,0.1502461731433868,0.0,0.0,0.0287386178970336,0.9904787540435792
-0.1589574813842773,0.794600784778595,-0.5876833200454712,-0.9284486770629884,0.3104838132858276,0.1158689856529235,0.0,0.0,0.1487836837768554,0.9857228994369508
-0.1647968292236328,0.7736506462097168,-0.5878965258598328,-0.9319674372673036,0.3145864605903625,0.0820532515645027,0.0,0.0,0.3931156396865845,0.9932796955108644
-0.1707303971052169,0.752378523349762,-0.5956523418426514,-0.945927619934082,0.3169775307178497,0.0478214472532272,0.0,0.0,0.4461662769317627,0.9993536472320556
-0.1766887605190277,0.7308889627456665,-0.5965225100517273,-0.9552408456802368,0.3176897168159485,0.0142437685281038,0.0,0.0,0.846343994140625,0.9851431846618652
-0.182708740234375,0.709494948387146,-0.6011566519737244,-0.9506691694259644,0.3168226778507232,-0.0173407848924398,0.0,0.0,0.8794739246368408,0.9991554021835328
-0.1891378462314605,0.6887499690055847,-0.6401896476745605,-0.9214098453521729,0.3140022158622741,-0.0564093478024005,0.0,0.0,0.9452798366546632,0.87351393699646
-0.1960014402866363,0.668605625629425,-0.6818823218345642,-0.8943425416946411,0.3093635439872741,-0.0927736088633537,0.0,0.0,0.6886357069015503,0.9563462734222412
-0.2030206620693206,0.6485418677330017,-0.6958256959915161,-0.8904324769973755,0.3030426204204559,-0.1264185011386871,0.0,0.0,0.6999876499176025,0.916467547416687
-0.2100338041782379,0.6287425756454468,-0.6938985586166382,-0.8784428834915161,0.2953829765319824,-0.1531930118799209,0.0,0.0,0.8546028137207031,0.9247350692749025
-0.2173304110765457,0.6094540357589722,-0.7205553650856018,-0.8554497957229614,0.2859984040260315,-0.1876915097236633,0.0,0.0,0.7316055297851562,0.8054237365722656
-0.2246164381504058,0.5902299284934998,-0.7183782458305359,-0.852439820766449,0.2754888832569122,-0.2101897746324539,0.0,0.0,0.8406145572662354,0.4890801906585693
-0.2321794480085373,0.571607768535614,-0.7463223934173584,-0.8258001208305359,0.2652603983879089,-0.2045697420835495,0.0,0.0,0.0360268354415893,0.7041256427764893
-0.239701896905899,0.5528077483177185,-0.7411657571792603,-0.8335956335067749,0.2539437413215637,-0.2263333797454834,0.0,0.0,0.3888897895812988,0.5252975225448608
-0.2474021911621093,0.5338815450668335,-0.7579182386398315,-0.8391172289848328,0.241610050201416,-0.2466737478971481,0.0,0.0,0.500748872756958,0.4067627191543579
-0.2552255690097809,0.5153586268424988,-0.7708054780960083,-0.821392834186554,0.2299071997404098,-0.2340573519468307,0.0,0.0,0.3229423761367798,-0.030128002166748
-0.2630949914455414,0.49698007106781,-0.7761207818984985,-0.8151708245277405,0.2189403772354126,-0.2193364351987838,0.0,0.0,0.4426407814025879,-0.1214319467544555
-0.2710856795310974,0.4789931774139404,-0.788724958896637,-0.797918438911438,0.2084885984659195,-0.2090354710817337,0.0,0.0,-0.2223383784294128,-0.0923738479614257
-0.2791032195091247,0.4603237211704254,-0.791585385799408,-0.8283504843711853,0.1982378363609314,-0.2050151377916336,0.0,0.0,0.8190274238586426,-0.5407455563545227
-0.2872084081172943,0.4415716528892517,-0.8017650842666626,-0.8322770595550537,0.1894330084323883,-0.1760961562395095,0.0,0.0,0.8427901268005371,-0.8715324401855469
-0.2956732809543609,0.4232392311096191,-0.839404284954071,-0.8138884902000427,0.1823225766420364,-0.1422086954116821,0.0,0.0,0.7040122747421265,-0.9710708856582642
-0.3041903972625732,0.4050256609916687,-0.8469185829162598,-0.8089092373847961,0.1775111109018325,-0.0962292402982711,0.0,0.0,0.7417569160461426,-0.9865067601203918
-0.3128905296325683,0.3870704472064972,-0.8673676252365112,-0.7976951599121094,0.1748588532209396,-0.0530451424419879,0.0,0.0,0.9154313802719116,-0.9756969213485718
-0.3217543661594391,0.3690930604934692,-0.8858404159545898,-0.7989323139190674,0.1743124425411224,-0.0109281446784734,0.0,0.0,0.8154475688934326,-0.9773722887039183
-0.3309727311134338,0.3513318300247192,-0.923128604888916,-0.7895410060882568,0.175611063838005,0.0259721092879772,0.0,0.0,0.5427629947662354,-0.9680831432342528
-0.3403995037078857,0.334063857793808,-0.9460194706916808,-0.7678676843643188,0.178962841629982,0.0670356228947639,0.0,0.0,0.0325957536697387,-0.8376219868659973
-0.3498764038085937,0.3163702189922333,-0.952798068523407,-0.7870084643363953,0.1840879619121551,0.1025025621056556,0.0,0.0,0.1400048732757568,-0.7119318246841431
-0.3595083355903625,0.2988598942756653,-0.9697924852371216,-0.7790711522102356,0.1907194703817367,0.1326302587985992,0.0,0.0,0.0786372423171997,-0.5170519351959229
-0.3693155348300934,0.2810879349708557,-0.9882675409317015,-0.7908546328544617,0.1983120292425155,0.1518511772155761,0.0,0.0,0.09110689163208,-0.5709571242332458
-0.379330575466156,0.2632591724395752,-1.0100972652435305,-0.7935647964477539,0.2069698572158813,0.1731564253568649,0.0,0.0,0.0199974775314331,-0.8186293244361877
-0.3894740641117096,0.245299607515335,-1.0245634317398071,-0.7996639013290405,0.2172838151454925,0.2062788754701614,0.0,0.0,-0.2878365516662597,-0.6643316745758057
-0.3996875286102295,0.2266439497470855,-1.0331248044967651,-0.8309204578399658,0.2292048037052154,0.2384197264909744,0.0,0.0,0.1140954494476318,-0.5382064580917358
-0.409983217716217,0.2078787833452224,-1.0424456596374512,-0.8360646963119507,0.2422788292169571,0.2614808678627014,0.0,0.0,0.3101648092269897,-0.1002001166343689
-0.420383870601654,0.1888733059167862,-1.0527387857437134,-0.8468325734138489,0.2551828920841217,0.2580809891223907,0.0,0.0,-0.1768392324447631,-0.0775285959243774
-0.4307882785797119,0.1691853106021881,-1.0530024766921997,-0.8772642612457275,0.2680233120918274,0.2568082511425018,0.0,1.0,0.1631029844284057,0.9991793632507324
-0.4397306442260742,0.1523202210664749,-0.8949599266052246,-0.7500090003013611,0.269839733839035,0.0375274419784545,0.0,1.0,0.942089319229126,0.9996154308319092
-0.4493172168731689,0.1365715116262436,-0.9380760192871094,-0.6962971091270447,0.2488055378198623,-0.4207006990909576,0.0,1.0,0.9373736381530762,0.9974491596221924
-0.4578109681606293,0.1258076280355453,-0.5122575163841248,-0.1048921793699264,0.1854997277259826,-2.581904411315918,0.0,1.0,0.9373736381530762,0.9974491596221924
