x_pos,y_pos,x_vel,y_vel,angle,ang_vel,leg_1,leg_2,main_booster,lat_booster
-0.0015284537803381,1.403529167175293,-0.1553801596164703,-0.3284826874732971,0.0022725323215126,0.0448658540844917,0.0,0.0,0.6615692219409821,0.6090985433298497
-0.0029575347434729,1.3967597484588623,-0.1445748507976532,-0.3008743524551391,0.0039154277183115,0.0328617431223392,0.0,0.0,-0.2636241092347688,-0.576863789604944
-0.0044246674515306,1.3898898363113403,-0.149745374917984,-0.3053337335586548,0.006916276179254,0.0600224658846855,0.0,0.0,0.4442754155682944,-0.6538202418004961
-0.0060623167082667,1.3835763931274414,-0.1683126837015152,-0.2806257009506225,0.0114212129265069,0.0901069194078445,0.0,0.0,0.571693886596834,-0.8122887741081894
-0.0076354024931788,1.3781023025512695,-0.1641801744699478,-0.2433566302061081,0.0182183682918548,0.1359554827213287,0.0,0.0,0.0202589235070138,-0.5431265869738507
-0.0091629028320312,1.3730376958847046,-0.161302164196968,-0.2252289950847625,0.0266757942736148,0.16916424036026,0.0,0.0,0.7313940367486538,0.858605591752925
-0.0106644630432128,1.36878764629364,-0.1573524177074432,-0.1890308558940887,0.0337925106287002,0.1423474550247192,0.0,0.0,0.8199303869918382,-0.737975443534108
-0.0120678897947072,1.3655202388763428,-0.1498305201530456,-0.1454634219408035,0.0431862957775592,0.1878928244113922,0.0,0.0,0.0235618900720298,0.915559649058454
-0.0134286880493164,1.3629497289657593,-0.1441166400909423,-0.1145011186599731,0.0511372275650501,0.159033328294754,0.0,0.0,-0.3545611000091282,-0.7015787652164969
-0.014842128381133,1.3602850437164309,-0.151141420006752,-0.1187839433550834,0.0608366541564464,0.1940064430236816,0.0,0.0,-0.7786393643212142,-0.6504942024044744
-0.0162962917238473,1.3575236797332764,-0.1566506326198578,-0.123224951326847,0.071976289153099,0.2228129804134369,0.0,0.0,0.6002924713060973,0.8732152940027225
-0.0176383014768362,1.3554481267929075,-0.1441298425197601,-0.0927502065896987,0.081818901002407,0.1968701779842376,0.0,0.0,-0.8006960692862231,-0.7244240769720168
-0.01902093924582,1.353277325630188,-0.1496151089668274,-0.0971407517790794,0.0930828973650932,0.2253006398677826,0.0,0.0,-0.7921326560059523,-0.5085427450047029
-0.0204341895878314,1.3510037660598757,-0.1538337916135788,-0.1018687635660171,0.105514295399189,0.2486504018306732,0.0,0.0,0.3267358673959817,0.6830256471477818
-0.0217342376708984,1.3496602773666382,-0.1415875852108001,-0.0605712980031967,0.1170485243201255,0.2307054996490478,0.0,0.0,0.5431591542215322,-0.6693292878691224
-0.0230020526796579,1.3486398458480835,-0.1401737779378891,-0.0464518815279006,0.1303839981555938,0.2667340040206909,0.0,0.0,0.416236687959969,0.5620544501178493
-0.0241895671933889,1.3486576080322266,-0.1314952820539474,-0.0003732367767952,0.1430948674678802,0.254240334033966,0.0,0.0,-0.1748520432805604,-0.9620576238830524
-0.0254284851253032,1.3485623598098757,-0.1382534205913543,-0.0056819338351488,0.1574538052082061,0.2872043251991272,0.0,0.0,0.4214908519392706,0.6937509410440847
-0.026625920087099,1.3494387865066528,-0.133009523153305,0.0374982543289661,0.1707416176795959,0.2657807469367981,0.0,0.0,-0.3071907642559441,-0.7113979267610162
-0.0278809554874897,1.3502061367034912,-0.1404641717672348,0.0323174223303794,0.1857715845108032,0.3006261885166168,0.0,0.0,-0.928530223106061,0.6425807611212868
-0.0290713310241699,1.3509029150009155,-0.1325018852949142,0.0292206536978483,0.1993385404348373,0.2713635265827179,0.0,0.0,-0.0325735784049048,0.6049099834948124
-0.0302085876464843,1.351517915725708,-0.1260142028331756,0.0256260391324758,0.2117473930120468,0.2481995075941085,0.0,0.0,-0.698349444149208,-0.7674321144064832
-0.0313874259591102,1.352023720741272,-0.1313885301351547,0.0204922817647457,0.2254190146923065,0.2734569013118744,0.0,0.0,0.3094543199430599,0.5551438712782149
-0.0325147621333599,1.3528274297714231,-0.1252432167530059,0.0337511301040649,0.2381297498941421,0.2542377114295959,0.0,0.0,0.3640587919912335,-0.9208497487243656
-0.0339650139212608,1.3542417287826538,-0.1592211425304412,0.0604978613555431,0.2525920867919922,0.289272129535675,0.0,0.0,-0.7954128607455329,0.9807091090307825
-0.0353522300720214,1.3555691242218018,-0.1513817459344864,0.0567715242505073,0.2655238807201385,0.258635938167572,0.0,0.0,0.7286109362819404,0.9179298808427704
-0.036862276494503,1.3579390048980713,-0.1617715805768966,0.103343091905117,0.276551753282547,0.2205577343702316,0.0,0.0,0.8346298229431417,0.672354428555052
-0.0387205109000206,1.361501693725586,-0.1947951018810272,0.1566133499145507,0.2857635915279388,0.184236854314804,0.0,0.0,-0.3800056403509513,-0.7963032826204545
-0.0406509414315223,1.3649441003799438,-0.203795239329338,0.1508500277996063,0.2968421280384063,0.2215714752674102,0.0,0.0,-0.5052004679397557,0.7992089382806707
-0.0425209030508995,1.3683159351348877,-0.1960954368114471,0.1479790061712265,0.3062384128570556,0.1879259496927261,0.0,0.0,0.2470484439912834,0.974865013500218
-0.0444959625601768,1.3725595474243164,-0.204513669013977,0.1871105283498764,0.3135026693344116,0.1452849209308624,0.0,0.0,-0.956505298614502,-0.2862492799758911
-0.0464707389473915,1.3767082691192627,-0.2043156921863556,0.182880014181137,0.3206065893173218,0.1420786678791046,0.0,0.0,-0.8782814145088196,0.5290571451187134
-0.048413086682558,1.3807828426361084,-0.1999832689762115,0.1798131614923477,0.3265924155712127,0.1197166219353675,0.0,0.0,-0.9927419424057008,-0.6006942987442017
-0.0504052154719829,1.3847317695617676,-0.2060620039701461,0.1739436239004135,0.3337402641773224,0.14295694231987,0.0,0.0,-0.9845489859580994,-0.2998988032341003
-0.0523998253047466,1.3885852098464966,-0.2060852795839309,0.1697151660919189,0.3406681418418884,0.1385574340820312,0.0,0.0,-0.9662966132164,0.0921579599380493
-0.0543979629874229,1.392343044281006,-0.2061961442232132,0.1654875874519348,0.3473578095436096,0.133793443441391,0.0,0.0,-0.988244891166687,0.2082291841506958
-0.0564007759094238,1.3960049152374268,-0.206401377916336,0.1612609177827835,0.3537919223308563,0.1286820769309997,0.0,0.0,-0.983082354068756,0.0954276323318481
-0.0584094040095806,1.3995709419250488,-0.2067075669765472,0.1570351272821426,0.3599539399147033,0.1232404932379722,0.0,0.0,-0.9628708958625792,-0.5433372855186462
-0.0604691505432128,1.403022527694702,-0.2126456946134567,0.1517107188701629,0.3670098185539245,0.1411173343658447,0.0,0.0,-0.9881153106689452,-0.1231329441070556
-0.062537096440792,1.4063780307769775,-0.2131726741790771,0.1474854797124862,0.3737631440162658,0.1350664943456649,0.0,0.0,-0.9810019731521606,-0.1451438069343567
-0.0646146759390831,1.4096373319625854,-0.2138198167085647,0.1432611644268036,0.3801999986171722,0.1287363469600677,0.0,0.0,-0.9819281697273254,-0.4586008787155151
-0.0667032226920127,1.412800431251526,-0.2145932167768478,0.1390377581119537,0.3863071799278259,0.122143343091011,0.0,0.0,-0.919446587562561,0.581586480140686
-0.0687534362077713,1.41589093208313,-0.2091198712587356,0.1362364292144775,0.3906869292259216,0.087595023214817,0.0,0.0,-0.9631370306015016,-0.4478843808174133
-0.0708173736929893,1.4188847541809082,-0.2101638615131378,0.1320157796144485,0.3947131335735321,0.0805242210626602,0.0,0.0,-0.930715799331665,-0.1391019225120544
-0.0728966742753982,1.4217816591262815,-0.2113511115312576,0.1277958303689956,0.398375004529953,0.0732374042272567,0.0,0.0,-0.9559601545333862,0.0379393100738525
-0.0749928504228591,1.424581527709961,-0.2126867324113845,0.1235765144228935,0.4016624689102173,0.0657491236925125,0.0,0.0,-0.9908028244972228,0.2729184627532959
-0.0771075263619422,1.4272843599319458,-0.2141757011413574,0.1193578243255615,0.4045661389827728,0.0580734312534332,0.0,0.0,-0.9944466352462769,-0.1635400056838989
-0.0792424231767654,1.4298900365829468,-0.2158227264881134,0.1151396930217742,0.4070773422718048,0.0502238497138023,0.0,0.0,-0.968335509300232,0.2404265403747558
-0.0813991576433181,1.432398557662964,-0.2176320850849151,0.110922060906887,0.4091880023479461,0.0422132797539234,0.0,0.0,-0.9754700660705566,0.1312721967697143
-0.0835794433951377,1.434809923171997,-0.2196078598499298,0.1067048758268356,0.4108906984329223,0.0340540595352649,0.0,0.0,-0.985361099243164,0.4126684665679931
-0.0857850089669227,1.4371235370635986,-0.2217538058757782,0.1024881079792976,0.4121786057949066,0.0257580373436212,0.0,0.0,-0.9270606637001038,0.4503978490829468
-0.0880177468061447,1.4393399953842163,-0.2240732908248901,0.0982716828584671,0.4130454361438751,0.0173364616930484,0.0,0.0,-0.9820425510406494,0.701046347618103
-0.0902188271284103,1.4414944648742676,-0.218924194574356,0.0960998386144638,0.4117732644081116,-0.0254436321556568,0.0,0.0,-0.9534399509429932,-0.1399197578430175
-0.0924506187438964,1.443551540374756,-0.2215993702411651,0.0918837785720825,0.4100690484046936,-0.034084528684616,0.0,0.0,-0.9510670900344848,0.4644443988800049
-0.0947150215506553,1.4455111026763916,-0.2244559228420257,0.0876677185297012,0.4079280793666839,-0.0428201183676719,0.0,0.0,-0.9677123427391052,0.1087555885314941
-0.0970140472054481,1.447373390197754,-0.2274957597255706,0.0834515988826751,0.4053460359573364,-0.0516411438584327,0.0,0.0,-0.986203908920288,0.6856186389923096
-0.0992940887808799,1.4491806030273438,-0.2236445248126983,0.0815646201372146,0.400669664144516,-0.0935275852680206,0.0,0.0,-0.995659351348877,0.3140301704406738
-0.1016124710440635,1.4508907794952393,-0.2270544022321701,0.0773471444845199,0.3955450057983398,-0.1024932116270065,0.0,0.0,-0.99501770734787,-0.4525892734527588
-0.1039711013436317,1.452503681182861,-0.2306508123874664,0.0731292515993118,0.3899690508842468,-0.1115188598632812,0.0,0.0,-0.9972147345542908,0.0850036144256591
-0.1063719764351844,1.4540197849273682,-0.2344340533018112,0.0689108669757843,0.3839392066001892,-0.1205969080328941,0.0,0.0,-0.9917896389961244,-0.0890588760375976
-0.1088170036673545,1.4554387331008911,-0.2384040653705597,0.0646919310092926,0.3774531781673431,-0.1297202259302139,0.0,0.0,-0.9881545305252076,-0.3018888235092163
-0.1113080978393554,1.4567606449127195,-0.2425603568553924,0.0604723766446113,0.3705090880393982,-0.1388819366693496,0.0,0.0,-0.9982885718345642,0.2324318885803222
-0.1138471588492393,1.4579859972000122,-0.246902197599411,0.0562521368265152,0.3631053566932678,-0.148075446486473,0.0,0.0,-0.989412486553192,-0.3341876268386841
-0.1164360046386718,1.459114670753479,-0.2514283061027527,0.0520311444997787,0.3552405834197998,-0.1572946012020111,0.0,0.0,-0.9843884110450744,0.215322732925415
-0.1190765351057052,1.4601469039916992,-0.2561371028423309,0.0478093214333057,0.3469139039516449,-0.1665334403514862,0.0,0.0,-0.99660724401474,-0.3323482275009155
-0.1217705756425857,1.461082935333252,-0.2610267102718353,0.0435866191983222,0.3381246030330658,-0.1757862269878387,0.0,0.0,-0.9999041557312012,-0.4213236570358276
-0.1245200186967849,1.461922526359558,-0.2660949528217315,0.0393629632890224,0.3288722336292267,-0.1850475072860717,0.0,0.0,-0.9996042251586914,-0.1049693822860717
-0.1273266822099685,1.4626660346984863,-0.2713392376899719,0.0351382903754711,0.3191566169261932,-0.194312110543251,0.0,0.0,-0.9995651245117188,-0.1423906087875366
-0.130192369222641,1.4633138179779053,-0.2767567038536072,0.0309125389903783,0.308977872133255,-0.2035748958587646,0.0,0.0,-0.9799583554267884,-0.3416860103607178
-0.1331186294555664,1.4638657569885254,-0.2823443412780761,0.026685643941164,0.2983363270759582,-0.2128310650587082,0.0,0.0,-0.8650938272476196,-0.3384851217269897
-0.1361073553562164,1.464322209358215,-0.2880986928939819,0.0224575437605381,0.2872325181961059,-0.2220759689807891,0.0,0.0,-0.9941349029541016,-0.8422561883926392
-0.1392206251621246,1.46465802192688,-0.3016605973243713,0.0167960580438375,0.2772887051105499,-0.1988763213157653,0.0,0.0,-0.9958139061927797,-0.1435997486114502
-0.1423995941877365,1.4648982286453247,-0.3077388107776642,0.0125682326033711,0.2668843865394592,-0.2080863267183303,0.0,0.0,-0.99872225522995,-0.678249180316925
-0.14569091796875,1.4650245904922483,-0.3196784853935241,0.0072991028428077,0.2572266757488251,-0.1931540518999099,0.0,0.0,-0.999413013458252,0.07609224319458
-0.1490507125854492,1.4650553464889526,-0.3260641992092132,0.0030708860140293,0.2471110522747039,-0.2023123949766159,0.0,0.0,-0.9994548559188844,-0.3788717985153198
-0.1524806916713714,1.4649908542633057,-0.3325968980789184,-0.0011584946187213,0.2365391105413437,-0.2114386260509491,0.0,0.0,-0.9805588722229004,-0.5253152251243591
-0.156023696064949,1.4648106098175049,-0.3445295989513397,-0.0064735943451523,0.2266323715448379,-0.1981344521045684,0.0,0.0,-0.9997379183769226,-0.2401233911514282
-0.1596394479274749,1.4645349979400637,-0.3513435423374176,-0.010703507810831,0.2162731289863586,-0.2071850001811981,0.0,0.0,-0.9888654351234436,-0.5757796168327332
-0.1633687913417816,1.4641575813293457,-0.3632157146930694,-0.0153943868353962,0.2064640074968338,-0.1961825042963028,0.0,0.0,-0.9848739504814148,-0.2996466159820556
-0.1671735793352127,1.4636847972869873,-0.3702923357486725,-0.0196250062435865,0.1962069123983383,-0.2051419019699096,0.0,0.0,-0.9661563634872437,-0.7971941232681274
-0.1711286604404449,1.463086485862732,-0.3868210613727569,-0.02546570263803,0.1874553114175796,-0.1750316023826599,0.0,0.0,-0.993098258972168,-0.6138316988945007
-0.1752068549394607,1.4623855352401731,-0.3997977077960968,-0.03016291372478,0.1794067025184631,-0.1609721332788467,0.0,0.0,-0.9987934231758118,-0.3523232936859131
-0.1793638169765472,1.4615893363952637,-0.4072334766387939,-0.0343921072781086,0.1709183752536773,-0.1697667837142944,0.0,0.0,-0.9979830980300904,-0.5937909483909607
-0.1836514472961425,1.4606871604919434,-0.4211470484733581,-0.0392424948513507,0.1632899940013885,-0.1525671184062957,0.0,0.0,-0.9969778656959534,0.0476067066192626
-0.1880200356245041,1.4596894979476929,-0.4287978112697601,-0.0434718318283557,0.1552283763885498,-0.1612323522567749,0.0,0.0,-0.9975014328956604,0.1428900957107544
-0.1924704611301422,1.4585967063903809,-0.43654865026474,-0.0477020740509033,0.1467370390892028,-0.1698267608880996,0.0,0.0,-0.9558269381523132,-0.5439006686210632
-0.1970441788434982,1.4573944807052612,-0.4494760632514953,-0.0526747740805149,0.1388673782348632,-0.1573927849531173,0.0,0.0,-0.9660500288009644,-0.1209282279014587
-0.2017015516757965,1.4560973644256592,-0.4574132561683655,-0.0569054447114467,0.1305757313966751,-0.1658333092927932,0.0,0.0,-0.801464319229126,-0.4379913806915283
-0.2064434587955474,1.4547051191329956,-0.4654364585876465,-0.0611370243132114,0.1218662112951278,-0.1741904318332672,0.0,0.0,-0.8398929834365845,-0.3860151767730713
-0.211270660161972,1.4532179832458496,-0.473541110754013,-0.0653695538640022,0.1127432286739349,-0.1824598014354705,0.0,0.0,-0.9326715469360352,-0.5273717641830444
-0.2162260115146637,1.4516329765319824,-0.487003743648529,-0.0698299556970596,0.1042719036340713,-0.1694266349077224,0.0,0.0,-0.9180298447608948,0.2207169532775879
-0.2212680280208587,1.4499530792236328,-0.4952579438686371,-0.0740628466010093,0.0953965187072753,-0.1775077581405639,0.0,0.0,-0.8957248330116272,0.5686006546020508
-0.2263434827327728,1.4481887817382812,-0.4968102574348449,-0.0777694731950759,0.084753543138504,-0.2128594368696212,0.0,0.0,-0.9978498220443726,0.3912481069564819
-0.2315069139003753,1.446330189704895,-0.5051955580711365,-0.0820065662264823,0.0737168788909912,-0.2207332402467727,0.0,0.0,-0.9754244089126588,0.5224883556365967
-0.2367210835218429,1.4443808794021606,-0.5089099407196045,-0.0860784724354744,0.0613427199423313,-0.2474831640720367,0.0,0.0,-0.9483237266540528,0.0785841941833496
-0.242024227976799,1.442337989807129,-0.5174093842506409,-0.0903197526931762,0.0485861785709857,-0.2551308274269104,0.0,0.0,-0.8641154766082764,0.8873478174209595
-0.2473493069410324,1.4402066469192505,-0.5174983143806458,-0.0943017527461052,0.0337559729814529,-0.2966042757034302,0.0,0.0,-0.932117998600006,-0.5331931710243225
-0.2528151571750641,1.4379851818084717,-0.5324905514717102,-0.0984769687056541,0.019834779202938,-0.2784237265586853,0.0,0.0,-0.975888729095459,0.5009782314300537
-0.2583258152008056,1.435675024986267,-0.5354408025741577,-0.1025354415178299,0.0044093588367104,-0.3085085749626159,0.0,0.0,-0.9769766926765442,0.0927423238754272
-0.2639268934726715,1.4332729578018188,-0.5441188216209412,-0.1067856773734092,-0.0113730104640126,-0.3156473338603973,0.0,0.0,-0.9968172907829284,0.0736685991287231
-0.2696186602115631,1.430778980255127,-0.5528316497802734,-0.111037328839302,-0.0275053903460502,-0.3226475715637207,0.0,0.0,-0.9772248864173888,0.3720936775207519
-0.2754012048244476,1.42819344997406,-0.5615751147270203,-0.1152903661131858,-0.0439806059002876,-0.3295046687126159,0.0,0.0,-0.998408854007721,0.9277116060256958
-0.2812155783176422,1.4255142211914062,-0.5629222393035889,-0.1197211593389511,-0.0622793994843959,-0.3659758865833282,0.0,0.0,-0.9866970181465148,0.3390426635742187
-0.2871209681034088,1.4227445125579834,-0.5717155933380127,-0.1239813268184661,-0.0809059664607048,-0.37253138422966,0.0,0.0,-0.997404396533966,-0.0637418627738952
-0.2931174337863922,1.4198848009109497,-0.5805280208587646,-0.128242939710617,-0.099852479994297,-0.3789304494857788,0.0,0.0,-0.9622657895088196,-0.7725015878677368
-0.2992600500583648,1.4169361591339111,-0.596255362033844,-0.1323466747999191,-0.1177300736308097,-0.3575519919395447,0.0,0.0,-0.801102340221405,-0.2854158878326416
-0.3054936826229095,1.4138972759246826,-0.6050931811332703,-0.1366067230701446,-0.1359114497900009,-0.3636276423931122,0.0,0.0,-0.9232431650161744,0.3710861206054687
-0.3118183612823486,1.4107680320739746,-0.6139379739761353,-0.1408680230379104,-0.1543881595134735,-0.3695346117019653,0.0,0.0,-0.9584918022155762,0.3810324668884277
-0.3182338178157806,1.4075487852096558,-0.6227856278419495,-0.1451304852962494,-0.1731515973806381,-0.3752691149711609,0.0,0.0,-0.8730804324150085,0.084955096244812
-0.3247398734092712,1.4042396545410156,-0.6316319704055786,-0.149394080042839,-0.1921929568052292,-0.3808276355266571,0.0,0.0,-0.913406491279602,0.5335602760314941
-0.3312946856021881,1.4008342027664185,-0.635265588760376,-0.1540923118591308,-0.2125581502914428,-0.407303899526596,0.0,0.0,-0.9167268872261048,0.1634697914123535
-0.3379395008087158,1.397340178489685,-0.6440979838371277,-0.1583614349365234,-0.2331831008195877,-0.412499189376831,0.0,0.0,-0.8881999850273132,-0.5523622035980225
-0.3447111546993255,1.3937673568725586,-0.6575824618339539,-0.1620186120271682,-0.2530959546566009,-0.3982572257518768,0.0,0.0,-0.7559046745300293,-0.3745397329330444
-0.3515721261501312,1.3901052474975586,-0.666381299495697,-0.1662864089012146,-0.2732500433921814,-0.4030815958976745,0.0,0.0,-0.4881007075309753,-0.0232958793640136
-0.3585220277309418,1.3863542079925537,-0.6751571297645569,-0.1705550104379654,-0.2936358451843261,-0.4077160954475403,0.0,0.0,-0.3139307498931885,-0.6025804281234741
-0.3656075000762939,1.3825345039367676,-0.6898471117019653,-0.1736426949501037,-0.312975525856018,-0.3867939114570617,0.0,0.0,0.5160092115402222,-0.7144050598144531
-0.3726591467857361,1.3793363571166992,-0.6878158450126648,-0.1459890305995941,-0.3310255706310272,-0.3610015213489532,0.0,0.0,0.5844557285308838,-0.5213180780410767
-0.3795994222164154,1.3764870166778564,-0.6779283285140991,-0.1304162293672561,-0.3478701114654541,-0.3368909955024719,0.0,0.0,0.4557247161865234,-0.4067302346229553
-0.3863406777381897,1.3743525743484497,-0.6583195924758911,-0.0987755432724952,-0.3645107448101043,-0.332812637090683,0.0,0.0,0.6871569156646729,-0.2126839160919189
-0.3928508162498474,1.3732681274414062,-0.635249674320221,-0.0523059591650962,-0.3812164962291717,-0.3341148197650909,0.0,0.0,0.2890132665634155,-0.5514723062515259
-0.399347722530365,1.3724195957183838,-0.6350210309028625,-0.0417139492928981,-0.3968571126461029,-0.3128121793270111,0.0,0.0,0.4791039228439331,-0.105646789073944
