x_pos,y_pos,x_vel,y_vel,angle,ang_vel,leg_1,leg_2,main_booster,lat_booster
-0.0015156746376305,1.4030247926712036,-0.1535128653049469,-0.3509080111980438,0.0017372582806274,0.0342673771083354,0.0,0.0,-0.3908153772354126,0.4131069183349609
-0.0030230521224439,1.3945527076721191,-0.1524117738008499,-0.3765381276607513,0.0034003143664449,0.0332648903131485,0.0,0.0,-0.0209940671920776,0.92954421043396
-0.0044319154694676,1.3854740858078003,-0.1402627974748611,-0.4034943282604217,0.0027876866515725,-0.0122535685077309,0.0,0.0,0.1321271657943725,0.7154684066772461
-0.005868243984878,1.3763067722320557,-0.1414353847503662,-0.4074381291866302,0.0006185846286825,-0.0433865971863269,0.0,0.0,0.3830065727233886,0.8983089923858643
-0.0071004866622388,1.3673614263534546,-0.1193418651819229,-0.3975747227668762,-0.0032192370854318,-0.0767639204859733,0.0,0.0,-0.0165691971778869,0.089941382408142
-0.0083213802427053,1.3578163385391235,-0.1181779131293296,-0.4242378771305084,-0.0070846155285835,-0.0773145630955696,0.0,0.0,0.2853544950485229,0.6815112829208374
-0.0094929691404104,1.3483455181121826,-0.1118259578943252,-0.4209648072719574,-0.0123591059818863,-0.1054992899298667,0.0,0.0,0.097532033920288,0.3006130456924438
-0.0105471611022949,1.3389177322387695,-0.1005491986870765,-0.419057160615921,-0.0171842034906148,-0.0965108126401901,0.0,0.0,-0.3260039091110229,-0.156665027141571
-0.0115880966186523,1.328890323638916,-0.0991909056901931,-0.445719301700592,-0.0220320876687765,-0.0969665497541427,0.0,0.0,0.132154107093811,-0.4235023260116577
-0.0126045225188136,1.3190102577209473,-0.0967228710651397,-0.4391990005970001,-0.0269019287079572,-0.097405657172203,0.0,0.0,0.0292029380798339,0.3422907590866089
-0.0135426521301269,1.3090837001800537,-0.0891297906637191,-0.4412770569324493,-0.0315336622297763,-0.0926430076360702,0.0,0.0,-0.444671630859375,-0.3399844169616699
-0.0144654270261526,1.2985574007034302,-0.0875838324427604,-0.4679384529590606,-0.0361788384616375,-0.0929119884967804,0.0,0.0,-0.453978955745697,-0.6991336345672607
-0.0154152866452932,1.2874375581741333,-0.0913855731487274,-0.4943064749240875,-0.03974599391222,-0.0713493525981903,0.0,0.0,-0.665580153465271,-0.5217815637588501
-0.0163851734250783,1.2757152318954468,-0.094302050769329,-0.5210605263710022,-0.0424032844603061,-0.0531505569815635,0.0,0.0,-0.5011870861053467,-0.622722864151001
-0.017375374212861,1.2634021043777466,-0.0972799733281135,-0.5472983717918396,-0.0441143289208412,-0.0342241562902927,0.0,0.0,-0.0336784124374389,-0.5947080254554749
-0.0183862689882516,1.2504849433898926,-0.1003366708755493,-0.5741266012191772,-0.0448573678731918,-0.014862080104649,0.0,0.0,-0.7341915965080261,-0.8966265916824341
-0.0194329265505075,1.2369818687438965,-0.1053179129958152,-0.6001163721084595,-0.0442170724272728,0.0128072900697588,0.0,0.0,-0.6630927920341492,-0.7597458362579346
-0.0205065719783306,1.222875475883484,-0.1091974228620529,-0.6268919706344604,-0.0424119643867015,0.0361056886613369,0.0,0.0,-0.0181782841682434,0.0792677402496337
-0.0215607639402151,1.2081693410873413,-0.1072655469179153,-0.6535500288009644,-0.0405872985720634,0.0364965498447418,0.0,0.0,0.413134217262268,-0.2823492288589477
-0.0226441379636526,1.1935935020446775,-0.1098832935094833,-0.6477829813957214,-0.0390587821602821,0.0305731296539306,0.0,0.0,0.4821016788482666,-0.4360644817352295
-0.0235661510378122,1.1794216632843018,-0.0943144410848617,-0.6297978758811951,-0.0369633324444294,0.041912667453289,0.0,0.0,-0.5755888819694519,-0.4175792932510376
-0.0244668014347553,1.1646500825881958,-0.09223173558712,-0.656461775302887,-0.0348289161920547,0.0426923893392086,0.0,0.0,0.0534471273422241,0.593761682510376
-0.0251938812434673,1.1497910022735596,-0.0738542824983596,-0.6603718996047974,-0.0336973965167999,0.0226326920092105,0.0,0.0,-0.2051703333854675,-0.786806046962738
-0.0259537696838378,1.1343262195587158,-0.0785935074090957,-0.6872676014900208,-0.0311290714889764,0.0513708516955375,0.0,0.0,-0.4866477251052856,0.0516629219055175
-0.0266909599304199,1.118261694908142,-0.0763759240508079,-0.7139240503311157,-0.0284991767257452,0.0526026785373687,0.0,0.0,-0.1244722008705139,0.1431090831756591
-0.0274051669985055,1.1015759706497192,-0.0741569846868515,-0.7415358424186707,-0.0257983058691024,0.0540175549685955,0.0,0.0,-0.1649624109268188,-0.1588519811630249
-0.0280955322086811,1.084290623664856,-0.0718509778380394,-0.7681923508644104,-0.023017993196845,0.0556064061820507,0.0,0.0,0.3880701065063476,-0.3478959798812866
-0.0288553237915039,1.0674490928649902,-0.0783717185258865,-0.7484750151634216,-0.02065728046,0.0472141914069652,0.0,0.0,-0.2117360234260559,-0.4354393482208252
-0.0295903198421001,1.0500078201293943,-0.0759931728243827,-0.775131344795227,-0.0181991197168827,0.049163244664669,0.0,0.0,0.1893423795700073,-0.3240406513214111
-0.0303089134395122,1.0324938297271729,-0.0743826329708099,-0.7783741354942322,-0.0157040748745203,0.0499007552862167,0.0,0.0,0.2913534641265869,0.0678495168685913
-0.0309768673032522,1.0153721570968628,-0.0695051699876785,-0.7609338164329529,-0.013025059364736,0.0535803250968456,0.0,0.0,-0.0822999477386474,0.0236598253250122
-0.0316187851130962,0.9976508617401124,-0.0670341104269027,-0.7875903248786926,-0.0102199185639619,0.0561026260256767,0.0,0.0,0.5649013519287109,0.4997298717498779
-0.0323047637939453,0.9804700016975404,-0.0712123066186904,-0.7635790109634399,-0.0076405857689678,0.0515868254005909,0.0,0.0,0.2866206169128418,0.41391122341156
-0.0330115333199501,0.9631113409996032,-0.0732069164514541,-0.7714866995811462,-0.0051448196172714,0.0499155297875404,0.0,0.0,0.5058284997940063,0.1591687202453613
-0.0336734764277935,0.946010410785675,-0.0689547657966613,-0.7600366473197937,-0.0024242168292403,0.0544122569262981,0.0,0.0,0.1963659524917602,-0.1032471060752868
-0.0342935547232627,0.9291312098503112,-0.0650026649236679,-0.7501825094223022,0.0005238587618805,0.0589614994823932,0.0,0.0,-0.4231632947921753,-0.2228333950042724
-0.0348861701786518,0.9116523861885072,-0.0624232105910778,-0.7768393158912659,0.0036488797049969,0.0625003650784492,0.0,0.0,0.3434164524078369,0.5064114332199097
-0.0353795997798442,0.8945068717002869,-0.0517573878169059,-0.7620388865470886,0.0060336897149682,0.0476960316300392,0.0,0.0,0.4739390611648559,0.7768244743347168
-0.035827063024044,0.8778977394104004,-0.0457423999905586,-0.7381826639175415,0.0070098345167934,0.0195230804383754,0.0,0.0,0.8144791126251221,0.2125216722488403
-0.0362199768424034,0.8616907596588135,-0.040634386241436,-0.7203192114830017,0.008337895385921,0.0265610329806804,0.0,0.0,-0.2275586724281311,0.002644658088684
-0.0365844741463661,0.8448840975761414,-0.038011722266674,,0.0098847616463899,0.0309373289346694,0.0,0.0,0.0040729045867919,0.2148305177688598
-0.0368484482169151,0.8279560208320618,-0.0285489521920681,-0.7523756623268127,0.0120078744366765,0.042462058365345,0.0,0.0,-0.1392388343811035,0.8556960821151733
-0.0370049476623535,0.8104202151298523,-0.0160455144941806,-0.7793738842010498,0.0123948566615581,0.0077398410066962,0.0,0.0,0.4821418523788452,0.6705905199050903
-0.0369876846671104,0.7929973006248474,0.0022428161464631,-0.7743437886238098,0.0118905017152428,-0.0100870160385966,0.0,0.0,-0.4380928874015808,0.4011250734329223
-0.0369415283203125,0.7749748826026917,0.0048677381128072,-0.8010000586509705,0.0116464383900165,-0.0048815784975886,0.0,0.0,-0.4099541902542114,0.7436034679412842
-0.0368029586970806,0.7563461661338806,0.0154388546943664,-0.8279317021369934,0.0100815314799547,-0.0312980040907859,0.0,0.0,0.2641080617904663,-0.2245553731918335
-0.0365922935307025,0.7376313805580139,0.0221538599580526,-0.8317640423774719,0.0090129887685179,-0.0213709510862827,0.0,0.0,0.3971548080444336,0.7297630310058594
-0.0364069938659668,0.7193816304206848,0.0209489334374666,-0.8110863566398621,0.006614398676902,-0.0479716621339321,0.0,0.0,-0.0987865924835205,-0.3306422829627991
-0.0361928939819335,0.7005321979522705,0.0235325563699007,-0.8377429842948914,0.0045158802531659,-0.0419702492654323,0.0,0.0,0.4880514144897461,-0.3860129117965698
-0.0359711647033691,0.6817702054977417,0.0240765362977981,-0.8338639736175537,0.0026388145051896,-0.0375411882996559,0.0,0.0,0.5287933349609375,-0.0316011905670166
-0.0355893149971962,0.6632015705108643,0.0391359850764274,-0.825270414352417,0.0016947684343904,-0.0188808552920818,0.0,0.0,-0.2414124011993408,0.3364697694778442
-0.0351789481937885,0.6440333127975464,0.0416580289602279,-0.8519265651702881,0.0010789328953251,-0.0123165855184197,0.0,0.0,0.5086407661437988,-0.0821046233177185
-0.0346408858895301,0.6248742938041687,0.0536257848143577,-0.8515118360519409,0.0012620750349014,0.003662860719487,0.0,0.0,0.752272367477417,0.2401386499404907
-0.034072209149599,0.6063846945762634,0.0563103966414928,-0.821765124797821,0.0018068281933665,0.0108952205628156,0.0,0.0,0.5290589332580566,0.251605749130249
-0.0333386436104774,0.5879724621772766,0.0718068704009056,-0.8183221817016602,0.0033440429251641,0.0307440664619207,0.0,0.0,-0.0340257883071899,-0.2490299344062805
-0.0325773246586322,0.5689605474472046,0.0742026641964912,-0.8449785113334656,0.0052441013976931,0.0380013361573219,0.0,0.0,0.7795556783676147,-0.0264289379119873
-0.0316919311881065,0.5506374835968018,0.0857633873820304,-0.8143715262413025,0.0079835373908281,0.0547887310385704,0.0,0.0,0.3439326286315918,0.3785461187362671
-0.0306716915220022,0.5325390696525574,0.0983393937349319,-0.8043976426124573,0.0116210663691163,0.0727507472038269,0.0,0.0,0.6022254228591919,0.2855026721954345
-0.0295617096126079,0.5150400996208191,0.106585755944252,-0.7777745127677917,0.0159801989793777,0.087182804942131,0.0,0.0,0.552809476852417,0.0011982917785644
-0.0285088531672954,0.4980475902557373,0.1008006110787391,-0.7552750110626221,0.020401956513524,0.0884351953864097,0.0,0.0,0.405909776687622,0.5958466529846191
-0.0273420326411724,0.4809259474277496,0.1128954291343689,-0.7610156536102295,0.0241407956928014,0.0747767463326454,0.0,0.0,0.7879881858825684,-0.4128424525260925
-0.0262768752872943,0.4643393158912658,0.1028266549110412,-0.7372477054595947,0.027785426005721,0.0728926733136177,0.0,0.0,0.5077083110809326,-0.3399472832679748
-0.0250874515622854,0.447865754365921,0.114295445382595,-0.7322547435760498,0.0323659144341945,0.0916098058223724,0.0,0.0,0.7050464153289795,0.1545581817626953
-0.0238703731447458,0.431742399930954,0.1165403723716735,-0.7167139053344727,0.0374797545373439,0.1022770628333091,0.0,0.0,0.7272742986679077,-0.4916622042655945
-0.0226372722536325,0.415648490190506,0.1176527962088584,-0.715434730052948,0.0430584326386451,0.1115735620260238,0.0,0.0,0.6157481670379639,0.3762247562408447
-0.0215274803340435,0.3998138904571533,0.1054658889770507,-0.7039280533790588,0.048509981483221,0.1090311035513877,0.0,0.0,0.8213262557983398,0.4456595182418823
-0.0204177852720022,0.3847955167293548,0.1048962324857711,-0.667693018913269,0.0545095913112163,0.1199920177459716,0.0,0.0,0.5870109796524048,0.4468624591827392
-0.0192235950380563,0.3696054220199585,0.1125368103384971,-0.6753811240196228,0.061317965388298,0.1361674219369888,0.0,0.0,0.8592753410339355,0.5071051120758057
-0.0179959293454885,0.3552674055099487,0.1163531094789505,-0.6375223398208618,0.0676601752638816,0.1268445402383804,0.0,0.0,0.2760539054870605,0.5324604511260986
-0.0168105121701955,0.340871512889862,0.1129180565476417,-0.6400805115699768,0.0732264965772628,0.1113260611891746,0.0,0.0,0.6302969455718994,0.449715256690979
-0.015745734795928,0.3268663883209228,0.1008082628250122,-0.6227377653121948,0.0788325816392898,0.1121217980980873,0.0,0.0,0.5311788320541382,0.8029124736785889
-0.0146140102297067,0.3131376206874847,0.1086127161979675,-0.6104166507720947,0.083352617919445,0.0904007777571678,0.0,0.0,0.409675121307373,0.7590353488922119
-0.0135886194184422,0.2998875081539154,0.0992173701524734,-0.5890811085700989,0.0866406708955764,0.0657611116766929,0.0,0.0,0.3955368995666504,0.6625347137451172
-0.0124694826081395,0.2867829501628876,0.1093203201889991,-0.5825772881507874,0.0892064720392227,0.0513161346316337,0.0,0.0,0.5240726470947266,0.6462876796722412
-0.0113507267087697,0.2736155092716217,0.1101793199777603,-0.5853210091590881,0.0908899679780006,0.033669751137495,0.0,0.0,0.6502618789672852,0.2131968736648559
-0.0101804733276367,0.2603433132171631,0.114523246884346,-0.5900319218635559,0.0933670178055763,0.0495410822331905,0.0,0.0,0.7008746862411499,0.3414509296417236
-0.0090631488710641,0.2469892650842666,0.1088996306061744,-0.5936901569366455,0.0961763709783554,0.0561870820820331,0.0,0.0,0.923053741455078,0.0089204311370849
-0.008033275604248,0.2344134151935577,0.0997069776058197,-0.5591436624526978,0.0994266644120216,0.0650059357285499,0.0,0.0,0.8627370595932007,0.3842833042144775
-0.0069953920319676,0.2226247936487198,0.0996035933494567,-0.5242206454277039,0.103583425283432,0.0831352323293685,0.0,0.0,0.7974627017974854,0.6792049407958984
-0.0061195371672511,0.2115587145090103,0.0845805332064628,-0.492040067911148,0.1065625846385955,0.0595831573009491,0.0,0.0,0.720772385597229,-0.521871030330658
-0.0054570198990404,0.2003733217716217,0.0621124133467674,-0.4974278211593628,0.1106793135404586,0.0823346227407455,0.0,0.0,0.8279842138290405,0.5835213661193848
-0.0047924993559718,0.1899138540029525,0.0628441497683525,-0.4651387333869934,0.1142550930380821,0.0715156197547912,0.0,0.0,0.9128735065460204,-0.0153367519378662
-0.0043165208771824,0.1798284649848938,0.0440515987575054,-0.4485176801681518,0.1177871227264404,0.0706406608223915,0.0,0.0,0.9174313545227052,0.1884486675262451
-0.0039933202788233,0.1703047603368759,0.0285535659641027,-0.4235739707946777,0.1215257570147514,0.0747726932168006,0.0,0.0,0.751214861869812,0.2138779163360595
-0.0037714005447924,0.1612837463617324,0.0179893784224987,-0.4012845754623413,0.1257084161043167,0.0836528092622757,0.0,0.0,0.8576827049255371,0.3817710876464844
-0.0035345077048987,0.1526560336351394,0.0185301061719656,-0.3838977813720703,0.1308487951755523,0.1028072834014892,0.0,0.0,0.680509090423584,0.7126269340515137
-0.0032621384598314,0.1439567357301712,0.0229383148252964,-0.3870175182819366,0.1351298987865448,0.0856220871210098,0.0,0.0,0.892275333404541,0.1459347009658813
-0.0029499053489416,0.1353658735752105,0.0259282831102609,-0.3823067247867584,0.1404090225696563,0.1055822968482971,0.0,0.0,0.7182672023773193,0.0551395416259765
-0.0025740624405443,0.1270908713340759,0.0310739763081073,-0.3684061467647552,0.1469032615423202,0.1298848688602447,0.0,0.0,0.4709081649780273,0.4928619861602783
-0.0021331787575036,0.1187660098075866,0.0364994443953037,-0.3707609176635742,0.1544795036315918,0.1515248715877533,0.0,0.0,0.3551605939865112,0.956557035446167
-0.0017263412009924,0.1107795313000679,0.0345193855464458,-0.3556099236011505,0.1606424748897552,0.123259350657463,0.0,0.0,0.6096420288085938,0.5568392276763916
-0.0013720511924475,0.1033115461468696,0.0297896917909383,-0.3325287997722626,0.1662785559892654,0.1127219945192337,0.0,0.0,0.6405882835388184,0.8609334230422974
-0.0009357452508993,0.0962794423103332,0.0390012562274932,-0.3130619823932647,0.1709117740392685,0.092664398252964,0.0,0.0,0.6979854106903076,0.9072935581207277
-0.0003830909845419,0.0891833156347274,0.0517640486359596,-0.3157914280891418,0.1744153350591659,0.0700712949037551,0.0,0.0,0.8588719367980957,0.0977398157119751
-2.002715973503655e-06,0.0823197215795517,0.0343842580914497,-0.3054897487163543,0.1781522184610366,0.0747372210025787,0.0,0.0,0.816453218460083,0.977031707763672
0.000372505193809,0.0763177275657653,0.0350277349352836,-0.2670489847660064,0.1805834472179412,0.0486242957413196,0.0,0.0,0.6956034898757935,0.847052812576294
0.0006651878356933,0.0705897435545921,0.0280779246240854,-0.2547232210636139,0.1817754507064819,0.0238399114459753,0.0,0.0,0.8458142280578613,0.951581597328186
0.0006999016040936,0.0655614212155342,0.0039364122785627,-0.2234251052141189,0.1813070625066757,-0.0093677584081888,0.0,0.0,0.4994856119155884,0.8377314805984497
0.0007525443797931,0.0609150491654872,0.0067892572842538,-0.2063212692737579,0.1797788739204406,-0.0305637903511524,0.0,0.0,0.6810288429260254,0.9860069751739502
0.0006631851429119,0.0568081960082054,-0.0058561600744724,-0.1821550875902176,0.1766907423734665,-0.0617630667984485,0.0,0.0,0.2796484231948852,0.738793134689331
0.0004355430719442,0.0529609769582748,-0.0186032447963953,-0.1704979836940765,0.172520563006401,-0.0834035724401474,0.0,0.0,0.0318552255630493,0.9499261379241944
0.0001869201660156,0.0489864461123943,-0.0192892272025346,-0.1760089248418808,0.1669476330280304,-0.1114585623145103,0.0,0.0,0.3854881525039673,0.9180867671966552
-0.0002089500485453,0.0451509580016136,-0.0325797647237777,-0.1696972697973251,0.1599275320768356,-0.140401691198349,0.0,0.0,0.4842374324798584,0.9448950290679932
-0.0007837295415811,0.0413931459188461,-0.0488907769322395,-0.1661095768213272,0.1513491719961166,-0.1715676039457321,0.0,0.0,0.7692135572433472,0.9671568870544434
-0.0013011932605877,0.0382305011153221,-0.0418757051229476,-0.1395879387855529,0.1414975821971893,-0.1970314681529998,0.0,0.0,0.5155510902404785,0.9121813774108888
-0.0017595291137695,0.0349939689040184,-0.0346690788865089,-0.1428262591361999,0.1303766965866089,-0.2224181145429611,0.0,0.0,0.3841232061386108,0.9400932788848876
-0.0021189688704907,0.0321597680449485,-0.0234579853713512,-0.1249185651540756,0.1179546117782592,-0.2484418600797653,0.0,0.0,0.1522313356399536,0.8287460803985596
-0.0025262832641601,0.0295501574873924,-0.0270135141909122,-0.1149554550647735,0.1043289601802825,-0.272513210773468,0.0,0.0,-0.2416930198669433,0.8458395004272461
-0.0028833388350903,0.026366839185357,-0.020327154546976,-0.1404755413532257,0.0890711471438407,-0.305156260728836,0.0,0.0,-0.2265667915344238,0.1887489557266235
-0.0032727241050451,0.0225873570889234,-0.0239946004003286,-0.1671543717384338,0.0742645561695098,-0.2961316406726837,0.0,0.0,0.3877453804016113,0.0240833759307861
-0.0037523270584642,0.0192365981638431,-0.0334083065390586,-0.1482649594545364,0.0598736219108104,-0.28781858086586,0.0,0.0,0.183657169342041,0.1667309999465942
-0.004256248474121,0.0161377526819705,-0.03647917881608,-0.1372260749340057,0.0461192317306995,-0.2750875651836395,0.0,0.0,0.0552203655242919,-0.2646446228027344
-0.0047570229507982,0.0128841968253254,-0.036835428327322,-0.1442473977804184,0.0330296196043491,-0.2617921233177185,0.0,0.0,0.031328797340393,-0.27832692861557
-0.0053825378417968,0.0096081830561161,-0.0493608005344867,-0.1453616917133331,0.0200040824711322,-0.2605108320713043,0.0,0.0,0.4561746120452881,-0.1900086402893066
-0.0061666490510106,0.0064118122681975,-0.065093845129013,-0.1419354230165481,0.0068623563274741,-0.2628348469734192,0.0,0.0,0.4391361474990845,0.1964764595031738
-0.0070098876021802,0.0033542728051543,-0.0713255554437637,-0.1358786076307296,-0.0059698526747524,-0.2566442489624023,0.0,0.0,0.2861214876174927,-0.046502411365509
-0.0078681949526071,0.0003218030906282,-0.0733171179890632,-0.1348719298839569,-0.0183238387107849,-0.2470798045396804,0.0,0.0,0.5642718076705933,0.3951634168624878
-0.0085416790097951,-0.0020945095457136,-0.0749963745474815,-0.1073247566819191,-0.0107373846694827,0.1517699211835861,1.0,0.0,0.7832256555557251,0.7624228000640869
-0.0089381216093897,-0.0027627372182905,-0.0464537627995014,-0.0296629853546619,-0.0040090442635118,0.1345852315425872,1.0,1.0,-0.3144261240959167,0.9983603954315186
-0.0091427806764841,-0.0028641247190535,-0.025541802868247,-0.0045102909207344,0.001028960221447,0.1008005887269973,1.0,1.0,-0.738628625869751,0.937687873840332
-0.0092349052429199,-0.0024999522138386,-0.0120597761124372,0.0161879416555166,0.0038971982430666,0.0574298873543739,1.0,1.0,-0.7585188150405884,0.9650402069091796
