x_pos,y_pos,x_vel,y_vel,angle,ang_vel,leg_1,leg_2,main_booster,lat_booster
-0.0015459060668945,1.4029392004013062,-0.1572590768337249,-0.35470050573349,0.0023915409110486,0.0472223088145256,0.0,0.0,-0.3866741276459156,0.9301100271433294
-0.0030347823631018,1.394292235374451,-0.1498437672853469,-0.3843084871768951,0.0033330582082271,0.0188327189534902,0.0,0.0,-0.5321070397113083,0.7936605008307761
-0.0044695856049656,1.3849542140960691,-0.1431050300598144,-0.4150172770023346,0.0029670970980077,-0.0073200962506234,0.0,0.0,-0.9200566090284334,0.6648318108321247
-0.0058842659927904,1.3749291896820068,-0.1406456083059311,-0.4455568194389343,0.0021580522879958,-0.0161823574453592,0.0,0.0,0.0992294723699018,0.8279333252499268
-0.0071567534469068,1.3648730516433716,-0.1254524737596511,-0.4469408690929413,0.0003868206113111,-0.0354282073676586,0.0,0.0,-0.1716717253533988,0.8503743235757264
-0.0083685871213674,1.354130506515503,-0.1179310902953147,-0.4774483442306518,-0.0028319859411567,-0.0643822699785232,0.0,0.0,0.8796221107942777,-0.5180344683704755
-0.0096679683774709,1.343688726425171,-0.1282583624124527,-0.4640821814537048,-0.0044891694560647,-0.0331464186310768,0.0,0.0,0.374541803492034,-0.7374250818848643
-0.0109054567292332,1.333370566368103,-0.1244163364171981,-0.4585805833339691,-0.0038345961365848,0.0130925578996539,0.0,0.0,-0.3118520330023324,0.9226446600039822
-0.0120929721742868,1.3223769664764404,-0.1182280927896499,-0.4886106848716736,-0.0043488359078764,-0.0102856671437621,0.0,0.0,-0.2271012231925711,-0.7075258113854953
-0.0133571624755859,1.3107028007507324,-0.1279548704624176,-0.5188413262367249,-0.0028342690784484,0.0302941910922527,0.0,0.0,0.646279541906422,-0.5818702430865572
-0.0145940780639648,1.2992326021194458,-0.1272535473108291,-0.5097888112068176,0.0006994740106165,0.0706813260912895,0.0,0.0,0.9168906234133234,-0.8185522153917093
-0.0158268921077251,1.2879948616027832,-0.1293310225009918,-0.4994617104530334,0.0066783279180526,0.1195878386497497,0.0,0.0,-0.7744259571098999,0.9761665884323364
-0.0169867519289255,1.276078462600708,-0.1202842369675636,-0.5296444892883301,0.010928182862699,0.0850047022104263,0.0,0.0,-0.1785268891321929,-0.9555451819971668
-0.018233586102724,1.26346755027771,-0.1313137114048004,-0.5605500936508179,0.0174831263720989,0.1311107724905014,0.0,0.0,0.8033123010192358,-0.7785297895246555
-0.0194094665348529,1.2515325546264648,-0.1267818361520767,-0.530565083026886,0.026569440960884,0.1817431002855301,0.0,0.0,-0.3722935364508806,-0.7918070231247136
-0.0206563957035541,1.2389028072357178,-0.1358091533184051,-0.5615606307983398,0.0375654399394989,0.2199397087097168,0.0,0.0,-0.2031288661483947,0.528082080551151
-0.0218722335994243,1.225598692893982,-0.1320154219865799,-0.5915830135345459,0.0478955619037151,0.2066209018230438,0.0,0.0,0.4268200653625031,-0.8260969397161627
-0.0230497363954782,1.212094783782959,-0.130659282207489,-0.6006335616111755,0.0606794692575931,0.2557011246681213,0.0,0.0,-0.5882115996282431,-0.8524008278052206
-0.0243033412843942,1.1979117393493652,-0.1403224170207977,-0.6310335397720337,0.0755016505718231,0.2964704632759094,0.0,0.0,-0.8022298046990162,-0.963846994794128
-0.0256624221801757,1.1830374002456665,-0.1536535024642944,-0.6620700359344482,0.0931158661842346,0.3523160815238952,0.0,0.0,0.7430823119518821,-0.6467071657041723
-0.0270206443965435,1.1686861515045166,-0.1558237969875335,-0.6392051577568054,0.112986721098423,0.397453099489212,0.0,0.0,-0.7118872446791067,0.997515834649178
-0.028317641466856,1.1536630392074585,-0.1482324004173278,-0.6691966652870178,0.1314456164836883,0.3692108988761902,0.0,0.0,-0.3007948058347141,-0.5910635040094778
-0.0296695716679096,1.1379530429840088,-0.1552176773548126,-0.7001187205314636,0.1514434665441513,0.3999926447868347,0.0,0.0,-0.7228311984192148,0.7268427047702369
-0.0309757236391305,1.121570348739624,-0.1495728492736816,-0.7301600575447083,0.1704312562942505,0.3797899186611175,0.0,0.0,0.7884877479347605,-0.9333396878816562
-0.0326597206294536,1.1054792404174805,-0.1894936859607696,-0.717718243598938,0.1916221380233764,0.4238556027412414,0.0,0.0,-0.1532446757433909,-0.5750394909741694
-0.0344143882393837,1.0886765718460083,-0.1985285729169845,-0.7499304413795471,0.2148484587669372,0.4645265638828277,0.0,0.0,0.4136958410851965,0.6662322630892198
-0.0362645164132118,1.0721304416656494,-0.2072241306304931,-0.7387743592262268,0.2373387366533279,0.4498057961463928,0.0,0.0,-0.6441599976416268,0.5406186123543157
-0.0380998626351356,1.054924726486206,-0.2053705155849456,-0.7683742642402649,0.2595678269863128,0.4445818960666656,0.0,0.0,0.5224239658339036,0.6493591506341365
-0.0402132980525493,1.0380511283874512,-0.2320659905672073,-0.7537499070167542,0.2808000445365906,0.4246442914009094,0.0,0.0,0.4427770235931605,0.606517568641624
-0.0424332618713378,1.021123290061951,-0.2419523000717163,-0.7563199996948242,0.3013508319854736,0.4110158383846283,0.0,0.0,0.1130057295561406,-0.9959127214900296
-0.0449009910225868,1.0043182373046875,-0.2690882384777069,-0.751688539981842,0.3244960904121399,0.4629051089286804,0.0,0.0,0.4460580348968506,0.9954043626785278
-0.0475049018859863,0.987376630306244,-0.2810968458652496,-0.7577515244483948,0.3461413979530334,0.4329066276550293,0.0,0.0,0.2535915374755859,0.9942467212677002
-0.0503273010253906,0.9706276655197144,-0.3013924956321716,-0.749139666557312,0.3663015067577362,0.4032023847103119,0.0,0.0,-0.4419685006141662,0.9967607259750366
-0.0530960075557231,0.953230082988739,-0.2946991324424743,-0.7778981328010559,0.3852080404758453,0.3781305849552154,0.0,0.0,-0.5974810123443604,0.9973995685577391
-0.0558040626347065,0.9352015852928162,-0.2870418429374695,-0.8057559728622437,0.4025607705116272,0.3470545709133148,0.0,0.0,-0.3658580780029297,0.991217851638794
-0.0584528930485248,0.916548192501068,-0.2795548737049103,-0.833290696144104,0.4183462858200073,0.3157104253768921,0.0,0.0,-0.2097581624984741,0.9891810417175292
-0.061044406145811,0.8972558379173279,-0.2724150121212005,-0.8614357113838196,0.432724118232727,0.2875568866729736,0.0,0.0,0.0326727628707885,0.9963043928146362
-0.0637516975402832,0.8780057430267334,-0.282478779554367,-0.8592348694801331,0.4455388784408569,0.2562951445579529,0.0,0.0,-0.198499858379364,0.9856351613998412
-0.0664073973894119,0.8581318259239197,-0.2759726643562317,-0.8866439461708069,0.4569509327411651,0.2282409965991974,0.0,0.0,0.4910833835601806,0.9718170166015624
-0.0692205429077148,0.8383862972259521,-0.2903243899345398,-0.8805591464042664,0.4668787121772766,0.1985553652048111,0.0,0.0,0.2051050662994384,0.9401975870132446
-0.0723158866167068,0.8187159299850464,-0.3171781897544861,-0.8768277764320374,0.4753330051898956,0.1690863817930221,0.0,0.0,0.0161107778549194,0.8057228326797485
-0.0754310637712478,0.7988964915275574,-0.3180563151836395,-0.883135199546814,0.4826141893863678,0.1456239074468612,0.0,0.0,0.1187629699707031,0.5498104095458984
-0.0785472840070724,0.778752863407135,-0.3176828324794769,-0.8974010348320007,0.4893686771392822,0.1350898891687393,0.0,0.0,0.0726754665374755,0.0126922130584716
-0.081774428486824,0.7584277391433716,-0.3294480144977569,-0.9057509303092957,0.4969142973423004,0.1509129852056503,0.0,0.0,0.1771564483642578,0.5595805644989014
-0.0850947350263595,0.7377006411552429,-0.3380774855613708,-0.9234135150909424,0.5037196278572083,0.1361064612865448,0.0,0.0,-0.1488196849822998,0.4520629644393921
-0.0884199142456054,0.7162920236587524,-0.3389671444892883,-0.9538846611976624,0.5109988451004028,0.1455850303173065,0.0,0.0,-0.0643045902252197,0.66666579246521
-0.0916980728507042,0.6942405104637146,-0.3332850039005279,-0.9821168780326844,0.5171952843666077,0.1239272132515907,0.0,0.0,-0.4106631278991699,0.8003175258636475
-0.0949384719133377,0.6715525984764099,-0.3286615014076233,-1.0101200342178345,0.5224535465240479,0.105164811015129,0.0,0.0,-0.2294473052024841,0.8073099851608276
-0.0981413871049881,0.6482255458831787,-0.3241107761859894,-1.0382311344146729,0.5268092155456543,0.0871137008070945,0.0,0.0,0.1200306415557861,0.6982860565185547
-0.101485826075077,0.6246906518936157,-0.3373243808746338,-1.0471171140670776,0.5301041007041931,0.065898023545742,0.0,0.0,-0.1185107827186584,0.1717615127563476
-0.1048313155770301,0.6004737019538879,-0.3377975523471832,-1.0775843858718872,0.5338196754455566,0.0743114724755287,0.0,0.0,0.2880676984786987,0.2611228227615356
-0.1085082069039344,0.5762819051742554,-0.3710943460464477,-1.0765388011932373,0.5377365946769714,0.078338399529457,0.0,0.0,0.1130808591842651,-0.2581877112388611
-0.1122748404741287,0.5518504977226257,-0.3807136416435241,-1.087458252906799,0.5423913598060608,0.0930947586894035,0.0,0.0,-0.2210715413093567,-0.7537673711776733
-0.1160931587219238,0.52669757604599,-0.3875662684440613,-1.1202261447906494,0.5490160584449768,0.1324941515922546,0.0,0.0,-0.2772452235221863,-0.8123396635055542
-0.1199494376778602,0.5008230209350586,-0.392793744802475,-1.152925968170166,0.5573217272758484,0.1661128550767898,0.0,0.0,-0.3461637496948242,-0.7529764771461487
-0.123860165476799,0.4742102026939392,-0.4001077115535736,-1.1865824460983276,0.5678563117980957,0.2106916904449463,0.0,0.0,-0.3794139623641968,-0.705229640007019
-0.127810001373291,0.446884274482727,-0.4053165912628174,-1.2189335823059082,0.5800015926361084,0.2429055720567703,0.0,0.0,-0.7414642572402954,-0.8253762722015381
-0.1317996978759765,0.4188398122787475,-0.4106415212154388,-1.2515956163406372,0.5938413739204407,0.2767956852912903,0.0,0.0,-0.7252022624015808,-0.6032025218009949
-0.1358224898576736,0.3900855481624603,-0.4150610566139221,-1.2838040590286257,0.6091296076774597,0.3057658672332763,0.0,0.0,-0.9131478667259216,-0.5184298157691956
-0.1398808509111404,0.3606160879135132,-0.4197559356689453,-1.316334843635559,0.6259800791740417,0.3370096385478973,0.0,0.0,-0.9537574052810668,-0.5629615187644958
-0.1439657211303711,0.3304282128810882,-0.4234036803245544,-1.3489959239959717,0.6442509293556213,0.3654173016548157,0.0,0.0,-0.9314712882041932,-0.3886170387268066
-0.1480465829372406,0.2995611429214477,-0.4230155944824219,-1.3794809579849243,0.6628029346466064,0.3710407018661499,0.0,0.0,-0.886103093624115,-0.1237690448760986
-0.1521228849887848,0.2680147886276245,-0.4225609302520752,-1.4099661111831665,0.6816226840019226,0.3763951659202575,0.0,0.0,-0.8726345896720886,0.362095832824707
-0.1561942100524902,0.2357891350984573,-0.4220420718193054,-1.4404511451721191,0.7006967067718506,0.3814803659915924,0.0,0.0,-0.8325786590576172,0.4936845302581787
-0.1602602899074554,0.2028842270374298,-0.4214612543582916,-1.4709361791610718,0.7200115323066711,0.3862962126731872,0.0,0.0,-0.7445446848869324,0.903318166732788
-0.1642792671918869,0.1693549007177353,-0.4154704213142395,-1.4982619285583496,0.73796147108078,0.3589992523193359,0.0,0.0,-0.7207323908805847,0.931875467300415
-0.1682416945695877,0.1352280527353286,-0.4081519544124603,-1.5240726470947266,0.7539568543434143,0.3199072480201721,0.0,0.0,-0.5235585570335388,0.8958847522735596
-0.1721346825361251,0.1004929393529892,-0.3995329737663269,-1.5502686500549316,0.7678971290588379,0.2788056433200836,0.0,0.0,-0.4111371040344238,0.8035775423049927
-0.1759776175022125,0.0651500821113586,-0.3931587636470794,-1.5765678882598877,0.7801254987716675,0.2445674389600753,0.0,1.0,0.9907567501068116,0.9995086193084716
-0.1766807585954666,0.055977638810873,-0.1817939579486847,-0.537914514541626,0.9160141348838806,2.436983346939087,0.0,1.0,-0.9867328405380248,-0.8825367093086243
-0.1778593063354492,0.0450179204344749,-0.186934009194374,-0.5708392262458801,1.0419540405273438,2.4924590587615967,0.0,1.0,-0.986733376979828,-0.7243568897247314
-0.1794427931308746,0.0371970273554325,-0.1973793655633926,-0.5669952034950256,1.2089614868164062,2.805853366851806,0.0,1.0,-0.9900193214416504,-0.8750693202018738
-0.1813316345214843,0.0277699567377567,-0.1979941725730896,-0.604727029800415,1.3745880126953125,2.8537046909332275,0.0,1.0,-0.9890015125274658,-0.7226366400718689
-0.1831825226545334,0.0161017030477523,-0.1950145065784454,-0.6395605802536011,1.525133728981018,2.8804171085357666,0.0,1.0,-0.9464910626411438,-0.2255502343177795
-0.1852691620588302,0.0038280941080302,-0.1912110745906829,-0.6695882678031921,1.677512288093567,2.8762922286987305,0.0,1.0,-0.8798399567604065,0.3707466125488281
-0.1852448433637619,0.0047116852365434,0.0245746411383152,-0.0130139086395502,1.6800129413604736,-0.0937751308083534,0.0,1.0,-0.8798399567604065,0.3707466125488281
