x_pos,y_pos,x_vel,y_vel,angle,ang_vel,leg_1,leg_2,main_booster,lat_booster
-0.0015678405761718,1.4032800197601318,-0.1585957705974578,-0.3395647406578064,0.0016166436253115,0.0318788103759288,0.0,0.0,-0.284602403640747,0.8590329885482788
-0.0031052590347826,1.395314335823059,-0.1532705724239349,-0.3540268242359161,0.0011580085847526,-0.0091730672866106,0.0,0.0,-0.2983115911483764,0.133219838142395
-0.0046832086518406,1.3870036602020264,-0.1571322828531265,-0.3693639039993286,0.0005053475615568,-0.0130545031279325,0.0,0.0,-0.2021054625511169,0.7345716953277588
-0.0062535284087061,1.3783458471298218,-0.1549778282642364,-0.384785920381546,-0.0015129641396924,-0.0403702780604362,0.0,0.0,0.359870433807373,0.7387672662734985
-0.0076828002929687,1.370150804519653,-0.1394048035144806,-0.3642330765724182,-0.0049995579756796,-0.0697386786341667,0.0,0.0,0.1895976066589355,0.269655704498291
-0.0090458868071436,1.362196922302246,-0.133059874176979,-0.353516161441803,-0.0082209184765815,-0.0644328966736793,0.0,0.0,-0.1451373100280761,0.7237335443496704
-0.0103869438171386,1.353898286819458,-0.1292415112257003,-0.368870347738266,-0.013033396564424,-0.096258208155632,0.0,0.0,0.0357507467269897,-0.372473657131195
-0.0116598131135106,1.345861792564392,-0.1226545199751854,-0.3572240769863128,-0.0176138654351234,-0.0916179344058036,0.0,0.0,-0.3602383732795715,0.4336580038070678
-0.0129615785554051,1.3374810218811035,-0.1253208070993423,-0.3725450932979584,-0.0224139355123043,-0.0960099324584007,0.0,0.0,0.1970483064651489,-0.050557255744934
-0.0142789836972951,1.329545497894287,-0.1266683936119079,-0.3527800142765045,-0.0274391174316406,-0.1005129367113113,0.0,0.0,-0.2113603353500366,0.4086620807647705
-0.0156216621398925,1.321265459060669,-0.12895268201828,-0.3681029081344604,-0.0326902046799659,-0.1050315648317337,0.0,0.0,-0.7906747460365295,0.5199564695358276
-0.0169418342411518,1.312638521194458,-0.1253115534782409,-0.3835896253585815,-0.0393223576247692,-0.1326551884412765,0.0,0.0,-0.1662608385086059,0.6105031967163086
-0.0182249061763286,1.3036673069000244,-0.119877316057682,-0.3989618718624115,-0.0476580932736396,-0.1667298078536987,0.0,0.0,0.0985677242279052,-0.6749255061149597
-0.019517708569765,1.2947001457214355,-0.1220376938581466,-0.3987875580787658,-0.0548268780112266,-0.1433891654014587,0.0,0.0,-0.622403621673584,-0.4586980938911438
-0.0208285339176654,1.2853891849517822,-0.1235953345894813,-0.4141098260879516,-0.0622345730662345,-0.1481675505638122,0.0,0.0,-0.5983802676200867,-0.1223797798156738
-0.022155474871397,1.2757346630096436,-0.1249815002083778,-0.4294295310974121,-0.0698825493454933,-0.15297332406044,0.0,0.0,-0.5809788703918457,0.2462267875671386
-0.0234971046447753,1.2657365798950195,-0.1262022107839584,-0.4447497427463531,-0.0777736827731132,-0.1578369885683059,0.0,0.0,-0.6565394401550293,0.152811050415039
-0.0248517990112304,1.2553948163986206,-0.1272620856761932,-0.4600711762905121,-0.0859104096889495,-0.1627493053674698,0.0,0.0,-0.6961831450462341,0.6545218229293823
-0.0261577609926462,1.24470853805542,-0.1206282600760459,-0.4755508005619049,-0.0958050191402435,-0.1979101747274398,0.0,0.0,0.1631308794021606,-0.7080656886100769
-0.0275551788508892,1.234290599822998,-0.1308751404285431,-0.4635971188545227,-0.1046162322163581,-0.1762395352125167,0.0,0.0,-0.2246418595314026,0.1065504550933837
-0.028961181640625,1.223529577255249,-0.1314866840839386,-0.4789260625839233,-0.1136802732944488,-0.181297093629837,0.0,0.0,-0.0967289805412292,0.0395375490188598
-0.0303744319826364,1.2124255895614624,-0.1319588720798492,-0.4942497014999389,-0.1229982078075409,-0.1863755136728286,0.0,0.0,-0.5504816174507141,-0.4741925001144409
-0.0317935943603515,1.2009786367416382,-0.1322998106479644,-0.5095751881599426,-0.1325720995664596,-0.1914948374032974,0.0,0.0,0.121244192123413,-0.7664928436279297
-0.0331961624324321,1.1894960403442385,-0.1319755166769027,-0.5110840201377869,-0.1408344507217407,-0.1652623265981674,0.0,0.0,0.1099417209625244,-0.7101172804832458
-0.0347045883536338,1.1783490180969238,-0.1436197757720947,-0.49611896276474,-0.1480445116758346,-0.1442140936851501,0.0,0.0,-0.2758760452270508,-0.8348885178565979
-0.0362982749938964,1.166859745979309,-0.1539640724658966,-0.5111803412437439,-0.1534400880336761,-0.1079111695289611,0.0,0.0,0.1040576696395874,-0.3044302463531494
-0.0378168113529682,1.1557459831237793,-0.1462090462446212,-0.494539737701416,-0.1590877175331115,-0.112952671945095,0.0,0.0,0.009010910987854,0.1005154848098754
-0.0393350608646869,1.1450542211532593,-0.1455424726009369,-0.4758772552013397,-0.165369763970375,-0.1256407797336578,0.0,0.0,-0.6550998091697693,-0.5151534080505371
-0.0409014709293842,1.1340352296829224,-0.1513536274433136,-0.4903269112110138,-0.1706604957580566,-0.1058148592710495,0.0,0.0,-0.2945836186408996,-0.7915655374526978
-0.0425309166312217,1.1226861476898191,-0.1590379923582077,-0.5048549771308899,-0.1745793521404266,-0.0783767700195312,0.0,0.0,0.710129976272583,0.7268788814544678
-0.0439279563724994,1.1122757196426392,-0.1341273188591003,-0.4633541703224182,-0.1801744848489761,-0.1119022592902183,0.0,0.0,-0.1541870236396789,0.1173212528228759
-0.0453225150704383,1.1015218496322632,-0.1336142122745514,-0.4786731302738189,-0.1860391795635223,-0.1172938719391822,0.0,0.0,-0.6812298893928528,0.5440330505371094
-0.0466768257319927,1.0904192924499512,-0.1283936500549316,-0.4943442344665527,-0.1931129097938537,-0.1414745897054672,0.0,0.0,-0.2350981831550598,-0.846466600894928
-0.0481010451912879,1.0789871215820312,-0.1369843035936355,-0.5088111758232117,-0.198583498597145,-0.1094116419553756,0.0,0.0,-0.4939585924148559,-0.6919405460357666
-0.049573041498661,1.0672287940979004,-0.1428404748439788,-0.5231882333755493,-0.2029722779989242,-0.0877759680151939,0.0,0.0,-0.5353776812553406,0.0574524402618408
-0.0510403625667095,1.0551267862319946,-0.1421186029911041,-0.5385068655014038,-0.2076333612203598,-0.0932212695479393,0.0,0.0,0.5647860765457153,-0.500700831413269
-0.0524790771305561,1.0433322191238403,-0.1399028599262237,-0.5247673392295837,-0.2116332501173019,-0.0799977332353591,0.0,0.0,0.0750231742858886,0.1718727350234985
-0.0537843704223632,1.0319125652313232,-0.1264052987098693,-0.5081332325935364,-0.2157915830612182,-0.0831666067242622,0.0,0.0,-0.2090426683425903,-0.2654995918273926
-0.0550841316580772,1.0201494693756104,-0.1256013959646225,-0.5234519243240356,-0.2202231436967849,-0.0886311531066894,0.0,0.0,0.0306222438812255,-0.8327651619911194
-0.0563394539058208,1.0086137056350708,-0.1225372999906539,-0.513152539730072,-0.2232475280761718,-0.0604879856109619,0.0,0.0,-0.8377295732498169,-0.955678403377533
-0.0576745048165321,0.996771514415741,-0.1324933022260666,-0.5264721512794495,-0.2242727428674698,-0.0205040127038955,0.0,0.0,-0.822751522064209,-0.4453604221343994
-0.0590040199458599,0.984585702419281,-0.1316698640584945,-0.541789710521698,-0.225571259856224,-0.025970458984375,0.0,0.0,-0.824746310710907,-0.8499936461448669
-0.0603843703866004,0.9720658659934998,-0.1378942281007766,-0.5564587712287903,-0.2257140874862671,-0.0028566049877554,0.0,0.0,0.1513073444366455,-0.0140862464904785
-0.0616095550358295,0.9597176909446716,-0.1224192827939987,-0.5488249063491821,-0.2258097529411316,-0.0019134888425469,0.0,0.0,-0.9611242413520812,-0.563016414642334
-0.0628767982125282,0.9470352530479432,-0.1275552362203598,-0.5635406970977783,-0.2249722927808761,0.0167492665350437,0.0,0.0,-0.8996367454528809,-0.8873674273490906
-0.064203642308712,0.9340218901634216,-0.1348714530467987,-0.5780395269393921,-0.2227626889944076,0.0441920049488544,0.0,0.0,-0.9788129925727844,-0.4655805230140686
-0.0655261054635047,0.9206647276878356,-0.1341516673564911,-0.5933573246002197,-0.2208246439695358,0.0387609377503395,0.0,0.0,-0.9976592063903807,-0.7150593996047974
-0.0669084563851356,0.9069936275482178,-0.1415837705135345,-0.6071111559867859,-0.217442899942398,0.0676348730921745,0.0,0.0,-0.9773263931274414,-0.6079157590866089
-0.0683435425162315,0.8930032253265381,-0.1480689793825149,-0.6211367249488831,-0.2128339111804962,0.0921797081828117,0.0,0.0,-0.7313623428344727,0.3575189113616943
-0.0697753876447677,0.8786690831184387,-0.1474891453981399,-0.6364556550979614,-0.2084942311048507,0.0867938920855522,0.0,0.0,-0.8724262118339539,-0.2314668893814087
-0.0712047591805458,0.8639916181564331,-0.1469679772853851,-0.6517742872238159,-0.2044228464365005,0.0814274996519088,0.0,0.0,-0.8996691107749939,0.2553178071975708
-0.0726321190595626,0.8489702343940735,-0.1465114206075668,-0.6670925617218018,-0.2006186991930008,0.0760828107595443,0.0,0.0,-0.8789634704589844,-0.5169996619224548
-0.074091337621212,0.8336125612258911,-0.1502815634012222,-0.6819778084754944,-0.1962323933839798,0.0877264589071273,0.0,0.0,-0.6400831341743469,-0.3864989280700683
-0.0755500793457031,0.8179113864898682,-0.149971529841423,-0.6972960233688354,-0.1921107918024063,0.0824321210384368,0.0,0.0,-0.4484315514564514,0.0532114505767822
-0.0770092010498046,0.8018664717674255,-0.1497429013252258,-0.7126140594482422,-0.1882524192333221,0.0771667137742042,0.0,0.0,-0.7519031763076782,0.2440195083618164
-0.0784693732857704,0.7854779958724976,-0.1496009677648544,-0.727931797504425,-0.1846557855606079,0.071932777762413,0.0,0.0,-0.9017636179924012,0.4200103282928467
-0.0799317359924316,0.7687456011772156,-0.1495508253574371,-0.743249237537384,-0.1813191026449203,0.066733106970787,0.0,0.0,-0.2323904633522033,-0.1999614238739013
-0.081396959722042,0.7516695857048035,-0.1495973318815231,-0.7585665583610535,-0.1782405972480774,0.061570506542921,0.0,0.0,-0.1918003559112548,0.0541582107543945
-0.0828662887215614,0.7342496514320374,-0.1497451961040496,-0.773883581161499,-0.1754181832075119,0.056447934359312,0.0,0.0,0.2476100921630859,-0.148830235004425
-0.0842936486005783,0.7173773646354675,-0.1450388729572296,-0.7496107220649719,-0.1731158196926117,0.0460475012660026,0.0,0.0,-0.4926173686981201,-0.3729252815246582
-0.0857272148132324,0.7001609802246094,-0.145402580499649,-0.7649271488189697,-0.171065092086792,0.0410144850611686,0.0,0.0,-0.3073911666870117,-0.1565019488334655
-0.0871681198477745,0.6826009154319763,-0.1458803713321685,-0.7802435159683228,-0.1692635267972946,0.0360313989222049,0.0,0.0,0.64787757396698,0.0001579523086547
-0.0884089469909668,0.6654284596443176,-0.1262103617191314,-0.7629805207252502,-0.1671386063098907,0.0424988195300102,0.0,0.0,0.636377215385437,-0.2025582790374755
-0.0895354300737381,0.6488041877746582,-0.1146317943930625,-0.7386343479156494,-0.1651492863893509,0.039786260575056,0.0,0.0,0.288408875465393,-0.2893868684768677
-0.0906152725219726,0.6322969794273376,-0.1097596660256385,-0.7334576845169067,-0.1633722931146621,0.0355399139225482,0.0,0.0,0.3407332897186279,-0.0537372231483459
-0.0917282104492187,0.6161802411079407,-0.1123739704489708,-0.7161863446235657,-0.1622972637414932,0.0215010344982147,0.0,0.0,0.4195258617401123,-0.5463429689407349
-0.0927578955888748,0.6008197069168091,-0.1049493923783302,-0.6824718117713928,-0.1603119820356369,0.0397052094340324,0.0,0.0,-0.7816924452781677,-0.1023731231689453
-0.0938021689653396,0.5851151943206787,-0.1061812043190002,-0.6977875828742981,-0.1585566103458404,0.0351073592901229,0.0,0.0,-0.4252040386199951,-0.0849421024322509
-0.0948622673749923,0.5690667033195496,-0.1075476631522178,-0.7131032943725586,-0.1570270955562591,0.0305906441062688,0.0,0.0,0.8033566474914551,-0.0151655673980712
-0.095960333943367,0.5534638166427612,-0.1106393337249755,-0.6933764219284058,-0.156194195151329,0.0166575722396373,0.0,0.0,0.7346421480178833,-0.7730591893196106
-0.0971307754516601,0.538612425327301,-0.1190030127763748,-0.6598609089851379,-0.1542394459247589,0.0390953943133354,0.0,0.0,-0.4291490316390991,0.4286146163940429
-0.0983211547136306,0.5234168767929077,-0.1207830905914306,-0.6751763820648193,-0.1524965763092041,0.0348576828837394,0.0,0.0,0.5079598426818848,-0.4272788166999817
-0.0995319336652755,0.5090468525886536,-0.1220681890845298,-0.63856440782547,-0.151504173874855,0.019848171621561,0.0,0.0,0.1009862422943115,-0.2864750027656555
-0.1006587967276573,0.4948923885822296,-0.1137058585882186,-0.6289876699447632,-0.1504861563444137,0.0203604120761156,0.0,0.0,-0.67937171459198,0.4306677579879761
-0.1018095985054969,0.480393648147583,-0.1159074082970619,-0.6443026065826416,-0.1496629416942596,0.0164639856666326,0.0,0.0,0.8339614868164062,0.115518569946289
-0.102857306599617,0.4660691618919372,-0.1057538390159607,-0.6365455985069275,-0.1486789137125015,0.0196807719767093,0.0,0.0,0.7789822816848755,0.0735434293746948
-0.1039111167192459,0.4519502222537994,-0.1060288771986961,-0.6274430751800537,-0.1480337083339691,0.0129039976745843,0.0,0.0,0.586829423904419,-0.4697626829147339
-0.1048884391784668,0.4386191368103027,-0.0981701835989952,-0.5924485921859741,-0.1475997418165207,0.0086792446672916,0.0,0.0,-0.1673122644424438,0.4140968322753906
-0.1058950424194336,0.4249438941478729,-0.1009319275617599,-0.6077630519866943,-0.1473319977521896,0.0053547802381217,0.0,0.0,0.6737332344055176,-0.0440474152565002
-0.1069232001900672,0.4121780097484588,-0.1023918539285659,-0.5674139857292175,-0.1477480232715606,-0.0083205346018075,0.0,0.0,0.0863174200057983,0.990146279335022
-0.1079754829406738,0.3993862271308899,-0.1027044430375099,-0.5687782764434814,-0.1502668410539627,-0.0503759458661079,0.0,0.0,-0.1744914650917053,0.0951428413391113
-0.1090608611702919,0.3862501978874206,-0.1058747917413711,-0.584092915058136,-0.1529252976179123,-0.0531692579388618,0.0,0.0,-0.3506597876548767,0.6579959392547607
-0.1101377457380294,0.3727601170539856,-0.1038063168525695,-0.5999618768692017,-0.1568085551261901,-0.0776652246713638,0.0,0.0,0.4317376613616943,-0.6973278522491455
-0.1112644225358963,0.3598242998123169,-0.1099691838026046,-0.5752113461494446,-0.1595066636800766,-0.0539621524512767,0.0,0.0,0.1225593090057373,-0.8391882181167603
-0.1124266609549522,0.3472701907157898,-0.1150930747389793,-0.5580829977989197,-0.1606350690126419,-0.022568229585886,0.0,0.0,-0.6667778491973877,0.2619513273239136
-0.1136266738176345,0.3343716859817505,-0.1187786012887954,-0.5733967423439026,-0.1618602722883224,-0.0245044715702533,0.0,0.0,0.3707849979400635,0.7557765245437622
-0.1147399917244911,0.3215223550796509,-0.1085382923483848,-0.5713902115821838,-0.1646563708782196,-0.055922120809555,0.0,0.0,-0.5707199573516846,-0.2846512198448181
-0.1158933639526367,0.3083287477493286,-0.1124645918607711,-0.5867041945457458,-0.1675246655941009,-0.0573663227260112,0.0,0.0,0.0765144824981689,-0.6120492815971375
-0.1169671043753624,0.2953260242938995,-0.1058219224214553,-0.5780720114707947,-0.169082373380661,-0.0311540868133306,0.0,0.0,0.522650957107544,0.1581056118011474
-0.1178950294852256,0.2824839651584625,-0.0917863398790359,-0.5708726048469543,-0.1700915396213531,-0.0201829560101032,0.0,0.0,0.8274054527282715,-0.1862356066703796
-0.1187314018607139,0.2705275416374206,-0.082567885518074,-0.5315202474594116,-0.1711616069078445,-0.0214012023061513,0.0,0.0,-0.1940037012100219,-0.8525983095169067
-0.1196737289428711,0.2582493126392364,-0.0947748720645904,-0.5456377267837524,-0.1706248670816421,0.010734393261373,0.0,0.0,0.926772117614746,0.2486743927001953
-0.1203855499625206,0.2467394918203354,-0.0723851844668388,-0.5114068984985352,-0.1694195568561554,0.0241060815751552,0.0,0.0,0.6711423397064209,0.0117262601852417
-0.120986558496952,0.2353476136922836,-0.0617932267487049,-0.506114661693573,-0.1677309721708297,0.0337716490030288,0.0,0.0,0.8323906660079956,0.0327920913696289
-0.1215970963239669,0.2244610637426376,-0.062491200864315,-0.483684092760086,-0.1662858128547668,0.0289032701402902,0.0,0.0,0.2874993085861206,0.4525032043457031
-0.1220781356096267,0.2142081558704376,-0.0498986914753913,-0.4554842412471771,-0.1644945442676544,0.0358254015445709,0.0,0.0,0.4969069957733154,0.4889837503433227
-0.1225432381033897,0.2043789774179458,-0.048259861767292,-0.4366631209850311,-0.1627452075481414,0.0349867567420005,0.0,0.0,0.2624790668487549,0.3599393367767334
-0.1230519264936447,0.1951279193162918,-0.0522498078644275,-0.4110057055950165,-0.1613652259111404,0.0275992713868618,0.0,0.0,-0.7532721757888794,0.0589209794998168
-0.1236095428466796,0.18553227186203,-0.0572197325527668,-0.4263171255588531,-0.159900277853012,0.0292990244925022,0.0,0.0,-0.3086174726486206,0.3873907327651977
-0.1242164596915245,0.1755918562412262,-0.0622568242251873,-0.4416283667087555,-0.1583360880613327,0.0312833935022354,0.0,0.0,0.4884123802185058,0.6367368698120117
-0.1247970610857009,0.1663177758455276,-0.0582976043224334,-0.4121555984020233,-0.1581004709005355,0.0047122319228947,0.0,0.0,0.1469260454177856,-0.0188900232315063
-0.1253905296325683,0.1572150737047195,-0.0596348531544208,-0.4045346677303314,-0.1578181385993957,0.0056467028334736,0.0,0.0,0.406176209449768,0.0398043394088745
-0.1260523796081543,0.1485491842031479,-0.0661423355340957,-0.3851532340049743,-0.1578554809093475,-0.0007469927659258,0.0,0.0,0.3040128946304321,0.559968113899231
-0.1267848014831543,0.1401698142290115,-0.0719687566161155,-0.3725530505180359,-0.159131571650505,-0.025521770119667,0.0,0.0,0.4635276794433594,0.5395505428314209
-0.1273251473903656,0.1323572993278503,-0.0520873740315437,-0.3474316298961639,-0.1610777676105499,-0.0389240607619285,0.0,0.0,-0.1016379594802856,-0.7770995497703552
-0.1279722154140472,0.1242065280675888,-0.0643293559551239,-0.362298846244812,-0.1614551097154617,-0.0075465524569153,0.0,0.0,0.7479612827301025,0.8475544452667236
-0.1283069550991058,0.1168552711606025,-0.0318918004631996,-0.3268953561782837,-0.1630381941795349,-0.0316619761288166,0.0,0.0,0.3322129249572754,-0.657878577709198
-0.1286626756191253,0.1101082637906074,-0.0354812294244766,-0.2998777627944946,-0.1631396859884262,-0.0020298869349062,0.0,0.0,0.3021485805511474,-0.442049503326416
-0.1288500726222992,0.1039857491850853,-0.0193616338074207,-0.2720454037189483,-0.1625149399042129,0.0124948881566524,0.0,0.0,-0.1500847935676574,-0.1792870759963989
-0.12908935546875,0.097518190741539,-0.0247710198163986,-0.2873548865318298,-0.1616752296686172,0.0167940985411405,0.0,0.0,0.6425875425338745,-0.6129767894744873
-0.1293046027421951,0.0919270366430282,-0.023804847151041,-0.2482495605945587,-0.1593999564647674,0.0455058217048645,0.0,0.0,0.1799173355102539,0.5756931304931641
-0.1293896734714508,0.0868066623806953,-0.0099448375403881,-0.2274177372455597,-0.1579588800668716,0.0288215316832065,0.0,0.0,0.0643582344055175,-0.1616797447204589
-0.1294286698102951,0.0817666873335838,-0.0058181486092507,-0.2238000333309173,-0.1560394912958145,0.0383877903223037,0.0,0.0,0.2789982557296753,0.0201650857925415
-0.1295381486415863,0.0771129429340362,-0.0126865431666374,-0.206651508808136,-0.154313325881958,0.0345231220126152,0.0,0.0,0.1591978073120117,0.7089309692382812
-0.1296891272068023,0.0726583302021026,-0.0155343459919095,-0.1979386359453201,-0.1538701802492141,0.0088632879778742,0.0,0.0,0.0078393220901489,0.8393518924713135
-0.1297880113124847,0.0683562159538269,-0.0089082596823573,-0.1913076490163803,-0.1548511236906051,-0.0196187794208526,0.0,0.0,0.3953455686569214,0.5154823064804077
-0.1298044174909591,0.0643608644604682,6.125132495071739e-05,-0.1777464747428894,-0.1565457582473755,-0.0338925682008266,0.0,0.0,0.3289312124252319,0.1470822095870971
-0.12972192466259,0.0604245290160179,0.0091897258535027,-0.1750489622354507,-0.1574884951114654,-0.0188543479889631,0.0,0.0,0.5677807331085205,-0.3453384637832641
-0.1294958144426345,0.0570825673639774,0.0228503663092851,-0.1485576629638672,-0.1577332615852356,-0.0048953997902572,0.0,0.0,0.0747193098068237,0.2853292226791382
-0.1292202025651931,0.0541689023375511,0.0274586640298366,-0.1294823139905929,-0.1576287597417831,0.0020895977504551,0.0,0.0,-0.5088077783584595,0.5525162220001221
