x_pos,y_pos,x_vel,y_vel,angle,ang_vel,leg_1,leg_2,main_booster,lat_booster
-0.00158481602557,1.4033048152923584,-0.1599328219890594,-0.3384621739387512,0.0012956137070432,0.0255223475396633,0.0,0.0,-0.6569433671868263,-0.9846179319082768
-0.0033003806602209,1.395387887954712,-0.174113780260086,-0.3518668413162231,0.0038335521239787,0.0507645308971405,0.0,0.0,-0.2828149341722443,0.904093107954979
-0.0049868584610521,1.387144684791565,-0.1685117185115814,-0.3663664162158966,0.0036977019626647,-0.0027172719128429,0.0,0.0,-0.8442289242442342,0.6346810259393745
-0.0066888807341456,1.3785797357559204,-0.1685666739940643,-0.3806609511375427,0.0020811778958886,-0.0323335379362106,0.0,0.0,-0.5865627016340502,-0.6213856753425464
-0.0084827421233057,1.369696855545044,-0.1782589256763458,-0.3947928845882416,0.0009732047910802,-0.0221615675836801,0.0,0.0,-0.3455147731377841,-0.7948459054745096
-0.0103757856413722,1.3604930639266968,-0.1889737099409103,-0.4090593755245209,0.0006387364119291,-0.0066901044920086,0.0,0.0,0.7839063269323769,0.9846106000906374
-0.0122674945741891,1.3519048690795898,-0.186399444937706,-0.3816984593868255,-0.0021119092125445,-0.0550178699195385,0.0,0.0,0.1541783810692021,0.6773465792535602
-0.0140332225710153,1.3436763286590576,-0.1721931844949722,-0.3657248914241791,-0.0064403912983834,-0.0865775048732757,0.0,0.0,0.0093306024970944,0.93753333052058
-0.0157736781984567,1.335904836654663,-0.1673964411020279,-0.3454412519931793,-0.0130057204514741,-0.1313187181949615,0.0,0.0,0.5446338173367586,0.5111696834340356
-0.0175057407468557,1.3288352489471436,-0.1651722639799118,-0.3142900466918945,-0.0209446512162685,-0.1587935388088226,0.0,0.0,-0.1839508087367256,-0.504786586259879
-0.0193086620420217,1.3214480876922607,-0.172800213098526,-0.3284363746643066,-0.0283617321401834,-0.148355022072792,0.0,0.0,-0.1086878926612142,0.940794822739674
-0.0210625641047954,1.313737154006958,-0.1654756367206573,-0.3429315686225891,-0.0381740145385265,-0.1962635815143585,0.0,0.0,-0.9606441339831322,0.8034705365102383
-0.0227697379887104,1.3057078123092651,-0.1585564017295837,-0.357214868068695,-0.0502062961459159,-0.2406675815582275,0.0,0.0,-0.4998271777616139,-0.906465804015856
-0.0245672222226858,1.2973568439483645,-0.1689422577619552,-0.3715481162071228,-0.0609029121696949,-0.213951975107193,0.0,0.0,0.9028032320384562,0.7813638622355545
-0.0260915756225585,1.2900959253311155,-0.1402600854635238,-0.3232458233833313,-0.0729750320315361,-0.2414644211530685,0.0,0.0,-0.3844804357718345,-0.7666475669023324
-0.0276853553950786,1.2825133800506592,-0.1482587158679962,-0.337579607963562,-0.0839998796582222,-0.220516949892044,0.0,0.0,-0.3038145226979369,-0.6037409236121211
-0.0293310172855854,1.2746244668960571,-0.1542321741580963,-0.3512282073497772,-0.0942636355757713,-0.2052935361862182,0.0,0.0,-0.4747400650898621,-0.7100036378245648
-0.0310317035764455,1.266417384147644,-0.160680204629898,-0.3653808832168579,-0.1035853624343872,-0.1864515841007232,0.0,0.0,-0.1065729686638219,-0.8899818291325585
-0.0327983871102333,1.2579089403152466,-0.1686829924583435,-0.378720760345459,-0.1115200892090797,-0.1587089151144027,0.0,0.0,0.6504941052610156,-0.8614393247280541
-0.0346628203988075,1.2499504089355469,-0.1799802035093307,-0.3542101681232452,-0.1179553419351577,-0.1287166178226471,0.0,0.0,-0.5857987400213651,0.5456634000798612
-0.036475084722042,1.2416672706604004,-0.1734058707952499,-0.3687719106674194,-0.1257435232400894,-0.1557777822017669,0.0,0.0,-0.9605284163866388,-0.6109202193647651
-0.0383303649723529,1.2330706119537354,-0.1789133101701736,-0.3826429545879364,-0.1323399543762207,-0.1319401562213897,0.0,0.0,-0.685361687643959,0.6827579020650739
-0.0401124954223632,1.224140763282776,-0.1699685156345367,-0.3976256251335144,-0.1405637860298156,-0.1644912362098693,0.0,0.0,-0.9342006259090688,-0.6253318389533595
-0.0419260971248149,1.21489417552948,-0.1742888987064361,-0.4116381704807281,-0.1476215422153473,-0.1411685049533844,0.0,0.0,-0.1544065849849543,0.5927443018165031
-0.0436875335872173,1.205322027206421,-0.1682735085487365,-0.4262239634990692,-0.1554885059595108,-0.1573533564805984,0.0,0.0,0.2814178667658427,0.7128480110276737
-0.0454150214791297,1.196238994598389,-0.1634110212326049,-0.4046922624111175,-0.1648292541503906,-0.186814934015274,0.0,0.0,-0.3444266894546959,-0.9916693682333232
-0.0471941940486431,1.1868623495101929,-0.1707164347171783,-0.4175653457641601,-0.1720341891050338,-0.144098699092865,0.0,0.0,-0.2295313274495816,0.7244924048151253
-0.0488997474312782,1.1771619319915771,-0.1624322533607483,-0.4320902526378631,-0.1801821887493133,-0.1629600375890731,0.0,0.0,-0.069303651772876,0.7507739864866045
-0.0505265220999717,1.1671359539031982,-0.1536048650741577,-0.44672891497612,-0.1892871111631393,-0.1820988655090332,0.0,0.0,-0.7593006053031797,-0.6582892781098592
-0.0521701797842979,1.1568033695220947,-0.1569221764802932,-0.4602013528347015,-0.1967797130346298,-0.1498516649007797,0.0,0.0,0.935893468865828,0.7712545155179231
-0.0534957870841026,1.1475942134857178,-0.1239140033721923,-0.4104743599891662,-0.2054886668920517,-0.1741793304681778,0.0,0.0,-0.4608583450317383,-0.5787361860275269
-0.0548290237784385,1.138077735900879,-0.126281052827835,-0.4239494204521179,-0.2125871628522873,-0.1419700682163238,0.0,0.0,-0.8539516925811768,-0.1559058427810669
-0.0561153404414653,1.1282413005828855,-0.1219274029135704,-0.438157707452774,-0.2193623930215835,-0.1355049908161163,0.0,0.0,-0.928766131401062,-0.1610039472579956
-0.0573514923453331,1.1180846691131592,-0.1172653064131736,-0.4523650109767914,-0.2257916331291198,-0.1285848021507263,0.0,0.0,-0.9657413363456726,-0.3452162742614746
-0.0585343353450298,1.1076077222824097,-0.1123074144124984,-0.4665713608264923,-0.231853500008583,-0.1212373822927475,0.0,0.0,-0.9743261337280272,-0.4689387083053589
-0.0596610084176063,1.096810221672058,-0.1070667877793312,-0.4807767868041992,-0.237527996301651,-0.1134903281927108,0.0,0.0,-0.8734872937202454,-0.7238448262214661
-0.0607869140803813,1.085709571838379,-0.1089070662856102,-0.4939644634723663,-0.2412755191326141,-0.074950560927391,0.0,0.0,-0.8651102781295776,-0.7719036340713501
-0.0619054809212684,1.0743141174316406,-0.1100212186574935,-0.5067663788795471,-0.2431351691484451,-0.0371935069561004,0.0,0.0,-0.7441409230232239,-0.6943739652633667
-0.0630148872733116,1.0626261234283447,-0.1110211610794067,-0.5194554924964905,-0.2430555522441864,0.0015927848871797,0.0,0.0,-0.9116485118865968,-0.8163837790489197
-0.064116857945919,1.0506399869918823,-0.1122684106230735,-0.5323713421821594,-0.2409500777721405,0.0421093925833702,0.0,0.0,-0.6319042444229126,-0.5267908573150635
-0.0651964172720909,1.038354754447937,-0.111727699637413,-0.5454005002975464,-0.2371214181184768,0.0765736401081085,0.0,0.0,-0.1067215204238891,-0.7936314940452576
-0.0662532821297645,1.0257644653320312,-0.1111925691366195,-0.5586982369422913,-0.2315410375595092,0.1116078868508338,0.0,0.0,-0.9117201566696168,-0.6521868705749512
-0.0672800093889236,1.0128610134124756,-0.1097456440329551,-0.5723820924758911,-0.2243719846010208,0.1433806121349334,0.0,0.0,-0.8593676090240479,-0.4442741870880127
-0.068231388926506,0.9996374249458312,-0.1027241125702858,-0.5865868926048279,-0.216700792312622,0.1534242928028106,0.0,0.0,-0.9379016160964966,0.6033279895782471
-0.0690634697675705,0.9860720038414,-0.0901811569929122,-0.6019039154052734,-0.209655687212944,0.1409021615982055,0.0,0.0,-0.8375131487846375,0.0127928256988525
-0.0698167830705642,0.9721860289573668,-0.0828388482332229,-0.616108775138855,-0.2020899653434753,0.1513145565986633,0.0,0.0,-0.9516934156417848,0.5393035411834717
-0.0704443007707595,0.9579626321792604,-0.0696127414703369,-0.6312322616577148,-0.195191353559494,0.1379721760749817,0.0,0.0,-0.9789950847625732,0.4273409843444824
-0.0709902793169021,0.9434187412261964,-0.0619923695921897,-0.6454373002052307,-0.1877567172050476,0.1486927568912506,0.0,0.0,-0.9327686429023744,0.5809633731842041
-0.0714175254106521,0.9285494685173036,-0.049764446914196,-0.6599791049957275,-0.1806850582361221,0.1414335370063781,0.0,0.0,-0.9644196033477784,0.5518766641616821
-0.0717193633317947,0.913346827030182,-0.0367209389805793,-0.6748880743980408,-0.1741334944963455,0.1310316026210785,0.0,0.0,-0.9468392133712769,0.2290730476379394
-0.0719359368085861,0.8978239297866821,-0.0287540256977081,-0.6890934109687805,-0.167027473449707,0.1421207934617996,0.0,0.0,-0.9269860982894896,0.6010141372680664
-0.0720233917236328,0.8819738626480103,-0.0153209995478391,-0.7037221789360046,-0.1604483127593994,0.131582885980606,0.0,0.0,-0.8843594789505005,0.6354546546936035
-0.0719654113054275,0.8657855987548828,0.0001595171343069,-0.7188776135444641,-0.1548101305961609,0.1127637177705764,0.0,0.0,-0.8984800577163696,0.0641720294952392
-0.0718192085623741,0.8492769598960876,0.0084012737497687,-0.7330827116966248,-0.1486035287380218,0.1241324543952941,0.0,0.0,-0.8530373573303223,0.5010769367218018
-0.0715353935956955,0.8324350714683533,0.0228414721786975,-0.7479842901229858,-0.1430758088827133,0.1105544939637184,0.0,0.0,-0.6845938563346863,0.7076084613800049
-0.071115493774414,0.8152596354484558,0.0370552241802215,-0.7628905177116394,-0.138164147734642,0.0982335805892944,0.0,0.0,-0.8419782519340515,0.111951470375061
-0.0706052780151367,0.7977636456489563,0.0455131903290748,-0.7770956754684448,-0.1326734572649002,0.1098139286041259,0.0,0.0,-0.8147551417350769,0.6658679246902466
-0.0699396133422851,0.779937207698822,0.0621125400066375,-0.7918992638587952,-0.1282346844673156,0.0887755900621414,0.0,0.0,-0.843961238861084,0.1224490404129028
-0.069182202219963,0.7617902755737305,0.0706878751516342,-0.8061043620109558,-0.1232113242149353,0.1004672273993492,0.0,0.0,-0.7876909375190735,0.2316062450408935
-0.0683326721191406,0.7433229684829712,0.0793148726224899,-0.8203102946281433,-0.1176009699702262,0.1122070923447609,0.0,0.0,-0.8871780633926392,0.7016079425811768
-0.0673310309648513,0.724518895149231,0.0954495519399643,-0.8353772759437561,-0.1129233464598655,0.0935528129339218,0.0,0.0,-0.733485758304596,0.4078948497772217
-0.0662363022565841,0.7053945064544678,0.1041679754853248,-0.8495833277702332,-0.1076545417308807,0.1053760796785354,0.0,0.0,-0.5964055061340332,0.5705206394195557
-0.0649940520524978,0.6859395503997803,0.1197043061256408,-0.8643429279327393,-0.1031647324562072,0.0897961407899856,0.0,0.0,-0.4069242477416992,0.2873860597610473
-0.0636577606201171,0.6661644577980042,0.1284998655319214,-0.878549337387085,-0.0980803295969963,0.1016879454255104,0.0,0.0,-0.1316874027252197,-0.0384076237678527
-0.0622272491455078,0.646069347858429,0.1373291909694671,-0.892756462097168,-0.092399887740612,0.113608993589878,0.0,0.0,0.422357439994812,-0.526988685131073
-0.0608111396431922,0.626436173915863,0.13449127972126,-0.8721616864204407,-0.0853487700223922,0.1410221755504608,0.0,0.0,0.2034246921539306,-0.0971912145614624
-0.0592313781380653,0.6074129939079285,0.1501808166503906,-0.8450493216514587,-0.0776267722249031,0.1544401347637176,0.0,0.0,-0.1276865601539611,-0.0967892408370971
-0.0575563423335552,0.5880703330039978,0.1590951979160308,-0.8592603206634521,-0.069305196404457,0.1664315313100814,0.0,0.0,0.5850698947906494,-0.2731696367263794
-0.0557032600045204,0.5696312785148621,0.1761735379695892,-0.8191159963607788,-0.060263130813837,0.1808411478996276,0.0,0.0,-0.4326457977294922,-0.6932411789894104
-0.0538178458809852,0.5508760213851929,0.1771761924028396,-0.8331443071365356,-0.0490249656140804,0.2247630804777145,0.0,0.0,-0.2400690913200378,-0.3691344261169433
-0.0518363937735557,0.5318024754524231,0.1861551105976104,-0.8473623394966125,-0.0371848568320274,0.2368023693561554,0.0,0.0,0.4727650880813598,-0.5059875845909119
-0.0497488006949424,0.5132442116737366,0.1950663775205612,-0.8245264887809753,-0.0236600749194622,0.2704953551292419,0.0,0.0,0.5953006744384766,0.6788532733917236
-0.0476275458931922,0.4956017136573791,0.1994678825139999,-0.7839595079421997,-0.011168354190886,0.2498345375061035,0.0,0.0,0.0561466217041015,0.4944887161254883
-0.0453588478267192,0.4781944751739502,0.2133858203887939,-0.7736063599586487,0.0021442186553031,0.2662511765956878,0.0,0.0,0.6691591739654541,0.4052736759185791
-0.0430285446345806,0.4610625803470611,0.2190962731838226,-0.761494517326355,0.0159031171351671,0.2751780748367309,0.0,0.0,0.1942756175994873,0.6487081050872803
-0.040498923510313,0.4439616203308105,0.2396357357501983,-0.7602368593215942,0.0290581956505775,0.2631018161773681,0.0,0.0,0.6909219026565552,-0.2409288883209228
-0.037915039807558,0.4270630478858948,0.244608998298645,-0.7513722777366638,0.0426681414246559,0.2721986174583435,0.0,0.0,0.7913060188293457,0.7376291751861572
-0.0352228172123432,0.4111458957195282,0.2563489377498626,-0.7078410387039185,0.0553925298154354,0.2544876039028168,0.0,0.0,0.3415136337280273,-0.5172801613807678
-0.0324411392211914,0.3959117233753204,0.2634828686714172,-0.6776816844940186,0.0699138343334198,0.2904261946678161,0.0,0.0,0.5389760732650757,0.2859997749328613
-0.0297201164066791,0.3814895153045654,0.2573143243789673,-0.6417437791824341,0.0845563784241676,0.2928507626056671,0.0,0.0,0.5191941261291504,0.1080856323242187
-0.0270465854555368,0.367191344499588,0.2525355815887451,-0.6363820433616638,0.09925327450037,0.2939381301403045,0.0,0.0,0.1379412412643432,0.5156257152557373
-0.0242593772709369,0.3534047901630401,0.2642805576324463,-0.613756000995636,0.1135847568511962,0.28662970662117,0.0,0.0,0.1571223735809326,0.4388501644134521
-0.0214916225522756,0.3398908972740173,0.2620924711227417,-0.6018012762069702,0.1281924545764923,0.292153924703598,0.0,0.0,-0.0704321861267089,0.5472507476806641
-0.0185880661010742,0.3260707855224609,0.2760745286941528,-0.6155129671096802,0.1424098312854766,0.2843477725982666,0.0,0.0,0.8314471244812012,0.0235427618026733
-0.0157109256833791,0.3130830526351928,0.2729272246360779,-0.5787116885185242,0.1571699231863021,0.2952015399932861,0.0,0.0,0.1786667108535766,0.5633261203765869
-0.0126902582123875,0.3004212379455566,0.2877161502838135,-0.5643255710601807,0.1715305596590042,0.2872128486633301,0.0,0.0,0.3245354890823364,0.3197004795074463
-0.0096008302643895,0.28785440325737,0.2939194440841675,-0.5603282451629639,0.1865823119878769,0.3010351657867431,0.0,0.0,0.7681796550750732,0.691107988357544
-0.0063347816467285,0.2756474912166595,0.3121723532676697,-0.5444074273109436,0.2010988742113113,0.2903313040733337,0.0,0.0,-0.4216814041137695,0.6052906513214111
-0.0029139518737792,0.2631428241729736,0.328601211309433,-0.5576555728912354,0.2147041261196136,0.2721049189567566,0.0,0.0,0.44002366065979,0.1381857395172119
0.0006488800281658,0.2508653104305267,0.3416849374771118,-0.5478552579879761,0.2294729202985763,0.2953755259513855,0.0,0.0,0.9236420392990112,0.2217748165130615
0.0041027069091796,0.239548310637474,0.3302648663520813,-0.5054029822349548,0.2448118925094604,0.3067797422409057,0.0,0.0,0.0979654788970947,0.5773999691009521
0.0075961113907396,0.228679284453392,0.3348101675510406,-0.485558420419693,0.2596161365509033,0.2960851192474365,0.0,0.0,0.572091817855835,-0.3113656640052795
0.0111371036618947,0.2184614986181259,0.3385058343410492,-0.4569669067859649,0.2755675017833709,0.3190272748470306,0.0,0.0,0.3291981220245361,-0.1685962677001953
0.0147803304716944,0.2083417773246765,0.3478657901287079,-0.4529599249362945,0.2924920320510864,0.3384906053543091,0.0,0.0,0.929908037185669,-0.5420644879341125
0.0182445533573627,0.1987149268388748,0.3285899758338928,-0.43155038356781,0.3109286427497864,0.3687321543693542,0.0,0.0,0.6176254749298096,0.299973726272583
0.0216243751347064,0.1900197118520736,0.3193106055259704,-0.3905741572380066,0.3303439319133758,0.3883057236671448,0.0,0.0,0.8339160680770874,0.0984154939651489
0.0248696319758892,0.1818959861993789,0.3055174946784973,-0.3655233979225158,0.3502334654331207,0.3977905511856079,0.0,0.0,0.9304094314575196,0.0884495973587036
0.027753734961152,0.1746950000524521,0.269626647233963,-0.324746310710907,0.3700429797172546,0.3961901068687439,0.0,0.0,0.374301552772522,0.7493711709976196
0.0306514743715524,0.1680728793144226,0.2719238400459289,-0.299048513174057,0.3890089690685272,0.3793195188045501,0.0,0.0,0.3481771945953369,0.499036431312561
0.033370591700077,0.1619634479284286,0.2538302540779114,-0.2765912115573883,0.4083619713783264,0.3870603442192077,0.0,0.0,-0.0144351124763488,0.646254301071167
0.0362220779061317,0.1555721312761306,0.2677510380744934,-0.2891930937767029,0.4271410703659057,0.3755818009376526,0.0,0.0,0.3645504713058471,0.5568878650665283
0.039016343653202,0.1494414657354354,0.2627449631690979,-0.2776440978050232,0.4453027248382568,0.3632333874702453,0.0,0.0,0.6170530319213867,0.7432979345321655
0.0415892601013183,0.143752247095108,0.241830438375473,-0.2578685879707336,0.462267518043518,0.3392960727214813,0.0,0.0,0.2626240253448486,0.7754838466644287
0.0440147407352924,0.1382392793893814,0.2282702922821045,-0.2498462796211242,0.4780652821063995,0.3159552216529846,0.0,0.0,0.0389974117279052,0.5147143602371216
0.0464248657226562,0.1330960839986801,0.2272059470415115,-0.2334324717521667,0.4934727251529693,0.3081488013267517,0.0,0.0,0.003360629081726,0.7397515773773193
0.0489118583500385,0.1280016005039215,0.2358616888523101,-0.2310980856418609,0.5079189538955688,0.2889244258403778,0.0,0.0,0.3574135303497314,0.779517650604248
0.0513537414371967,0.1235622242093086,0.2322715073823928,-0.2017949372529983,0.521433413028717,0.2702893912792206,0.0,0.0,-0.2285664081573486,0.2744872570037842
0.0538867935538291,0.1188089922070503,0.2409844696521759,-0.2160417884588241,0.5355142951011658,0.2816173732280731,0.0,0.0,0.2352337837219238,0.6633694171905518
0.0563283935189247,0.114703357219696,0.2325547933578491,-0.1871294230222702,0.5488942861557007,0.267599880695343,0.0,0.0,-0.27925705909729,0.6411608457565308
0.0589080825448036,0.1103277802467346,0.2472947090864181,-0.1988747417926788,0.5612915754318237,0.2479462623596191,0.0,0.0,0.1602473258972168,-0.3494467735290527
0.0612676627933979,0.1063623279333114,0.2249186486005783,-0.1809301078319549,0.5742178559303284,0.2585259079933166,0.0,0.0,0.1429797410964965,0.6852462291717529
0.0635022148489952,0.1028560027480125,0.2132552117109298,-0.1602861583232879,0.586258053779602,0.2408038675785064,0.0,0.0,-0.2723026871681213,0.9435372352600098
0.0658959373831749,0.0991005524992942,0.2307112962007522,-0.1707797646522522,0.5965471863746643,0.2057831585407257,0.0,0.0,-0.0980131030082702,0.4056406021118164
0.0683769211173057,0.0950306057929992,0.2390476465225219,-0.185022160410881,0.6073705554008484,0.216467410326004,0.0,0.0,0.3958563804626465,0.9471437931060792
0.070655345916748,0.0911363959312439,0.2201765477657318,-0.1766584664583206,0.6166138648986816,0.1848667562007904,0.0,0.0,0.517909049987793,0.9173855781555176
0.0727598220109939,0.0876030325889587,0.2040491849184036,-0.1600814312696457,0.6243712306022644,0.1551467925310135,0.0,0.0,0.3675606250762939,0.8923381567001343
0.0747672095894813,0.0843727886676788,0.1955337822437286,-0.1460869461297989,0.6307233572006226,0.1270428597927093,0.0,0.0,-0.1795148849487304,0.9861723184585572
0.0769367218017578,0.0809022262692451,0.2134739160537719,-0.155952513217926,0.6349868774414062,0.0852706953883171,0.0,0.0,-0.1620562076568603,0.8778313398361206
0.0792504325509071,0.0771892666816711,0.2293114215135574,-0.1660334765911102,0.637518584728241,0.050634492188692,0.0,0.0,-0.6018291115760803,0.7298636436462402
0.0816893577575683,0.0732186660170555,0.2428002655506134,-0.1770142465829849,0.6388660073280334,0.0269480943679809,0.0,0.0,-0.1121095418930053,0.6805856227874756
0.0842575058341026,0.0689781978726387,0.2566527724266052,-0.1885409206151962,0.6390592455863953,0.0038649153430014,0.0,0.0,-0.115992784500122,0.6864417791366577
