x_pos,y_pos,x_vel,y_vel,angle,ang_vel,leg_1,leg_2,main_booster,lat_booster
-0.0014537811512127,1.403125882148743,-0.1469564586877823,-0.3464153409004211,0.0014093369245529,0.0277743153274059,0.0,0.0,-0.1117641925811767,0.5016658306121826
-0.0027927397750318,1.3948537111282349,-0.1338641494512558,-0.367655873298645,0.0013841144973412,-0.0005038286326453,0.0,0.0,-0.4343401193618774,0.3282291889190674
-0.0040573119185864,1.3860821723937988,-0.1261056959629058,-0.3898438811302185,0.0010327696800231,-0.0070273601450026,0.0,0.0,-0.0867890119552612,0.4047949314117431
-0.0052457810379564,1.376811981201172,-0.1181490272283554,-0.4120127260684967,0.0003500806342344,-0.0136551009491086,0.0,0.0,0.2690374851226806,0.4736863374710083
-0.0062571526505053,1.3677942752838137,-0.1005884408950805,-0.4007821977138519,-0.0001944633695529,-0.0108917821198701,0.0,0.0,-0.4298816323280334,-0.2907890081405639
-0.0071887015365064,1.3582777976989746,-0.0922542586922645,-0.4229530394077301,-0.0010804372141137,-0.0177213046699762,0.0,0.0,-0.4705768823623657,0.3422460556030273
-0.0080386158078908,1.3482626676559448,-0.0837393701076507,-0.4451155364513397,-0.0023119645193219,-0.0246332045644521,0.0,0.0,-0.7657083868980408,-0.0289545059204101
-0.0088051799684762,1.3377490043640137,-0.0750502198934555,-0.4672797322273254,-0.0038937106728553,-0.0316380634903907,0.0,0.0,-0.7059580087661743,-0.0748305916786193
-0.0094866752624511,1.326736569404602,-0.0661929324269294,-0.4894447326660156,-0.0058300024829804,-0.0387294068932533,0.0,0.0,-0.8951195478439331,-0.0986682176589965
-0.010081673040986,1.315225601196289,-0.0571738369762897,-0.5116099119186401,-0.0081249745562672,-0.04590355604887,0.0,0.0,-0.7985045313835144,-0.694036066532135
-0.0106354709714651,1.3032171726226809,-0.0538791120052337,-0.5337217450141907,-0.0096037657931447,-0.0295787192881107,0.0,0.0,-0.4833054542541504,-0.3950490951538086
-0.0110997203737497,1.2907098531723022,-0.0445589497685432,-0.5558872222900391,-0.0114496210590004,-0.0369204804301261,0.0,0.0,-0.1947184205055236,-0.8483337759971619
-0.0115255359560251,1.2777092456817627,-0.0416699722409248,-0.5778100490570068,-0.0123466681689023,-0.0179426111280918,0.0,0.0,-0.7614613771438599,-0.8915767669677734
-0.0119214057922363,1.2642028331756592,-0.0398912392556667,-0.6002804040908813,-0.0120528554543852,0.005876618437469,0.0,0.0,-0.305629014968872,-0.8756676316261292
-0.0122768403962254,1.250207781791687,-0.0368001163005828,-0.6219896674156189,-0.0108058312907814,0.0249429605901241,0.0,0.0,-0.7948488593101501,-0.8948599100112915
-0.0125954626128077,1.2357046604156494,-0.0342125073075294,-0.6445713043212891,-0.0084874844178557,0.0463712476193904,0.0,0.0,-0.2815643548965454,-0.7940819263458252
-0.0128667829558253,1.220712661743164,-0.0303157363086938,-0.6662915349006653,-0.0053373989649116,0.0630073398351669,0.0,0.0,-0.1368880867958068,-0.305302619934082
-0.0130413053557276,1.205222249031067,-0.0202491525560617,-0.6884575486183167,-0.0025743106380105,0.0552667677402496,0.0,0.0,-0.3505246043205261,-0.5963402986526489
-0.0131576536223292,1.1892390251159668,-0.0150310043245553,-0.7103649973869324,0.0007927922415547,0.0673480853438377,0.0,0.0,-0.6631907224655151,-0.3038359880447387
-0.0131752016022801,1.1727570295333862,-0.0047593060880899,-0.7325311303138733,0.0037674496416002,0.0594982393085956,0.0,0.0,-0.2845094799995422,-0.1713516116142273
-0.0130929946899414,1.1557766199111938,0.0056082922965288,-0.7546970248222351,0.0063479719683527,0.0516149587929248,0.0,0.0,-0.4531941413879394,0.2710634469985962
-0.0129101751372218,1.138297438621521,0.0160659048706293,-0.7768625617027283,0.0085319299250841,0.04368332400918,0.0,0.0,-0.1489008665084839,-0.4154266715049743
-0.0126259801909327,1.1203194856643677,0.0266082528978586,-0.7990280389785767,0.010317301377654,0.0357108935713768,0.0,0.0,-0.3044685125350952,-0.6229456663131714
-0.0122832302004098,1.1018352508544922,0.0317703410983085,-0.821538507938385,0.0127972308546304,0.0496028698980808,0.0,0.0,0.0376158952713012,-0.2322191596031189
-0.0119318962097167,1.0834569931030271,0.0334447659552097,-0.8168318271636963,0.0144609473645687,0.033277153968811,0.0,0.0,-0.0331974625587463,0.1050100326538086
-0.0114768026396632,1.0645582675933838,0.0442293547093868,-0.8399528861045837,0.0157214812934398,0.025210827589035,0.0,0.0,0.560293436050415,-0.2943043708801269
-0.010924625210464,1.0461900234222412,0.0543269030749797,-0.8163796067237854,0.0165945179760456,0.017460897564888,0.0,0.0,0.485903263092041,-0.4793068766593933
-0.0103975292295217,1.0284332036972046,0.0527844354510307,-0.789189338684082,0.0165192037820816,-0.0015063320752233,0.0,0.0,-0.6591651439666748,-0.1514722108840942
-0.0097651481628417,1.0101776123046875,0.0637250393629074,-0.8113518357276917,0.0160388685762882,-0.0096066789701581,0.0,0.0,-0.0016307234764099,-0.7112511992454529
-0.0090852733701467,0.99141925573349,0.0674090236425399,-0.833711564540863,0.0166172236204147,0.0115671847015619,0.0,0.0,-0.3358929753303528,-0.6268088221549988
-0.0083472253754735,0.9721681475639344,0.0724039748311042,-0.8556267023086548,0.0179977063089609,0.0276096351444721,0.0,0.0,0.0483511686325073,0.4714198112487793
-0.007557010743767,0.9528338313102722,0.0782709643244743,-0.8593101501464844,0.0187448374927043,0.0149425398558378,0.0,0.0,-0.0465704202651977,0.1127867698669433
-0.0066597936674952,0.9330007433891296,0.0893764048814773,-0.881472647190094,0.0190872885286808,0.0068491837009787,0.0,0.0,0.2413668632507324,-0.1213459968566894
-0.0057083130814135,0.9130738973617554,0.0954309999942779,-0.8856298923492432,0.0188040174543857,-0.0056651583872735,0.0,0.0,-0.0717720389366149,-0.8304784893989563
-0.0047132493928074,0.8926483392715454,0.0985680297017097,-0.9078160524368286,0.0197240933775901,0.0184015501290559,0.0,0.0,0.4830175638198852,-0.1711024045944214
-0.0036075592506676,0.872742772102356,0.1099688187241554,-0.8847054839134216,0.020317118614912,0.0118605215102434,0.0,0.0,0.307112455368042,-0.4237460494041443
-0.0024220466148108,0.8528777956962585,0.118458591401577,-0.8828849196434021,0.0204126015305519,0.001909747486934,0.0,0.0,0.2075750827789306,-0.808985710144043
-0.0011719703907147,0.8333537578582764,0.1236559748649597,-0.8677529692649841,0.0217432063072919,0.0266121476888656,0.0,0.0,-0.3063770532608032,-0.613882303237915
0.0001343727053608,0.8133360743522644,0.1283736079931259,-0.889706552028656,0.0239751115441322,0.0446383208036422,0.0,0.0,-0.2873833775520324,-0.6106442809104919
0.001502800034359,0.7928187847137451,0.1338185369968414,-0.911927044391632,0.0269673448055982,0.0598444826900959,0.0,0.0,-0.3654005527496338,-0.6620072722434998
0.0029177665710449,0.771806001663208,0.1372951418161392,-0.93398118019104,0.0311139430850744,0.0829320102930069,0.0,0.0,-0.2034541368484497,-0.526810348033905
0.0044077872298657,0.7502920031547546,0.1443579643964767,-0.9562838673591614,0.0357007421553134,0.0917358547449112,0.0,0.0,0.4952462911605835,-0.4044656157493591
0.0060835839249193,0.7287095785140991,0.1629287749528885,-0.9593379497528076,0.0403036996722221,0.0920590683817863,0.0,0.0,0.9343349933624268,-0.97601717710495
0.0078943250700831,0.7075573205947876,0.1746192276477813,-0.9402822852134703,0.046678178012371,0.1274897456169128,0.0,0.0,0.9635863304138184,-0.9210898280143738
0.0096708294004201,0.6864117980003357,0.1698425114154815,-0.9400706887245178,0.0544023215770721,0.154482752084732,0.0,0.0,0.9462380409240724,-0.9104449152946472
0.0115215303376317,0.6653475165367126,0.1756987273693084,-0.9365611672401428,0.0636703670024871,0.1853606700897216,0.0,0.0,0.9917933940887452,-0.559799075126648
0.0134790418669581,0.6445922255516052,0.1854161620140075,-0.922934889793396,0.0739023759961128,0.2046400755643844,0.0,0.0,0.9169801473617554,-0.398287296295166
0.0153421405702829,0.624771773815155,0.1769661009311676,-0.8813962936401367,0.0831565111875534,0.1850825250148773,0.0,0.0,0.7400999069213867,0.2106466293334961
0.0171037670224905,0.6056767106056213,0.1678470373153686,-0.849152147769928,0.091393806040287,0.1647459268569946,0.0,0.0,0.5811767578125,-0.4363830685615539
0.0189070701599121,0.5868077874183655,0.172483891248703,-0.8391181230545044,0.0991714894771575,0.1555537432432174,0.0,0.0,0.8666093349456787,-0.29873126745224
0.0209135059267282,0.5684276223182678,0.1924184560775756,-0.8174627423286438,0.1073378324508667,0.1633269935846328,0.0,0.0,0.4998872280120849,-0.275188148021698
0.0229016300290823,0.5505381226539612,0.191193550825119,-0.795653223991394,0.1149065271019935,0.1513738930225372,0.0,0.0,0.2523450851440429,0.2096740007400512
0.0250381473451852,0.5326666831970215,0.2060049325227737,-0.7948959469795227,0.1225083544850349,0.1520366072654724,0.0,0.0,0.5006576776504517,0.0677183866500854
0.0271931644529104,0.5153759121894836,0.20818492770195,-0.7690961360931396,0.1297794729471206,0.1454223841428756,0.0,0.0,0.2717634439468384,-0.2129215598106384
0.0295165069401264,0.4981671273708343,0.2248489558696746,-0.765505850315094,0.1372435390949249,0.149281308054924,0.0,0.0,0.211827278137207,-0.1789431571960449
0.0318258292973041,0.4809589385986328,0.224098652601242,-0.7654543519020081,0.1440527141094207,0.1361835896968841,0.0,0.0,0.5775454044342041,-0.2938239574432373
0.0342164039611816,0.4644010365009308,0.2321461141109466,-0.7365898489952087,0.1509539783000946,0.1380253434181213,0.0,0.0,0.4719808101654053,-0.5990197062492371
0.0367026329040527,0.448257565498352,0.2405412644147873,-0.7183262705802917,0.1590310782194137,0.1615423709154129,0.0,0.0,0.0542210340499877,-0.7020288705825806
0.0392038337886333,0.4324007928371429,0.2408962994813919,-0.7057555913925171,0.1682486981153488,0.1843520104885101,0.0,0.0,0.664283275604248,0.6679015159606934
0.0416400916874408,0.4172143340110779,0.2362551987171173,-0.6758092045783997,0.1756413578987121,0.1478531509637832,0.0,0.0,0.0630098581314086,-0.5225853323936462
0.0441280379891395,0.401875376701355,0.2406044751405716,-0.6827186346054077,0.1838596016168594,0.1643648445606231,0.0,0.0,0.8308145999908447,-0.408424973487854
0.0464608184993267,0.3871538639068603,0.2258888930082321,-0.6552278995513916,0.1912859231233596,0.1485263705253601,0.0,0.0,0.534199595451355,-0.3005008697509765
0.0489097610116004,0.3726735711097717,0.2372482270002365,-0.6445723176002502,0.1989757120609283,0.1537958681583404,0.0,0.0,0.7048017978668213,-0.4702585935592651
0.0513507835566997,0.3586320281028747,0.2366154491901397,-0.6250964999198914,0.2065223604440689,0.1509328037500381,0.0,0.0,0.5661666393280029,-0.4435926675796509
0.0538128837943077,0.344651997089386,0.2389387190341949,-0.6223686933517456,0.2138597220182418,0.1467476338148117,0.0,0.0,0.5685327053070068,-0.4669955968856811
0.056131076067686,0.3309584259986877,0.2253218442201614,-0.6095612645149231,0.2204225957393646,0.131257563829422,0.0,0.0,0.6570324897766113,-0.3454598188400268
0.0583707801997661,0.3180294036865234,0.217598408460617,-0.5755861401557922,0.2268675714731216,0.1288995146751403,0.0,0.0,0.3892693519592285,-0.1247914433479309
0.0607085227966308,0.3049844205379486,0.2273039817810058,-0.5807878375053406,0.2334283590316772,0.1312155574560165,0.0,0.0,0.6557221412658691,-0.747139573097229
0.0629026442766189,0.2926876544952392,0.2115993797779083,-0.5477824807167053,0.2413575202226638,0.1585832089185714,0.0,0.0,-0.1045611500740051,-0.2566887736320495
0.0651783943176269,0.2798923850059509,0.2199561297893524,-0.5699471831321716,0.2491130828857422,0.1551112830638885,0.0,0.0,0.6834940910339355,0.120672583580017
0.067272663116455,0.2675670981407165,0.2024026364088058,-0.5489991307258606,0.2562781274318695,0.1433009952306747,0.0,0.0,0.4562289714813232,-0.5683920383453369
0.0692895874381065,0.2555345594882965,0.1936224550008773,-0.5362098813056946,0.2645171582698822,0.1647808849811554,0.0,0.0,0.3791118860244751,-0.2193899154663086
0.0710923224687576,0.2439821809530258,0.1728329956531524,-0.5147984027862549,0.2721346318721771,0.15234936773777,0.0,0.0,0.2653007507324219,-0.2549364566802978
0.0729014426469802,0.2325932383537292,0.1733356714248657,-0.5076032876968384,0.2799058258533478,0.1554237157106399,0.0,0.0,0.4754841327667236,0.2034783363342285
0.0746530517935752,0.2211970686912536,0.1678240746259689,-0.5079188942909241,0.2874491214752197,0.1508666574954986,0.0,0.0,0.7161076068878174,0.4545060396194458
0.0764413848519325,0.209818497300148,0.1712574958801269,-0.5072255730628967,0.2952490746974945,0.1559992134571075,0.0,0.0,0.576899528503418,0.7461024522781372
0.0782225579023361,0.1984106600284576,0.1721285879611969,-0.5082403421401978,0.3014284372329712,0.1235875114798545,0.0,0.0,0.8993284702301025,0.1603281497955322
0.0797813385725021,0.1878064274787902,0.1499831974506378,-0.4725359976291656,0.3075312077999115,0.1220551952719688,0.0,0.0,0.8660558462142944,0.3762770891189575
0.0812011733651161,0.1780622750520706,0.1357036530971527,-0.4344174563884735,0.3140393495559692,0.1301635801792144,0.0,0.0,0.6952838897705078,0.8092095851898193
0.0823496803641319,0.1689946949481964,0.1103914380073547,-0.4039749205112457,0.3186705708503723,0.092624545097351,0.0,0.0,0.8744319677352905,0.8966678380966187
0.0833412185311317,0.1599123775959015,0.0967004150152206,-0.4042008519172668,0.3212228119373321,0.0510448701679706,0.0,0.0,0.9317691326141356,0.9168622493743896
0.0841981917619705,0.1517136842012405,0.0849138498306274,-0.3645594418048858,0.3220337033271789,0.0162175334990024,0.0,0.0,0.910754919052124,0.9923593997955322
0.0848315209150314,0.1439387947320938,0.0646345913410186,-0.3452616035938263,0.3206833600997925,-0.0270066447556018,0.0,0.0,0.774787425994873,0.7690119743347168
0.0852627754211425,0.1367034763097763,0.0459883920848369,-0.3209421932697296,0.3177156150341034,-0.0593547336757183,0.0,0.0,0.8282716274261475,0.9306235313415528
0.0855339989066124,0.1301046758890152,0.031728483736515,-0.2922766506671905,0.3129251301288605,-0.0958096459507942,0.0,0.0,0.8454389572143555,0.989688277244568
0.0858043655753135,0.1240219175815582,0.0333418175578117,-0.2690000832080841,0.3063988089561462,-0.1305263936519622,0.0,0.0,0.9578298330307008,0.1911450624465942
0.0859959572553634,0.1180345118045806,0.0252037290483713,-0.264848381280899,0.3001444637775421,-0.1250868886709213,0.0,0.0,0.8906744718551636,-0.1443187594413757
0.086164191365242,0.1122567504644393,0.0222458690404891,-0.2556785047054291,0.2945415675640106,-0.1120576635003089,0.0,0.0,0.5291470289230347,0.8904097080230713
0.0863988846540451,0.1068373322486877,0.0303061194717884,-0.2394975274801254,0.2874947190284729,-0.1409367322921753,0.0,0.0,0.8227035999298096,0.9894540309906006
0.0867518410086631,0.1016455739736557,0.0436613857746124,-0.2291164845228195,0.2788878977298736,-0.1721364706754684,0.0,0.0,0.485567569732666,0.6714925765991211
0.0869584083557128,0.0969555005431175,0.0301820393651723,-0.2066625505685806,0.2691162228584289,-0.1954337358474731,0.0,0.0,0.8109598159790039,0.9750937223434448
0.0870426148176193,0.0930240973830223,0.0196324400603771,-0.1727061569690704,0.2576468288898468,-0.2293876409530639,0.0,0.0,0.1261777877807617,0.8860253095626831
0.0871577262878418,0.0893243625760078,0.0242713186889886,-0.1622497141361236,0.2446493059396743,-0.2599504292011261,0.0,0.0,0.0420962572097778,0.7975748777389526
0.087335780262947,0.0854704231023788,0.0318957939743995,-0.1690028309822082,0.2303330302238464,-0.2863249182701111,0.0,0.0,-0.1954705715179443,-0.7273510098457336
0.0874262824654579,0.0810977071523666,0.0213396064937114,-0.1924734711647033,0.2178876250982284,-0.2489081174135208,0.0,0.0,0.5682438611984253,-0.6362563967704773
0.087342545390129,0.0774476826190948,0.0022084764204919,-0.1606957614421844,0.207197681069374,-0.2137989550828933,0.0,0.0,0.2194807529449463,0.2980389595031738
0.0871179550886154,0.0739126801490783,-0.012077571824193,-0.1556910723447799,0.1967302709817886,-0.2093478143215179,0.0,0.0,0.4185163974761963,-0.4210459589958191
0.0866121277213096,0.0708546712994575,-0.0399855710566043,-0.1345387399196624,0.1860835403203964,-0.2129347324371338,0.0,0.0,-0.5430673360824585,0.578028678894043
0.0861095413565635,0.0673178061842918,-0.0386552289128303,-0.1557783782482147,0.1744342744350433,-0.2329852133989334,0.0,0.0,-0.3205311298370361,0.7080438137054443
0.0856037139892578,0.0633032917976379,-0.0379990190267562,-0.176991805434227,0.1618271321058273,-0.2521429359912872,0.0,0.0,0.0694749355316162,-0.1432293653488159
0.0849092453718185,0.0594976283609867,-0.0569266751408577,-0.1678286492824554,0.149321511387825,-0.250112771987915,0.0,0.0,0.0641095638275146,0.1047835350036621
0.0840890854597091,0.0556680783629417,-0.0697585195302963,-0.1690161079168319,0.1371011584997177,-0.2444070130586624,0.0,0.0,-0.0800017118453979,0.1545120477676391
0.0832024589180946,0.0513424985110759,-0.0767608806490898,-0.1911958009004593,0.1252497881650924,-0.2370277345180511,0.0,0.0,-0.3553544282913208,0.8232567310333252
0.0822937041521072,0.0465281121432781,-0.0780945867300033,-0.2129454910755157,0.1125440448522567,-0.2541148364543915,0.0,0.0,0.0200475454330444,-0.3708716034889221
0.0813254341483116,0.0418901070952415,-0.0847265273332595,-0.2052672058343887,0.1005272194743156,-0.2403368502855301,0.0,0.0,0.0204063653945922,-0.1808878779411316
0.0802933722734451,0.0371015407145023,-0.0916553065180778,-0.2120880335569381,0.0890799015760421,-0.2289464175701141,0.0,0.0,0.2840431928634643,0.3752436637878418
0.0792387947440147,0.0327173806726932,-0.0948317423462867,-0.1942547261714935,0.0785556510090828,-0.2104852646589279,0.0,0.0,0.2118356227874755,-0.3606729507446289
0.0780373588204383,0.0286855548620224,-0.1098474487662315,-0.1786830127239227,0.0683621689677238,-0.2038696557283401,0.0,0.0,0.0129885673522949,0.0492143630981445
0.0767987221479415,0.0249497033655643,-0.1143910512328147,-0.1656303256750106,0.0589881502091884,-0.187480479478836,0.0,0.0,0.0876240730285644,0.0800684690475463
0.0754960030317306,0.0212925300002098,-0.1214561313390731,-0.1622211337089538,0.0502671338617801,-0.1744203120470047,0.0,0.0,0.0263504981994628,-0.0323655605316162
0.0740686431527137,0.0178973525762558,-0.1343156397342682,-0.1506349593400955,0.0419515632092952,-0.1663113087415695,0.0,0.0,0.3350412845611572,0.644538402557373
0.0726222991943359,0.0149708846583962,-0.135449081659317,-0.1298355162143707,0.0328816026449203,-0.1813993602991104,0.0,0.0,-0.6655007600784302,0.1122444868087768
0.0710763931274414,0.0115470262244343,-0.1458608359098434,-0.1520067155361175,0.0242475941777229,-0.1726801544427871,0.0,0.0,0.4372642040252685,0.2624156475067138
0.0693088546395301,0.0084282970055937,-0.167950764298439,-0.1384918391704559,0.0155617129057645,-0.1737176775932312,0.0,0.0,0.4636728763580322,0.5431119203567505
0.0673501938581466,0.0054927445016801,-0.1861210465431213,-0.1303945481777191,0.0059443330392241,-0.1923476755619049,0.0,0.0,0.3348872661590576,0.7343283891677856
0.0653213486075401,0.0027430867776274,-0.1920908242464065,-0.1221985146403312,-0.0047135516069829,-0.2131579220294952,0.0,0.0,-0.1591834425926208,0.1334927082061767
0.063184455037117,-0.0005038881208747,-0.2033537924289703,-0.1443709731101989,-0.0149199701845645,-0.2041282653808593,0.0,0.0,0.3708151578903198,0.5937466621398926
0.0613292679190635,-0.0032454275060445,-0.1943681389093399,-0.1217954382300376,-0.0061247325502336,0.1759716570377349,1.0,0.0,0.875825047492981,0.9191515445709229
0.0598083510994911,-0.0041131041944026,-0.1600521057844162,-0.0385850816965103,0.0016993933822959,0.1564553081989288,1.0,1.0,0.1329535245895385,0.9992125034332277
0.058476734906435,-0.0035108590964227,-0.1380857527256012,0.0266462732106447,0.0062185632996261,0.0899612158536911,1.0,1.0,-0.5000899434089661,0.9967718124389648
0.0573037154972553,-0.0023811482824385,-0.1176289096474647,0.0501972585916519,0.0065666097216308,0.0069985440932214,1.0,1.0,-0.7917614579200745,0.982636332511902
0.0562027916312217,-0.0011562728323042,-0.1007075160741806,0.0544515587389469,-0.0026516069192439,-0.1843121349811554,1.0,1.0,-0.7822083234786987,0.8571407794952393
