x_pos,y_pos,x_vel,y_vel,angle,ang_vel,leg_1,leg_2,main_booster,lat_booster
-0.0014746666420251,1.4034643173217771,-0.1494036018848419,-0.3313692212104797,0.0017279054736718,0.0340820774435997,0.0,0.0,-0.2922635376498381,0.8989045405541478
-0.0028259276878088,1.3958673477172852,-0.1348731815814972,-0.3376437723636627,0.0014756398741155,-0.0050449878908693,0.0,0.0,-0.6337331672335613,-0.8036781301308324
-0.0041819573380053,1.388103723526001,-0.1365937143564224,-0.3450513780117035,0.0024605945218354,0.01970100030303,0.0,0.0,-0.5478996034593786,0.8469355109552907
-0.0054426193237304,1.3801772594451904,-0.1257061064243316,-0.3522853255271911,0.002103469800204,-0.007143045309931,0.0,0.0,-0.1622731891539659,-0.7270359516131395
-0.0067090988159179,1.3720927238464355,-0.1274455338716507,-0.3593107461929321,0.0028869544621556,0.0156708862632513,0.0,0.0,0.9528130693262382,-0.6842667760794232
-0.007820701226592,1.3648104667663574,-0.1138093695044517,-0.323657214641571,0.0055041424930095,0.0523484274744987,0.0,0.0,-0.6494966445883275,-0.6140788170148782
-0.0089495657011866,1.3573678731918335,-0.116818368434906,-0.3308072984218597,0.0093979239463806,0.0778830423951149,0.0,0.0,0.8569292373749275,-0.7195218017283335
-0.00993013381958,1.3508599996566772,-0.1039140373468399,-0.2892878353595733,0.0151837691664695,0.1157276853919029,0.0,0.0,-0.2046184758538622,0.6913455530260112
-0.0108313560485839,1.344200849533081,-0.0946295708417892,-0.2960161864757538,0.0196494776755571,0.089322417974472,0.0,0.0,-0.0704294506478617,0.6613114869289639
-0.0116578098386526,1.3373874425888062,-0.0858621001243591,-0.3028640151023865,0.0228339657187461,0.0636951699852943,0.0,0.0,0.5118411407889223,-0.8171142026780664
-0.0124537469819188,1.3312313556671145,-0.0846337527036666,-0.27369225025177,0.0278101358562707,0.0995328873395919,0.0,0.0,0.1665900769681378,0.9483269946252344
-0.0131114004179835,1.3254780769348145,-0.0689438134431839,-0.2557671070098877,0.0309531912207603,0.0628668367862701,0.0,0.0,-0.4587094386454813,-0.8856654896802233
-0.0138124469667673,1.3195667266845703,-0.0747032463550567,-0.2628287672996521,0.0355081669986248,0.0911076292395591,0.0,0.0,0.5026904367868246,-0.8318320874983405
-0.0145125389099121,1.3139724731445312,-0.0764234215021133,-0.2488013207912445,0.0418568477034568,0.1269850432872772,0.0,0.0,0.5377405109700268,0.8784609996977443
-0.01502485293895,1.309390902519226,-0.0561371818184852,-0.2037664502859115,0.0467086173593997,0.0970444530248642,0.0,0.0,0.2836013245665107,0.8273439928399263
-0.0153860095888376,1.3049969673156738,-0.0395051725208759,-0.195392444729805,0.0500616841018199,0.0670673176646232,0.0,0.0,0.2339209541051476,-0.9484191403942148
-0.0157389640808105,1.3014148473739624,-0.0406783074140548,-0.1593950092792511,0.0553895086050033,0.1065662875771522,0.0,0.0,0.6836746812274124,-0.8935977375360996
-0.0160303115844726,0.0,-0.0366133227944374,-0.1411824971437454,0.0627946928143501,0.1481169015169143,0.0,0.0,0.9424840800864516,0.7010688079763906
-0.0162158012390136,1.296351671218872,-0.0249678175896406,-0.0844241008162498,0.0691551715135574,0.1272212564945221,0.0,0.0,-0.5294872834920372,-0.911923626168538
-0.0164994243532419,1.2942898273468018,-0.0368984527885913,-0.0920479521155357,0.0776135995984077,0.1691840440034866,0.0,0.0,-0.0625433733753564,0.9005458536253553
-0.0167181007564067,1.2920854091644287,-0.0282512847334146,-0.0983177870512008,0.0839386284351348,0.12651227414608,0.0,0.0,-0.2739211825966565,0.8053723110743978
-0.0168963428586721,1.289724826812744,-0.0225903987884521,-0.1051880195736885,0.0886721611022949,0.0946790724992752,0.0,0.0,0.0727992592793822,0.8413514541242605
-0.0169693939387798,1.2877534627914429,-0.0104506909847259,-0.0878109484910965,0.0918009504675865,0.0625812858343124,0.0,0.0,0.0253945221051401,0.6166361668238934
-0.0169938094913959,1.2859179973602295,-0.004465433768928,-0.0817074850201606,0.0938005819916725,0.0399962104856967,0.0,0.0,-0.26901453306837,-0.7178161253354338
-0.0171234123408794,1.28391432762146,-0.016782296821475,-0.0892899483442306,0.0976040363311767,0.0760756880044937,0.0,0.0,0.1799330197322421,-0.905511225634994
-0.017531394958496,1.2824569940567017,-0.0464329682290554,-0.0651533678174018,0.1032001003623008,0.1119211539626121,0.0,0.0,-0.0512554683903141,0.8126190978774516
-0.0179167743772268,1.2808547019958496,-0.0425630845129489,-0.0714912712574005,0.107195183634758,0.0799015834927558,0.0,0.0,-0.3084292217474864,0.6105345531824019
-0.0183094982057809,1.2791049480438232,-0.0423582792282104,-0.0779911056160926,0.1102626919746398,0.0613500252366066,0.0,0.0,0.4606285373638241,0.9790058826386928
-0.0188797004520893,1.2782151699066162,-0.0580621734261512,-0.0396231152117252,0.1112880781292915,0.0205076485872268,0.0,0.0,0.3691102099267531,-0.962724326723354
-0.0196402557194232,1.2777479887008667,-0.0790179371833801,-0.0209857299923896,0.114242598414421,0.059090357273817,0.0,0.0,0.398326845052243,-0.9960802570816472
-0.0205958373844623,1.278189778327942,-0.1005539670586586,0.0192388668656349,0.1192075163125991,0.099298670887947,0.0,0.0,0.1627930398448227,-0.981200079881919
-0.0217838287353515,1.2789000272750854,-0.1257769912481308,0.0309973638504743,0.1261442899703979,0.1387355923652649,0.0,0.0,-0.2254993433382712,0.9240209082100288
-0.0229671485722064,1.2794711589813232,-0.1237047761678695,0.0249230992048978,0.1314909756183624,0.1069336086511612,0.0,0.0,-0.690540612264898,0.7234066058073981
-0.0241583827883005,1.27988600730896,-0.1231917887926101,0.0180755443871021,0.1355491727590561,0.081163689494133,0.0,0.0,0.1283436096351355,-0.8925538402957289
-0.0255257599055767,1.2807681560516355,-0.1425903439521789,0.0386536307632923,0.1413877159357071,0.1167708858847618,0.0,0.0,-0.8185681497207165,-0.6337736122855819
-0.0270045287907123,1.2814849615097046,-0.1549483686685562,0.0311694834381341,0.1484409719705581,0.1410649716854095,0.0,0.0,0.9551806048504424,-0.9753528516179372
-0.0287373550236225,1.282811999320984,-0.1822211593389511,0.0580668672919273,0.1573709547519683,0.1785999834537506,0.0,0.0,-0.9176692092569224,-0.8641219455128717
-0.0306002609431743,1.283971905708313,-0.1968060880899429,0.0503956228494644,0.1678926795721054,0.210434079170227,0.0,0.0,-0.2574711102585767,-0.851315213548429
-0.0326025001704692,1.2849645614624023,-0.2125017195940017,0.0426809228956699,0.1801937967538833,0.2460227906703949,0.0,0.0,-0.609292333664673,-0.8788921673881002
-0.03473911434412,1.2857823371887207,-0.2275331765413284,0.0346069149672985,0.1941351443529129,0.2788267135620117,0.0,0.0,-0.3923852042210398,-0.689797852073321
-0.0370096191763877,1.2864301204681396,-0.2424681484699249,0.0266908463090658,0.2096568942070007,0.3104351460933685,0.0,0.0,-0.936145544052124,0.9800307750701904
-0.0392602905631065,1.2869470119476318,-0.2380148917436599,0.0210860297083854,0.2227511256933212,0.2618845105171203,0.0,0.0,-0.957525670528412,0.975644826889038
-0.0414943695068359,1.2873249053955078,-0.2340275347232818,0.0151458624750375,0.2335099726915359,0.2151769697666168,0.0,0.0,-0.8958327770233154,0.995219111442566
-0.0437124259769916,1.287573218345642,-0.23002889752388,0.0097090499475598,0.2418631464242935,0.1670635789632797,0.0,0.0,-0.91269189119339,0.9903429746627808
-0.0459318161010742,1.2876765727996826,-0.2282530963420868,0.0035457236226648,0.2482847720384597,0.1284326463937759,0.0,0.0,-0.8761345148086548,0.988245129585266
-0.0481430068612098,1.2876412868499756,-0.2252382785081863,-0.0022762168664485,0.2524811923503876,0.0839279741048812,0.0,0.0,-0.9476540684700012,0.9713796377182008
-0.0503471381962299,1.287471890449524,-0.2223187237977981,-0.0078517701476812,0.2544268369674682,0.0389126278460025,0.0,0.0,-0.980411946773529,0.9816925525665284
-0.0525684356689453,1.287176251411438,-0.2223375290632248,-0.0131823038682341,0.2546477913856506,0.0044188178144395,0.0,0.0,-0.9951497316360474,0.9859827756881714
-0.054809283465147,0.0,-0.2226676195859909,-0.0186399798840284,0.2531977593898773,-0.0290004909038543,0.0,0.0,-0.9982650876045228,0.9853124618530272
-0.0570544227957725,1.286191463470459,-0.2211037874221801,-0.0242999196052551,0.2497116178274154,-0.0697229653596878,0.0,0.0,-0.9837708473205566,0.9348244667053224
-0.0592891685664653,1.2855048179626465,-0.2176301032304763,-0.0295318458229303,0.2437621802091598,-0.1189886480569839,0.0,0.0,-0.9985213875770568,0.9400296211242676
-0.0615384094417095,1.2846887111663818,-0.2172483205795288,-0.0350195951759815,0.2359584867954254,-0.1560737639665603,0.0,0.0,-0.9999736547470092,0.903989553451538
-0.0637840256094932,1.2837378978729248,-0.214605763554573,-0.0407029464840889,0.2258643954992294,-0.2018820792436599,0.0,0.0,-0.9903402328491212,0.1188372373580932
-0.0661091804504394,1.282627820968628,-0.2223907262086868,-0.0478255487978458,0.2156229317188263,-0.204829066991806,0.0,0.0,-0.9986338019371032,0.9048597812652588
-0.0684268027544021,1.281383991241455,-0.2192071676254272,-0.0534972138702869,0.2029575258493423,-0.2533084750175476,0.0,0.0,-0.9952257871627808,0.3290141820907593
-0.0708247199654579,1.2799817323684692,-0.2270514219999313,-0.060624673962593,0.1901301443576812,-0.2565475702285766,0.0,0.0,-0.9762388467788696,0.3295571804046631
-0.0733034163713455,1.2784210443496704,-0.2349220961332321,-0.0677525773644447,0.1771336793899536,-0.2599291503429413,0.0,0.0,-0.9946091771125792,0.4840216636657715
-0.0758630782365799,1.276702046394348,-0.2428167760372162,-0.0748809352517128,0.1639611721038818,-0.2634501457214355,0.0,0.0,-0.991692304611206,-0.4832069873809814
-0.0785039886832237,1.274824857711792,-0.2507331967353821,-0.082009807229042,0.1506058275699615,-0.2671073079109192,0.0,0.0,-0.9904891848564148,-0.5940606594085693
-0.0812792778015136,1.272782564163208,-0.2652911841869354,-0.0895760953426361,0.1383967846632003,-0.2441812008619308,0.0,0.0,-0.9946601390838624,-0.1388612985610962
-0.0841362923383712,1.270581841468811,-0.2732458710670471,-0.0967032238841056,0.1259917318820953,-0.2481009513139724,0.0,0.0,-0.9907239079475404,-0.3716144561767578
-0.0870753303170204,1.268222689628601,-0.2812166810035705,-0.1038309261202812,0.1133844554424285,-0.2521457076072693,0.0,0.0,-0.7812767624855042,-0.7288809418678284
-0.0901417732238769,1.265695571899414,-0.2949046790599823,-0.1114745810627937,0.1017256379127502,-0.2331763207912445,0.0,0.0,-0.9797735810279846,-0.9205178022384644
-0.0933602303266525,1.2630001306533811,-0.311650276184082,-0.1191352978348732,0.0916157588362693,-0.2021972388029098,0.0,0.0,-0.993245005607605,-0.135818064212799
-0.0966611877083778,1.260145664215088,-0.3196613192558288,-0.1262592077255249,0.0812861323356628,-0.2065926790237426,0.0,0.0,-0.9934706091880798,-0.7355843782424927
-0.1001145392656326,1.2571240663528442,-0.3364615142345428,-0.1338418573141098,0.0724976956844329,-0.1757686883211136,0.0,0.0,-0.9809600710868835,-0.6165647506713867
-0.1036979705095291,1.253944993019104,-0.350415289402008,-0.1409303396940231,0.0646610409021377,-0.1567331999540329,0.0,0.0,-0.959570288658142,-0.4700039625167846
-0.1073641777038574,1.2506065368652344,-0.3584545254707336,-0.1480512619018554,0.0565892308950424,-0.1614362299442291,0.0,0.0,-0.9767581224441528,-0.4690620899200439
-0.1111132651567459,1.2471083402633667,-0.3665007054805755,-0.1551726162433624,0.0482776649296283,-0.166231021285057,0.0,0.0,-0.9500024318695068,-0.4135854244232178
-0.1149453148245811,1.2434511184692385,-0.3745529651641845,-0.1622944623231887,0.0397220589220523,-0.1711121052503585,0.0,0.0,-0.9960813522338868,-0.6672964692115784
-0.1189213767647743,1.2396334409713743,-0.3902477324008941,-0.1694952994585037,0.0324478223919868,-0.1454844027757644,0.0,0.0,-0.9460046291351318,0.1397294998168945
-0.1229806914925575,1.2356563806533811,-0.3983094096183777,-0.1766161024570465,0.0249217543751001,-0.1505214869976043,0.0,0.0,-0.9848375916481018,0.5653184652328491
-0.1270881593227386,1.2315274477005005,-0.4019733071327209,-0.183382973074913,0.0162559263408184,-0.1733168065547943,0.0,0.0,-0.9025158882141112,-0.1366727948188781
-0.1312789916992187,1.2272394895553589,-0.4100408554077148,-0.1905059665441513,0.0073316446505486,-0.1784858405590057,0.0,0.0,-0.98720383644104,-0.3664882183074951
-0.135553166270256,1.2227925062179563,-0.41811004281044,-0.1976295411586761,-0.0018539605662226,-0.183711901307106,0.0,0.0,-0.7993688583374023,0.5045380592346191
-0.1398662626743316,1.2181812524795532,-0.4206052422523498,-0.2049977779388427,-0.0124200358986854,-0.2113217562437057,0.0,0.0,-0.9354602098464966,-0.809609055519104
-0.1443303078413009,1.2134041786193848,-0.4371423721313476,-0.2124133706092834,-0.0215580835938453,-0.1827609837055206,0.0,0.0,-0.9646416902542114,-0.4318695068359375
-0.1488777101039886,1.2084684371948242,-0.445212185382843,-0.2195378988981247,-0.0309641398489475,-0.1881211251020431,0.0,0.0,-0.8716204762458801,0.5458283424377441
-0.1534593552350998,1.2033771276474,-0.4471318125724792,-0.2265476733446121,-0.0418692268431186,-0.2181015312671661,0.0,0.0,-0.8647482991218567,0.5293859243392944
-0.158090204000473,1.19813072681427,-0.4509099125862121,-0.2335586994886398,-0.0539013408124446,-0.2406419962644577,0.0,0.0,-0.7147430181503296,-0.7589128613471985
-0.162877470254898,1.1927242279052734,-0.4681429266929626,-0.2407079190015792,-0.0643719732761383,-0.2094126492738723,0.0,0.0,-0.8047879338264465,-0.6844829320907593
-0.1677982360124588,1.1871700286865234,-0.4825045466423034,-0.2472927421331405,-0.0738423317670822,-0.1894069910049438,0.0,0.0,-0.3534533977508545,0.9606876373291016
-0.1727391183376312,1.181450366973877,-0.482646644115448,-0.2548127472400665,-0.0851766839623451,-0.2266868352890014,0.0,0.0,-0.8183445930480957,0.355008602142334
-0.1777631789445877,1.1755727529525757,-0.4906962513923645,-0.2619424760341644,-0.0967836007475853,-0.2321382761001587,0.0,0.0,-0.8818373680114746,-0.0795592069625854
-0.1828702986240387,1.1695369482040403,-0.4987395703792572,-0.269072949886322,-0.1086626350879669,-0.2375810146331787,0.0,0.0,-0.7615984082221985,0.4244664907455444
-0.1880603730678558,1.1633434295654297,-0.5067756175994873,-0.2762042284011841,-0.1208130344748497,-0.2430079281330108,0.0,0.0,-0.7434071898460388,-0.1140804886817932
-0.1933331489562988,1.1569920778274536,-0.5148033499717712,-0.2833362817764282,-0.1332336217164993,-0.2484116554260254,0.0,0.0,-0.8232978582382202,-0.641586184501648
-0.1987316161394119,1.150487184524536,-0.528205156326294,-0.2901989817619324,-0.144840806722641,-0.2321438044309616,0.0,0.0,-0.4020719528198242,-0.2274084687232971
-0.2042127102613449,1.1438242197036743,-0.5362125635147095,-0.2973304390907287,-0.1567147970199585,-0.2374795973300933,0.0,0.0,-0.1995278000831604,0.5614933967590332
-0.2097226679325103,1.1369867324829102,-0.5374695062637329,-0.3053663372993469,-0.170239582657814,-0.2704958617687225,0.0,0.0,-0.4883331656455993,-0.0194314122200012
-0.2153147161006927,1.1299922466278076,-0.5454527139663696,-0.3125022351741791,-0.1840261369943618,-0.2757314443588257,0.0,0.0,-0.5161946415901184,0.4697214365005493
-0.2209887057542801,1.1228407621383667,-0.5534214377403259,-0.3196389079093933,-0.1980714201927185,-0.2809056639671325,0.0,0.0,-0.6857292056083679,-0.2190127372741699
-0.2267443239688873,1.115532398223877,-0.5613741278648376,-0.3267764151096344,-0.2123719304800033,-0.2860103249549866,0.0,0.0,-0.2481282949447631,0.8224594593048096
-0.2325084656476974,1.1080355644226074,-0.5601068735122681,-0.3356308043003082,-0.2288621217012405,-0.3298040330410003,0.0,0.0,-0.0049282908439636,0.5046440362930298
-0.2383182942867279,1.100369215011597,-0.5635896921157837,-0.3435292541980743,-0.2465288937091827,-0.3533353507518768,0.0,0.0,-0.3538784980773926,0.4889395236968994
-0.2442087233066558,1.0925475358963013,-0.5714865326881409,-0.3506766855716705,-0.2644378542900085,-0.3581793308258056,0.0,0.0,-0.515361487865448,0.1847219467163086
-0.2501793801784515,1.0845708847045898,-0.5793600678443909,-0.3578249216079712,-0.2825838923454284,-0.3629205226898193,0.0,0.0,0.2904766798019409,0.6030032634735107
-0.2561125755310058,1.0773646831512451,-0.5741103887557983,-0.3241189122200012,-0.3023765981197357,-0.3958542943000793,0.0,0.0,-0.0066027045249938,0.3606362342834472
-0.2621249556541443,1.0700042247772217,-0.5819318294525146,-0.3312730193138122,-0.3223946690559387,-0.4003612399101257,0.0,0.0,-0.342221736907959,0.115105390548706
-0.268216073513031,1.062489628791809,-0.5897225141525269,-0.3384279012680053,-0.3426315784454345,-0.4047388136386871,0.0,0.0,0.0663106441497802,0.0237525701522827
-0.2742732167243957,1.0555309057235718,-0.5860344171524048,-0.3140978217124939,-0.3633274435997009,-0.4139173924922943,0.0,0.0,0.5375082492828369,0.2213881015777588
-0.2802648544311523,1.049080491065979,-0.5793455839157104,-0.2918542921543121,-0.3843348920345306,-0.4201492369174957,0.0,0.0,0.7170902490615845,0.1257234811782837
-0.2862114906311035,1.0434138774871826,-0.5743005871772766,-0.2574938237667084,-0.4060998260974884,-0.4352984428405761,0.0,0.0,0.538669228553772,-0.5897371172904968
-0.2922238409519195,1.0383819341659546,-0.5817019939422607,-0.2293872833251953,-0.4271766543388366,-0.421536386013031,0.0,0.0,0.6171425580978394,-0.0787215232849121
-0.2979260981082916,1.0340921878814695,-0.5511471033096313,-0.1965957134962082,-0.4479533433914184,-0.4155338406562805,0.0,0.0,0.8561969995498657,-0.2849591970443725
-0.3034615516662597,1.0301637649536133,-0.5347973108291626,-0.1807392239570617,-0.4685813188552856,-0.4125597476959228,0.0,0.0,0.8416723012924194,-0.2878198623657226
-0.3085428774356842,1.0271098613739014,-0.4901034832000732,-0.1419503092765808,-0.4886216223239898,-0.4008069038391113,0.0,0.0,0.7713236808776855,-0.568942666053772
-0.3133679926395416,1.0250571966171265,-0.4655475616455078,-0.0973722413182258,-0.5076753497123718,-0.3810749053955078,0.0,0.0,0.7808829545974731,0.3548821210861206
-0.3176836371421814,1.02394437789917,-0.4152795374393463,-0.0556125603616237,-0.5261567234992981,-0.3696273267269134,0.0,0.0,0.4610292911529541,-0.1928268671035766
-0.3217553198337555,1.0232901573181152,-0.3912183940410614,-0.0353642702102661,-0.5444535613059998,-0.3659367263317108,0.0,0.0,0.6502760648727417,-0.0751408338546752
-0.325481504201889,1.0235326290130615,-0.3567165732383728,0.0042346031405031,-0.5628992319107056,-0.3689135909080505,0.0,0.0,0.3474639654159546,-0.5558074116706848
-0.3289240002632141,1.024429440498352,-0.3295404314994812,0.0335785970091819,-0.5801423192024231,-0.3448621332645416,0.0,0.0,0.4120498895645141,-0.5721282362937927
-0.3321960568428039,1.0256344079971311,-0.3137499690055847,0.047582309693098,-0.5960978865623474,-0.319111168384552,0.0,0.0,0.7099936008453369,-0.4295241832733154
-0.3352810442447662,1.0275835990905762,-0.2946399748325348,0.0802652984857559,-0.6127155423164368,-0.3323528468608856,0.0,0.0,0.3629831075668335,-0.4508984088897705
-0.3382744193077087,1.0299887657165527,-0.2851855754852295,0.1001566499471664,-0.6298853754997253,-0.3433979749679565,0.0,0.0,-0.0290515422821044,-0.5532974004745483
-0.3413683474063873,1.0322761535644531,-0.2963843941688537,0.0952453911304473,-0.6458595395088196,-0.3194834887981415,0.0,0.0,-0.1902186870574951,-0.2285466790199279
-0.3445252776145935,1.0344061851501465,-0.3028111159801483,0.0881094485521316,-0.6618667840957642,-0.3201447129249573,0.0,0.0,-0.1717128753662109,-0.4881739616394043
-0.347743421792984,1.036379098892212,-0.3090777993202209,0.0809744074940681,-0.677891731262207,-0.3204987645149231,0.0,0.0,-0.0059909224510192,-0.4655473232269287
-0.351020872592926,1.0381945371627808,-0.3151710331439972,0.0738403499126434,-0.6939185857772827,-0.3205377161502838,0.0,0.0,-0.0990235209465026,-0.5144490003585815
-0.3543828129768371,1.0398926734924316,-0.3246407508850097,0.0689695999026298,-0.708836019039154,-0.2983483076095581,0.0,0.0,-0.0823570489883422,-0.4171403646469116
-0.3578000664710998,1.0414326190948486,-0.33034148812294,0.0618399269878864,-0.7237228751182556,-0.2977368831634521,0.0,0.0,0.3109016418457031,-0.6551905274391174
