x_pos,y_pos,x_vel,y_vel,angle,ang_vel,leg_1,leg_2,main_booster,lat_booster
-0.0015192031860351,1.4030948877334597,-0.1546670943498611,-0.3477846086025238,0.0024637549649924,0.0486517250537872,0.0,0.0,-0.397295594215393,0.7781686782836914
-0.0029682158492505,1.394760012626648,-0.1463298946619033,,0.0038748837541788,0.0282260291278362,0.0,0.0,-0.4486136436462402,0.9696571826934814
-0.0043209074065089,1.3858883380889893,-0.1349954605102539,-0.3942871689796448,0.003608716186136,-0.00532364891842,0.0,0.0,-0.1900423765182495,0.8568145036697388
-0.0056167603470385,1.3764848709106443,-0.1286047399044037,-0.4179326593875885,0.002632251009345,-0.019531175494194,0.0,0.0,0.6322008371353149,0.3868031501770019
-0.0067851068452,1.3675187826156616,-0.1170999407768249,-0.3984965980052948,0.0028994549065828,0.0053447633981704,0.0,0.0,-0.4312812089920044,0.9023326635360718
-0.0078652380034327,1.3580219745635986,-0.1066883653402328,-0.4220750629901886,0.0015905632171779,-0.0261805951595306,0.0,0.0,0.0180915594100952,0.0667899847030639
-0.0089595792815089,1.3485296964645386,-0.1086477637290954,-0.4218827784061432,0.0008146638865582,-0.0155195090919733,0.0,0.0,-0.2628884315490722,0.3819277286529541
-0.010054588317871,1.3385076522827148,-0.1092963442206382,-0.4454212784767151,0.000617143465206,-0.0039510773494839,0.0,0.0,-0.0988508462905883,-0.0225984454154968
-0.0111511228606104,1.327956199645996,-0.110016368329525,-0.4689540863037109,0.0009775765938684,0.0072092949412763,0.0,0.0,0.4730927944183349,0.4439942836761474
-0.0122514721006155,1.3178467750549316,-0.1109393611550331,-0.4493100941181183,0.0018705615075305,0.0178610775619745,0.0,0.0,0.4959951639175415,0.7540125846862793
-0.0132103916257619,1.308016061782837,-0.095957301557064,-0.4369229078292846,0.0019387586507946,0.0013642393751069,0.0,0.0,-0.6481024622917175,0.4519493579864502
-0.01417379360646,1.297655701637268,-0.0969001874327659,-0.4604597091674804,0.002495783381164,0.0111416224390268,0.0,0.0,-0.6347264647483826,0.6956319808959961
-0.0150760654360055,1.2867698669433594,-0.0895562767982482,-0.4838186502456665,0.0018381611444056,-0.0131537215784192,0.0,0.0,0.1789953708648681,0.2487907409667968
-0.015935992822051,1.2757346630096436,-0.0860069915652275,-0.4904514253139496,0.0018495873082429,0.0002284658548887,0.0,0.0,-0.0788550376892089,0.3902173042297363
-0.0168035514652729,1.2641700506210327,-0.0871883481740951,-0.513988733291626,0.0022680580150336,0.0083702178671956,0.0,0.0,0.1205202341079711,0.3860559463500976
-0.0176060684025287,1.2523784637451172,-0.0814161077141761,-0.5240705609321594,0.0034145233221352,0.0229315385222435,0.0,0.0,-0.7032513618469238,0.4204527139663696
-0.0184186939150095,1.2400574684143066,-0.0827662497758865,-0.5476081371307373,0.0049084643833339,0.0298812184482812,0.0,0.0,-0.025830328464508,-0.5336686372756958
-0.0192744247615337,1.2272021770477295,-0.0882370620965957,-0.5713565945625305,0.0075278985314071,0.0523937754333019,0.0,0.0,-0.2534449100494385,-0.1998851895332336
-0.0201427452266216,1.213817477226257,-0.0897608548402786,-0.5948916077613831,0.0104309180751442,0.0580653771758079,0.0,0.0,-0.5397078990936279,-0.0508828163146972
-0.0210246089845895,1.1999036073684692,-0.091370977461338,-0.6184270977973938,0.0135848969221115,0.063084989786148,0.0,0.0,-0.7932296395301819,0.5398069620132446
-0.0218694694340229,1.1854650974273682,-0.0865866020321846,-0.6417286396026611,0.0156563278287649,0.0414323657751083,0.0,0.0,0.3948520421981811,0.1330056190490722
-0.0227262489497661,1.1710577011108398,-0.0880076959729194,-0.640353262424469,0.0179572366178035,0.0460223257541656,0.0,0.0,0.2112987041473388,0.1776584386825561
-0.0235121734440326,1.1567221879959106,-0.0815221145749092,-0.6371757984161377,0.0208485871553421,0.0578323528170585,0.0,0.0,-0.811968207359314,0.8408610820770264
-0.0242422111332416,1.1418499946594238,-0.0741542726755142,-0.6609994769096375,0.0219879858195781,0.0227898191660642,0.0,0.0,-0.6674492359161377,-0.2453780174255371
-0.0249917991459369,1.126448392868042,-0.0761899277567863,-0.684532105922699,0.0232068635523319,0.0243797115981578,0.0,0.0,0.092419147491455,0.3221409320831299
-0.0258688926696777,1.111190676689148,-0.0885406583547592,-0.6781339645385742,0.0240231994539499,0.0163268465548753,0.0,0.0,-0.5799798369407654,0.1957482099533081
-0.0267680175602436,1.0954034328460691,-0.0907441824674606,-0.7016664743423462,0.0248484089970588,0.016504269093275,0.0,0.0,0.6393213272094727,0.354677677154541
-0.0278401374816894,1.0803099870681765,-0.1074193567037582,-0.6708277463912964,0.0250479485839605,0.0039910078048706,0.0,0.0,-0.6730947494506836,-0.0345538854598999
-0.0289366729557514,1.064686894416809,-0.1097907274961471,-0.6943600177764893,0.0251877140253782,0.0027952787932008,0.0,0.0,-0.7643427848815918,0.3657958507537842
-0.0300586707890033,1.0485343933105469,-0.1122446656227111,-0.7178922891616821,0.0252341944724321,0.0009294638293795,0.0,0.0,-0.8902789354324341,-0.6858671307563782
-0.0312600135803222,1.0318580865859983,-0.1213892921805381,-0.7411917448043823,0.0264755506068468,0.0248267780989408,0.0,0.0,-0.009924829006195,0.5191397666931152
-0.0324532501399517,1.014650583267212,-0.1195122227072715,-0.764779269695282,0.0266599897295236,0.0036886993329972,0.0,0.0,0.5818450450897217,0.7863595485687256
-0.033721350133419,0.998071014881134,-0.1250602155923843,-0.7368475198745728,0.0249392092227935,-0.0344156846404075,0.0,0.0,-0.2847039699554443,-0.1598234176635742
-0.0350193008780479,0.980961799621582,-0.1278322339057922,-0.7603796124458313,0.0229992792010307,-0.0387984327971935,0.0,0.0,-0.3574849367141723,-0.6755462884902954
-0.0364003181457519,0.9633225798606871,-0.1372069716453552,-0.7839494347572327,0.0221182983368635,-0.017619539052248,0.0,0.0,-0.6314014792442322,-0.7226883172988892
-0.0378687866032123,0.9451574087142944,-0.1470942795276641,-0.8073433637619019,0.0223546866327524,0.0047277817502617,0.0,0.0,0.8870999813079834,-0.4904285669326782
-0.0394119247794151,0.9272416830062866,-0.1541059166193008,-0.7962560057640076,0.022149596363306,-0.0041018896736204,0.0,0.0,-0.3685759305953979,0.6793638467788696
-0.0409319885075092,0.908803403377533,-0.1500080972909927,-0.8194494843482971,0.0201791878789663,-0.0394078195095062,0.0,0.0,0.5244878530502319,-0.8771929740905762
-0.0426129326224327,0.8910080790519714,-0.1674584299325943,-0.7908972501754761,0.019545717164874,-0.0126692010089755,0.0,0.0,-0.5210084319114685,-0.4225921034812927
-0.0443297401070594,0.8726831078529358,-0.170658990740776,-0.8144290447235107,0.0185363944619894,-0.0201864168047904,0.0,0.0,-0.29649817943573,0.1483393907546997
-0.0460831634700298,0.8538285493850708,-0.1739242374897003,-0.837960958480835,0.0171292126178741,-0.0281435698270797,0.0,0.0,0.1190074682235717,0.4002511501312256
-0.0477966293692588,0.8349785208702087,-0.1698916256427765,-0.8377673625946045,0.0156899970024824,-0.0287841446697711,0.0,0.0,0.90191912651062,0.3688466548919678
-0.0494422912597656,0.8161429762840271,-0.1631859838962555,-0.8371222019195557,0.0143297528848052,-0.0272048208862543,0.0,0.0,0.9902133941650392,0.8976423740386963
-0.0509337410330772,0.7977354526519775,-0.1457605957984924,-0.8180789947509766,0.0109863961115479,-0.066867209970951,0.0,0.0,0.2933090925216675,-0.2560600042343139
-0.0524993911385536,0.7791439890861511,-0.1525482982397079,-0.8262662291526794,0.0070214173756539,-0.0792996138334274,0.0,0.0,0.9749836921691896,0.3147116899490356
-0.0540534034371376,0.7606228590011597,-0.1511496901512146,-0.8231458067893982,0.002819595625624,-0.0840362235903739,0.0,0.0,0.7504494190216064,0.7642327547073364
-0.0555188171565532,0.7422792315483093,-0.1403714567422866,-0.8152727484703064,-0.0032631575595587,-0.121655061841011,0.0,0.0,0.8193252086639404,-0.5449804067611694
-0.0571978576481342,0.7247905135154724,-0.1619433760643005,-0.7772986888885498,-0.0091532738879323,-0.1178021281957626,0.0,0.0,-0.816137433052063,-0.214293897151947
-0.0589195266366004,0.7067731022834778,-0.1656486093997955,-0.8008343577384949,-0.015577558428049,-0.1284858286380767,0.0,0.0,0.4757256507873535,0.0087248086929321
-0.0606958381831646,0.688908576965332,-0.1704912930727005,-0.7940675616264343,-0.0226361900568008,-0.1411724686622619,0.0,0.0,0.4588561058044433,0.5833210945129395
-0.0623207092285156,0.6712653636932373,-0.1539020240306854,-0.7842949628829956,-0.0311040412634611,-0.169357031583786,0.0,0.0,-0.509333610534668,-0.776976466178894
-0.0640567764639854,0.6531020402908325,-0.1661737561225891,-0.8074294328689575,-0.0384477376937866,-0.1468739807605743,0.0,0.0,0.5096136331558228,-0.0145367383956909
-0.0657219886779785,0.6350135207176208,-0.1589697003364563,-0.8041507601737976,-0.0459092184901237,-0.1492293924093246,0.0,0.0,0.988844633102417,-0.798941433429718
-0.0674469023942947,0.617846667766571,-0.165962353348732,-0.7631828784942627,-0.0523600429296493,-0.1290165483951568,0.0,0.0,0.8075487613677979,-0.008748710155487
-0.0690264701843261,0.6009376645088196,-0.1515952050685882,-0.7517500519752502,-0.0586550049483776,-0.1258993446826934,0.0,0.0,0.6922574043273926,-0.2709664106369018
-0.0707213431596756,0.5842314958572388,-0.1620524227619171,-0.7428035140037537,-0.0660091117024421,-0.1470819413661956,0.0,0.0,-0.0059468150138854,0.4609545469284057
-0.0724623650312423,0.566997230052948,-0.1660581231117248,-0.766343891620636,-0.0739771202206611,-0.1593600064516067,0.0,0.0,0.7527141571044922,0.0658628940582275
-0.074051097035408,0.5502889752388,-0.1508847028017044,-0.7430034875869751,-0.0818888694047927,-0.1582349240779876,0.0,0.0,0.8219964504241943,-0.4103206992149353
-0.0755303353071212,0.5344001054763794,-0.1396866291761398,-0.7066444158554077,-0.0900469198822975,-0.1631609499454498,0.0,0.0,-0.0552265048027038,-0.7738345265388489
-0.0771248787641525,0.5179992914199829,-0.1523507833480835,-0.7293692827224731,-0.0970990434288978,-0.1410425007343292,0.0,0.0,0.7040648460388184,0.3330869674682617
-0.0786773711442947,0.5016331076622009,-0.1477430313825607,-0.7278928756713867,-0.1045457497239112,-0.1489342898130417,0.0,0.0,0.9399443864822388,-0.2741445302963257
-0.0803087204694747,0.4859863221645355,-0.1544322818517685,-0.6960467100143433,-0.1131810322403907,-0.1727057546377182,0.0,0.0,-0.4617921113967895,-0.2203882932662964
-0.0819879546761512,0.4698120355606079,-0.158576026558876,-0.719591498374939,-0.1224646568298339,-0.1856727600097656,0.0,0.0,0.1117063760757446,-0.4496084451675415
-0.0836489647626876,0.4537216424942016,-0.1561961024999618,-0.7159703969955444,-0.132327526807785,-0.197257250547409,0.0,0.0,0.0039186477661132,-0.9161990880966188
-0.085392951965332,0.4374726712703705,-0.1656674891710281,-0.7229705452919006,-0.1410214751958847,-0.1738786548376083,0.0,0.0,0.8353557586669922,-0.4385186433792114
-0.0872290581464767,0.4217007756233215,-0.1736005991697311,-0.701952338218689,-0.1510113477706909,-0.1997973024845123,0.0,0.0,-0.5515068769454956,-0.6811986565589905
-0.089164063334465,0.4054215550422668,-0.1841672658920288,-0.7244980335235596,-0.1603455990552902,-0.1866849958896637,0.0,0.0,0.7155289649963379,-0.2515549659729004
-0.0910151451826095,0.3890446424484253,-0.175502598285675,-0.7289265990257263,-0.1699510365724563,-0.1921088695526123,0.0,0.0,0.8105044364929199,-0.7077992558479309
-0.0927790626883506,0.3735380172729492,-0.167630136013031,-0.6902099251747131,-0.1787280738353729,-0.1755405217409134,0.0,0.0,0.6656625270843506,-0.8255379796028137
-0.0946747809648513,0.3582507967948913,-0.1816299259662628,-0.6804123520851135,-0.1867022812366485,-0.1594839990139007,0.0,0.0,0.5771499872207642,-0.5112735629081726
-0.0966308563947677,0.3434287011623382,-0.1877803802490234,-0.6597657799720764,-0.1945700049400329,-0.1573541164398193,0.0,0.0,0.614581823348999,-0.3285672664642334
-0.0984886139631271,0.3289660811424255,-0.1774245649576187,-0.6439018249511719,-0.2029718905687332,-0.1680376827716827,0.0,0.0,0.6767919063568115,-0.4555427432060241
-0.1003501862287521,0.3152756690979004,-0.1765647232532501,-0.6098077297210693,-0.2126530557870865,-0.1936232298612594,0.0,0.0,0.4527573585510254,-0.7662383913993835
-0.1021421402692794,0.3017995953559875,-0.1705697178840637,-0.6001967191696167,-0.2213571518659591,-0.1740819662809372,0.0,0.0,0.3173270225524902,-0.9554473161697388
-0.1040190681815147,0.2882812023162842,-0.1803129762411117,-0.6019480228424072,-0.2288354784250259,-0.1495665460824966,0.0,0.0,0.8873293399810791,-0.1180609464645385
-0.1057846993207931,0.2747520506381988,-0.1688736081123352,-0.6025069952011108,-0.2366307973861694,-0.1559065580368042,0.0,0.0,0.957089900970459,-0.3896376490592956
-0.1075408905744552,0.261295884847641,-0.1671011745929718,-0.5994418263435364,-0.2452757209539413,-0.172898918390274,0.0,0.0,0.9761340618133544,-0.7712576985359192
-0.1091831177473068,0.2487266808748245,-0.1565824896097183,-0.559925377368927,-0.2530582845211029,-0.1556512713432312,0.0,0.0,0.86506187915802,-0.8835545182228088
-0.1106122955679893,0.2369655221700668,-0.1365649700164795,-0.5238263607025146,-0.2595425546169281,-0.1296852678060531,0.0,0.0,0.9739019870758056,-0.805796205997467
-0.1120397597551345,0.2261818200349807,-0.1370323449373245,-0.4802975356578827,-0.2653811275959015,-0.1167718395590782,0.0,0.0,0.7682052850723267,-0.8445516228675842
-0.1136352568864822,0.2154624313116073,-0.1545771807432174,-0.4773259460926056,-0.2704653143882751,-0.1016840562224388,0.0,0.0,0.8563365936279297,-0.4914460182189941
-0.1149971932172775,0.2054820358753204,-0.1307768672704696,-0.4445847272872925,-0.2760131955146789,-0.1109574437141418,0.0,0.0,0.7619845867156982,-0.9663365483283995
-0.1164285689592361,0.1959411650896072,-0.1388218998908996,-0.4248604476451874,-0.28044393658638,-0.0886156782507896,0.0,0.0,0.7885885238647461,-0.9241941571235656
-0.1178362816572189,0.1869924664497375,-0.1375418901443481,-0.398343563079834,-0.2837701141834259,-0.0665232166647911,0.0,0.0,0.3072824478149414,-0.8657153248786926
-0.1192107200622558,0.1783511042594909,-0.1352641284465789,-0.3844867646694183,-0.2860120236873626,-0.0448384694755077,0.0,0.0,0.3615548610687256,-0.9312312602996826
-0.1204873099923133,0.1698690950870514,-0.1267273724079132,-0.377162367105484,-0.2869705855846405,-0.0191709585487842,0.0,0.0,0.5636978149414062,-0.9520165920257568
-0.1217674240469932,0.1613382399082183,-0.128333643078804,-0.3790845870971679,-0.2866411209106445,0.0065891020931303,0.0,0.0,0.7882168292999268,-0.7918645739555359
-0.1229251846671104,0.152881771326065,-0.1172197833657264,-0.375561386346817,-0.2851536273956299,0.0297499634325504,0.0,0.0,0.4641244411468506,-0.8796819448471069
-0.1239106208086013,0.1445935368537902,-0.1012506484985351,-0.367836982011795,-0.2823716700077057,0.0556391775608062,0.0,0.0,0.7441524267196655,-0.7388672828674316
-0.12472715228796,0.1363300383090973,-0.0855026692152023,-0.3665275275707245,-0.2784168124198913,0.0790974050760269,0.0,0.0,0.6792938709259033,-0.8926681876182556
-0.1254502236843109,0.128678873181343,-0.0772813856601715,-0.3391108810901642,-0.2733059525489807,0.1022165194153785,0.0,0.0,0.2299984693527221,-0.6294296979904175
-0.1260862350463867,0.1213309168815612,-0.0692434534430503,-0.3255321681499481,-0.2675211727619171,0.1156952008605003,0.0,0.0,0.5978224277496338,-0.6601858139038086
-0.1265172958374023,0.1143605336546897,-0.0497236549854278,-0.3086026608943939,-0.2607596218585968,0.1352308988571167,0.0,0.0,0.2950398921966553,-0.8473806381225586
-0.1269032508134842,0.1072167009115219,-0.0463380143046379,-0.3161443173885345,-0.2528516352176666,0.1581604182720184,0.0,0.0,0.6652839183807373,-0.5951826572418213
-0.1273026466369629,0.1003291457891464,-0.0481347627937793,-0.3047234117984772,-0.244515985250473,0.166712686419487,0.0,0.0,0.621312141418457,-0.4910496473312378
-0.127456858754158,0.0941171497106552,-0.0233781915158033,-0.2747856080532074,-0.2364251166582107,0.161817580461502,0.0,0.0,0.6487767696380615,-0.6904515027999878
-0.1275951415300369,0.0882345288991928,-0.022502027451992,-0.2600758373737335,-0.2276188731193542,0.1761247664690017,0.0,0.0,0.6603744029998779,-0.1199889183044433
-0.1277132928371429,0.0830359756946563,-0.0193294789642095,-0.2299098819494247,-0.2200090587139129,0.1521961688995361,0.0,0.0,0.2599670886993408,0.021296739578247
-0.1276880204677581,0.0780676007270813,-0.0047050504945218,-0.2197542637586593,-0.2127041220664978,0.1460985392332077,0.0,0.0,0.2078665494918823,-0.0322787761688232
-0.1276218444108963,0.0733887553215026,0.0001606698933755,-0.207033172249794,-0.2061858922243118,0.1303647011518478,0.0,0.0,0.2632434368133545,0.5734360218048096
-0.1274971067905426,0.0690345615148544,0.0078821070492267,-0.1928874403238296,-0.2015509158372879,0.0926994010806083,0.0,0.0,-0.0711795687675476,0.3113187551498413
-0.1274066865444183,0.0641527250409126,0.0050267027691006,-0.2164315581321716,-0.1975079327821731,0.0808597207069397,0.0,0.0,0.4430638551712036,-0.0578699111938476
-0.127346321940422,0.0595456212759017,0.003073030617088,-0.2043655812740326,-0.1945210844278335,0.0597365722060203,0.0,0.0,0.7308589220046997,-0.181976318359375
-0.1273663491010666,0.0552639588713645,-0.0036783318500965,-0.1900812685489654,-0.1928406357765197,0.033608540892601,0.0,0.0,0.4638872146606445,0.3000440597534179
-0.1272027939558029,0.0513645969331264,0.0148193016648292,-0.1731041371822357,-0.1912952661514282,0.0309075526893138,0.0,0.0,0.5181701183319092,-0.1131600141525268
-0.1269484460353851,0.0474204644560813,0.0241907872259616,-0.1751354187726974,-0.1900499910116195,0.0249056741595268,0.0,0.0,0.7072349786758423,-0.1932598352432251
-0.1264256536960601,0.0440669879317283,0.0509074255824089,-0.1488649249076843,-0.1886636316776275,0.0277272574603557,0.0,0.0,0.102729320526123,-0.7278850078582764
-0.1259043663740158,0.0409757234156131,0.0498400256037712,-0.1371036022901535,-0.1863707304000854,0.045857660472393,0.0,0.0,0.3302973508834839,-0.6857367157936096
-0.1252066642045974,0.038357887417078,0.0664420649409294,-0.115932822227478,-0.1830251067876815,0.0669124871492385,0.0,0.0,-0.2203345894813537,-0.0753312706947326
-0.1245314627885818,0.0352119766175746,0.064704030752182,-0.1394741237163543,-0.1802035272121429,0.0564315840601921,0.0,0.0,-0.0695393681526184,-0.388753592967987
-0.1238771453499794,0.0315378531813621,0.0631365180015564,-0.1630149036645889,-0.1778959035873413,0.0461520664393901,0.0,0.0,0.8113666772842407,0.1221663951873779
-0.1230234131217002,0.0285926442593336,0.083268366754055,-0.1306468695402145,-0.1757843196392059,0.0422316454350948,0.0,0.0,0.1417346000671386,-0.7068347930908203
-0.1221244782209396,0.0255817752331495,0.0868009701371193,-0.1334539502859115,-0.1726828962564468,0.0620283298194408,0.0,0.0,0.2365508079528808,-0.3583583831787109
-0.121251106262207,0.0227500777691602,0.0851398855447769,-0.1256017982959747,-0.1704867631196975,0.0439227893948555,0.0,0.0,0.3194591999053955,-0.8559128642082214
-0.120503045618534,0.0200424771755933,0.0714749842882156,-0.1199585422873497,-0.1671561002731323,0.0666133910417556,0.0,0.0,0.3012385368347168,-0.4510859251022339
-0.1197086349129676,0.0174674838781356,0.0766453295946121,-0.1141319498419761,-0.1643625497817993,0.0558709613978862,0.0,0.0,0.3757555484771728,-0.7888851761817932
-0.1188303977251052,0.0155807109549641,0.0710842981934547,-0.0821230560541153,-0.1475389748811721,0.3365946412086487,1.0,0.0,0.4346048831939697,-0.3878543376922607
-0.1177934631705284,0.0136063192039728,0.0863638967275619,-0.0861486345529556,-0.1301898211240768,0.3470824062824249,1.0,0.0,0.3872519731521606,-0.6347020864486694
-0.1166342720389366,0.0119733903557062,0.0965135991573333,-0.0710238739848136,-0.1108191385865211,0.3875105381011963,1.0,0.0,0.0631563663482666,-0.2888999581336975
-0.1154070869088172,0.010577998124063,0.1034763902425766,-0.0607044249773025,-0.0917263329029083,0.3818551301956177,1.0,0.0,0.1237624883651733,-0.4734185934066772
