x_pos,y_pos,x_vel,y_vel,angle,ang_vel,leg_1,leg_2,main_booster,lat_booster
-0.0016088485717773,1.403237223625183,-0.1623176634311676,-0.3414596319198608,0.0012772881891578,0.0251597110182046,0.0,0.0,0.0554685592651367,0.5791122913360596
-0.0032197951804846,1.3956297636032104,-0.1607010662555694,-0.3381122946739197,0.0008928016759455,-0.0076897032558918,0.0,0.0,0.0514625310897827,0.4142917394638061
-0.0048281671479344,1.388020157814026,-0.1603097766637802,-0.338202029466629,0.0003778774407692,-0.0102993343025445,0.0,0.0,0.2202675342559814,0.5836312770843506
-0.0065680504776537,1.3805749416351318,-0.1715532839298248,-0.3308993875980377,-0.0020192447118461,-0.0479473881423473,0.0,0.0,0.077845811843872,0.3409186601638794
-0.0083006862550973,1.373380422592163,-0.1707182377576828,-0.3197606205940246,-0.0045394017361104,-0.0504078343510627,0.0,0.0,-0.4599646925926208,0.4497017860412597
-0.0101088527590036,1.365798830986023,-0.1777492612600326,-0.3369725942611694,-0.0075809648260474,-0.0608369782567024,0.0,0.0,-0.225390076637268,0.3759430646896362
-0.0119901653379201,1.3578301668167114,-0.184532418847084,-0.3541804254055023,-0.011136800982058,-0.0711231455206871,0.0,0.0,-0.3144786953926086,0.2775361537933349
-0.0139417648315429,1.3494746685028076,-0.1910497099161148,-0.3713902831077575,-0.0152005115523934,-0.0812815129756927,0.0,0.0,-0.8083474040031433,0.625643253326416
-0.0159123428165912,1.3407381772994995,-0.1912189126014709,-0.3883602917194366,-0.0209794044494628,-0.1155888065695762,0.0,0.0,-0.1074424982070922,-0.1288025379180908
-0.0179472919553518,1.3316150903701782,-0.1971434652805328,-0.4055724442005157,-0.0272518247365951,-0.1254598200321197,0.0,0.0,-0.3730849027633667,0.8509711027145386
-0.0199664123356342,1.3221031427383425,-0.1931333392858505,-0.4229328334331512,-0.0359388887882232,-0.1737570762634277,0.0,0.0,-0.3438782691955566,0.819217324256897
-0.0219707489013671,1.3122001886367798,-0.1893445551395416,-0.4404408633708954,-0.0469192750751972,-0.2196282595396042,0.0,0.0,-0.6463974118232727,0.4933785200119018
-0.0240286830812692,1.3019118309020996,-0.1942285597324371,-0.4576612412929535,-0.0583708174526691,-0.2290516644716262,0.0,0.0,-0.5895087718963623,0.7443206310272217
-0.026071261614561,1.2912260293960571,-0.1905641406774521,-0.4755100309848785,-0.0719345137476921,-0.2712985575199127,0.0,0.0,-0.5598433017730713,0.2454304695129394
-0.0281592365354299,1.280156135559082,-0.1946612894535064,-0.4927366375923157,-0.0859531536698341,-0.2803986072540283,0.0,0.0,-0.5222387909889221,0.0043325424194335
-0.0302884094417095,1.2687021493911743,-0.1983412802219391,-0.5099652409553528,-0.1004197522997856,-0.289358526468277,0.0,0.0,-0.2767326235771179,0.5753145217895508
-0.0323983207345008,1.256862998008728,-0.1945782899856567,-0.5273674130439758,-0.1167297884821891,-0.3262303471565246,0.0,0.0,-0.1803858280181884,-0.11273854970932
-0.0345400795340538,1.2446407079696655,-0.197372481226921,-0.5446040034294128,-0.1334699541330337,-0.3348339200019836,0.0,0.0,-0.2299988865852356,-0.6472364664077759
-0.0367509834468364,1.2320501804351809,-0.2049846202135086,-0.5610963106155396,-0.1495467126369476,-0.3215640187263489,0.0,0.0,-0.0666455626487732,-0.518456220626831
-0.0390301719307899,1.2190866470336914,-0.2126139104366302,-0.5777670741081238,-0.1648634225130081,-0.3063615560531616,0.0,0.0,0.3588569164276123,-0.6963715553283691
-0.0411641113460063,1.2066444158554075,-0.199301466345787,-0.554611325263977,-0.1789946109056472,-0.2826494872570038,0.0,0.0,0.2692124843597412,-0.2580229043960571
-0.0432413108646869,1.1943176984786987,-0.1933121383190155,-0.5496562123298645,-0.1934805214405059,-0.2897443771362304,0.0,0.0,0.1262422800064087,-0.7075974941253662
-0.0452110283076763,1.1821397542953491,-0.1837328374385833,-0.5430289506912231,-0.2068278640508651,-0.2669711709022522,0.0,0.0,-0.1825781464576721,-0.8819807171821594
-0.0472450256347656,1.1695868968963623,-0.1913711577653885,-0.5596327185630798,-0.2189934253692627,-0.2433325499296188,0.0,0.0,-0.3400866985321045,-0.7628540396690369
-0.049349021166563,1.1566758155822754,-0.1999224573373794,-0.5754160284996033,-0.2296276092529297,-0.2127024233341217,0.0,0.0,0.1352553367614746,-0.873536229133606
-0.0515195839107036,1.144133687019348,-0.2079195082187652,-0.5588833093643188,-0.2388936579227447,-0.1853206902742386,0.0,0.0,0.0179063081741333,-0.464974045753479
-0.05357027053833,1.131857991218567,-0.1956277191638946,-0.5471489429473877,-0.2484985142946243,-0.19209685921669,0.0,0.0,-0.2669899463653564,-0.9103630781173706
-0.0556877143681049,1.1192386150360107,-0.204193502664566,-0.5621588826179504,-0.2561961412429809,-0.1539526283740997,0.0,0.0,0.8338732719421387,-0.7790258526802063
-0.0577775947749614,1.1075712442398071,-0.2023564130067825,-0.5197293758392334,-0.2629699409008026,-0.1354762613773346,0.0,0.0,0.1983053684234619,-0.8402493596076965
-0.0598316192626953,1.0960599184036257,-0.2001160681247711,-0.512569010257721,-0.2683747708797455,-0.1080968528985977,0.0,0.0,0.4413399696350097,-0.5229539275169373
-0.0616816505789756,1.085246205329895,-0.1805077493190765,-0.4814400672912597,-0.2729788720607757,-0.0920825749635696,0.0,0.0,0.1913235187530517,-0.5609402060508728
-0.0635152831673622,1.0745428800582886,-0.1795740872621536,-0.4764172732830047,-0.2768570780754089,-0.0775643810629844,0.0,0.0,0.4888004064559936,-0.3836121559143066
-0.0651848763227462,1.0645264387130735,-0.162576675415039,-0.4460161626338959,-0.2813632786273956,-0.0901234745979309,0.0,0.0,-0.4251466393470764,-0.5522368550300598
-0.0668598189949989,1.0541391372680664,-0.1640515625476837,-0.4623226523399353,-0.2849073410034179,-0.0708811208605766,0.0,0.0,0.1705846786499023,-0.7855093479156494
-0.0684107765555381,1.0440278053283691,-0.1529602706432342,-0.449817806482315,-0.2871053218841553,-0.0439600087702274,0.0,0.0,-0.5291134119033813,-0.7434649467468262
-0.0699662193655967,1.0335594415664673,-0.1545878648757934,-0.4654415249824524,-0.2880823314189911,-0.0195399075746536,0.0,0.0,0.1247652769088745,-0.3555507659912109
-0.0713983550667762,1.0231584310531616,-0.1419580429792404,-0.4625190794467926,-0.2893787026405334,-0.0259271766990423,0.0,0.0,-0.8226437568664551,-0.7305411696434021
-0.0728257149457931,1.012399435043335,-0.1426146030426025,-0.4781987369060516,-0.2895041704177856,-0.0025095758028328,0.0,0.0,-0.1152639389038086,-0.2275658249855041
-0.074194811284542,1.001254320144653,-0.1365813910961151,-0.4954110085964203,-0.2898426055908203,-0.0067684329114854,0.0,0.0,-0.7191742062568665,-0.6781639456748962
-0.0755515098571777,0.989745318889618,-0.1364231705665588,-0.5113628506660461,-0.2890682816505432,0.0154867591336369,0.0,0.0,-0.2422415614128112,-0.7249121069908142
-0.0769079178571701,0.9778844714164734,-0.1378948986530304,-0.5267030000686646,-0.286743700504303,0.0464916266500949,0.0,0.0,0.1379487514495849,-0.8443471789360046
-0.0780658721923828,0.9661406874656676,-0.1195889934897422,-0.5212101936340332,-0.2828423678874969,0.0780268013477325,0.0,0.0,-0.0774570703506469,-0.9662344455718994
-0.0792189612984657,0.954026997089386,-0.120538093149662,-0.5373809337615967,-0.2774730622768402,0.1073858588933944,0.0,0.0,-0.1025736331939697,-0.4141119718551636
-0.0803017616271972,0.9415271878242492,-0.1133629232645034,-0.5545941591262817,-0.2722586989402771,0.104287289083004,0.0,0.0,-0.671227216720581,-0.9011160135269164
-0.0813873261213302,0.9286614656448364,-0.1153997182846069,-0.5705514550209045,-0.2652487456798553,0.1401983946561813,0.0,0.0,-0.3180447816848755,-0.4272401332855224
-0.082398697733879,0.9154096245765686,-0.1078740209341049,-0.5877655744552612,-0.2583718299865722,0.1375386714935302,0.0,0.0,-0.7066366076469421,0.1170449256896972
-0.0833344459533691,0.9017717242240906,-0.1001921445131301,-0.6049792766571045,-0.251617282629013,0.135091170668602,0.0,0.0,-0.5327896475791931,0.0590060949325561
-0.0841928496956825,0.8877475261688232,-0.0923660174012184,-0.6221926212310791,-0.2449747771024704,0.1328504085540771,0.0,0.0,-0.7459754347801208,-0.2320287227630615
-0.0849725753068924,0.8733371496200562,-0.0844067856669426,-0.6394054889678955,-0.2384342551231384,0.1308105289936065,0.0,0.0,-0.7377256155014038,0.2586431503295898
-0.0856722816824913,0.8585403561592102,-0.0763248577713966,-0.6566179990768433,-0.2319860011339187,0.1289652287960052,0.0,0.0,-0.927035629749298,0.2403018474578857
-0.0862907394766807,0.8433573246002197,-0.0681298822164535,-0.6738302707672119,-0.225620612502098,0.1273077428340912,0.0,0.0,-0.9050976634025574,0.1661932468414306
-0.0868269950151443,0.8277878165245056,-0.0598308555781841,-0.6910422444343567,-0.2193290442228317,0.1258310079574585,0.0,0.0,-0.785190761089325,0.5288093090057373
-0.0872320160269737,0.811812698841095,-0.0454210862517356,-0.7092819213867188,-0.2143629491329193,0.099321573972702,0.0,0.0,-0.8622353672981262,-0.3299123048782348
-0.0875528305768966,0.7954509258270264,-0.0369379632174968,-0.7264922857284546,-0.2094537168741226,0.0981844514608383,0.0,0.0,-0.6688653230667114,0.0279756784439086
-0.0877882987260818,0.7787024974822998,-0.0283740125596523,-0.7437024712562561,-0.2045934349298477,0.0972053855657577,0.0,0.0,-0.78078693151474,0.086685299873352
-0.0879378318786621,0.7615672945976257,-0.019735861569643,-0.7609123587608337,-0.1997746378183365,0.0963761731982231,0.0,0.0,-0.7676101922988892,0.3429616689682007
-0.0880005806684494,0.7440453767776489,-0.0110296355560421,-0.7781222462654114,-0.1949902027845382,0.0956884175539016,0.0,0.0,-0.4244685173034668,0.364118218421936
-0.0879759788513183,0.7261365056037903,-0.0022610104642808,-0.7953318953514099,-0.1902335286140442,0.0951335430145263,0.0,0.0,-0.6525776386260986,0.1669590473175048
-0.0878631621599197,0.7078408598899841,0.0065647596493363,-0.8125414252281189,-0.185498371720314,0.0947028249502182,0.0,0.0,-0.3265345096588135,-0.2530819773674011
-0.0876617431640625,0.6891583800315857,0.0154428062960505,-0.8297507762908936,-0.1807789951562881,0.0943874269723892,0.0,0.0,0.0751993656158447,-0.1700536012649536
-0.0872950553894043,0.6704356670379639,0.0318261981010437,-0.8315361142158508,-0.1759159415960312,0.0972607880830764,0.0,0.0,0.2324521541595459,-0.1126846075057983
-0.0868206992745399,0.6521185636520386,0.0429348684847354,-0.8135689496994019,-0.1714044660329818,0.0902292281389236,0.0,0.0,0.1735874414443969,-0.5891830921173096
-0.0861436873674392,0.6339432001113892,0.0618514046072959,-0.8071327209472656,-0.1655507981777191,0.1170737147331237,0.0,0.0,-0.1845932006835937,-0.6928025484085083
-0.0854279547929763,0.615395188331604,0.0643869340419769,-0.8235713839530945,-0.1583605408668518,0.1438053846359253,0.0,0.0,0.0578436851501464,0.2794084548950195
-0.0845758467912674,0.5968396663665771,0.0779838785529136,-0.8239365220069885,-0.1511408537626266,0.1443935483694076,0.0,0.0,0.1633963584899902,-0.1180877685546875
-0.0836560279130935,0.5785345435142517,0.0851442962884903,-0.8128847479820251,-0.1443151235580444,0.1365142911672592,0.0,0.0,0.3137178421020508,-0.0797246694564819
-0.0825299248099327,0.5608492493629456,0.1056767702102661,-0.7853565812110901,-0.1373986154794693,0.1383304297924041,0.0,0.0,-0.2017655372619629,-0.5817524790763855
-0.0813520401716232,0.5427788496017456,0.1098283305764198,-0.802418053150177,-0.1294675171375274,0.1586221754550933,0.0,0.0,-0.3382869958877563,-0.491325318813324
-0.0800820365548133,0.5243220329284668,0.1190065145492553,-0.8196303844451904,-0.1215208619832992,0.1589331477880478,0.0,0.0,0.3978314399719238,-0.6600944399833679
-0.0788104981184005,0.5060978531837463,0.1179798617959022,-0.8092412948608398,-0.1124033629894256,0.1823496669530868,0.0,0.0,0.3733088970184326,-0.845310628414154
-0.0775355324149131,0.4883561730384826,0.1166918724775314,-0.7877458930015564,-0.1016764268279075,0.2145391255617141,0.0,0.0,0.7014175653457642,-0.267305850982666
-0.0760714560747146,0.4711802303791046,0.1354301422834396,-0.762660026550293,-0.0907851979136467,0.217824786901474,0.0,0.0,0.5713566541671753,-0.1621674299240112
-0.0745637863874435,0.454835295677185,0.1403237283229828,-0.7258425354957581,-0.0804431065917015,0.2068416774272918,0.0,0.0,0.06325364112854,-0.4166703820228576
-0.0728864669799804,0.4386545419692993,0.1570529043674469,-0.7186042666435242,-0.0698652788996696,0.2115567028522491,0.0,0.0,0.1856303215026855,-0.3604006767272949
-0.0711207389831543,0.4225105047225952,0.1659693866968155,-0.7170484662055969,-0.0593833625316619,0.2096381485462188,0.0,0.0,0.0529018640518188,-0.3090707659721374
-0.0692067146301269,0.4062871634960174,0.1805859804153442,-0.7206417918205261,-0.0486864298582077,0.213938906788826,0.0,0.0,0.0058659315109252,-0.3636407852172851
-0.0672089606523513,0.3899891376495361,0.1890280246734619,-0.7240384817123413,-0.0380657501518726,0.2124135196208953,0.0,0.0,0.7087088823318481,-0.0095507502555847
-0.0650957077741622,0.3745355904102325,0.2005980014801025,-0.6865836977958679,-0.0274746157228946,0.2118226587772369,0.0,0.0,0.2035188674926757,-0.1163750290870666
-0.0628150925040245,0.3595850467681885,0.2170578688383102,-0.6642998456954956,-0.0166059304028749,0.2173736542463302,0.0,0.0,0.339404821395874,0.0131934881210327
-0.0605216026306152,0.3452448844909668,0.2187589704990387,-0.6372523903846741,-0.0061532966792583,0.2090527266263961,0.0,0.0,0.1161503791809082,-0.0052884221076965
-0.0582214370369911,0.3308554291725158,0.2198316603899002,-0.6395169496536255,0.0038963400293141,0.2009926736354828,0.0,0.0,0.195823073387146,-0.1842849254608154
-0.0558017715811729,0.3169385492801666,0.231654405593872,-0.6185813546180725,0.0140786040574312,0.2036451548337936,0.0,0.0,0.560611367225647,-0.2656457424163818
-0.0533929839730262,0.3034493327140808,0.2310227453708648,-0.599644660949707,0.0238114781677722,0.1946573555469513,0.0,0.0,0.563018798828125,-0.5182775259017944
-0.0510037429630756,0.2905345261096954,0.2281851470470428,-0.574192225933075,0.0344176664948463,0.2121237218379974,0.0,0.0,0.1415687799453735,-0.0674045085906982
-0.0485471710562706,0.2779579758644104,0.2349715530872345,-0.5592346787452698,0.0449695140123367,0.2110373526811599,0.0,0.0,-0.0150232911109924,-0.2648555040359497
-0.0459985733032226,0.2649957537651062,0.2441937625408172,-0.5764511823654175,0.0555000640451908,0.2106111049652099,0.0,0.0,0.7153739929199219,-0.3022278547286987
-0.0433535575866699,0.2521821558475494,0.2537732720375061,-0.569923460483551,0.0661176145076751,0.2123511284589767,0.0,0.0,0.8917310237884521,-0.1569322347640991
-0.0405413620173931,0.2396834939718246,0.2700220942497253,-0.5560253262519836,0.0771937891840934,0.2215234488248825,0.0,0.0,0.8329823017120361,-0.3993768692016601
-0.0375241264700889,0.227765753865242,0.289823055267334,-0.5303313136100769,0.0889861583709716,0.2358474284410476,0.0,0.0,0.5759402513504028,-0.2289882898330688
-0.0343168266117572,0.2160425782203674,0.3082570135593414,-0.5218178629875183,0.1013482958078384,0.2472427785396576,0.0,0.0,0.6753191947937012,-0.3783477544784546
-0.0311017986387014,0.2050701230764389,0.3091357350349426,-0.488547682762146,0.1136318817734718,0.2456717193126678,0.0,0.0,0.6278198957443237,-0.6106799840927124
-0.027896786108613,0.194828525185585,0.3069038987159729,-0.4562729001045227,0.1271515488624572,0.2703929245471954,0.0,0.0,0.4556316137313843,-0.7078510522842407
-0.0246118549257516,0.1850918084383011,0.3133499324321747,-0.4340988993644714,0.142232596874237,0.3016212582588196,0.0,0.0,0.5476876497268677,-0.6412262320518494
-0.0212285034358501,0.1754297167062759,0.3217914402484894,-0.4310900568962097,0.1587477326393127,0.3303022980690002,0.0,0.0,0.5149199962615967,-0.4325582981109619
-0.0178776737302541,0.1660639345645904,0.3188898265361786,-0.4180645048618316,0.1749588102102279,0.324221670627594,0.0,0.0,0.3421995639801025,-0.7304415106773376
-0.0145425796508789,0.1573635637760162,0.315881609916687,-0.3888574242591858,0.1926519870758056,0.353863388299942,0.0,0.0,0.2896443605422973,-0.6736728549003601
-0.0112768169492483,0.1489128917455673,0.3077946007251739,-0.3781379759311676,0.2115692794322967,0.3783460259437561,0.0,0.0,0.3629673719406128,-0.0240137577056884
-0.0081620216369628,0.1410093903541565,0.2933458089828491,-0.3539663553237915,0.2299068719148636,0.366751879453659,0.0,0.0,0.1924701929092407,-0.1436787843704223
-0.0050142286345362,0.13347989320755,0.2965500652790069,-0.3375932276248932,0.2484221458435058,0.3703054189682007,0.0,0.0,0.2816675901412964,-0.4679126739501953
-0.0019638061057776,0.1263980716466903,0.2872053682804107,-0.317863404750824,0.266624242067337,0.3640418946743011,0.0,0.0,-0.2736203670501709,-0.3031457066535949
0.0011718750465661,0.1189329475164413,0.2959526777267456,-0.3350946605205536,0.2846969664096832,0.3614546954631805,0.0,0.0,0.5291229486465454,-0.6546136736869812
0.0041895867325365,0.1117137968540191,0.2831339538097381,-0.3246071934700012,0.3039114773273468,0.3842903673648834,0.0,0.0,0.3642578125,-0.3065731525421142
0.0070505142211914,0.1047789677977562,0.2681421637535095,-0.3120817244052887,0.3225343823432922,0.3724581897258758,0.0,0.0,0.3412413597106933,-0.2980170249938965
0.0097438814118504,0.098007284104824,0.2521848082542419,-0.3048881292343139,0.3404379189014435,0.3580707609653473,0.0,0.0,0.412224531173706,0.4446555376052856
0.012399673461914,0.09176567196846,0.2483010739088058,-0.2815940678119659,0.3585976958274841,0.3631948828697204,0.0,0.0,0.4853814840316772,0.5281130075454712
0.0151161197572946,0.0856546759605407,0.2555186152458191,-0.2757222354412079,0.3756521940231323,0.3410901427268982,0.0,0.0,0.4235962629318237,-0.1876472234725952
0.0177882201969623,0.0801455602049827,0.2508154511451721,-0.2492626756429672,0.393105685710907,0.3490693867206573,0.0,0.0,0.2808806896209717,0.0003131628036499
0.0202930457890033,0.0750753954052925,0.2344531267881393,-0.2298687994480133,0.4102897942066192,0.3436820209026336,0.0,0.0,0.1289628744125366,0.3728563785552978
0.0227327346801757,0.0704822391271591,0.2278366982936859,-0.208923801779747,0.4277294874191284,0.3487935066223144,0.0,0.0,0.1997847557067871,0.2786455154418945
0.025125790387392,0.066113457083702,0.2232349663972854,-0.1991535276174545,0.4452219903469085,0.3498499095439911,0.0,0.0,0.1444665193557739,0.4750902652740478
0.0273469928652048,0.0621223300695419,0.2063958197832107,-0.182482436299324,0.4624801278114319,0.3451626300811767,0.0,0.0,-0.0996698141098022,0.0640923976898193
0.0296432487666606,0.0577463246881961,0.2142295837402343,-0.1997039467096328,0.479519248008728,0.3407826721668243,0.0,0.0,0.2511496543884277,0.7278013229370117
0.0319656357169151,0.053530465811491,0.218477725982666,-0.192218080163002,0.4948860704898834,0.3073368668556213,0.0,0.0,0.2455170154571533,0.2112563848495483
0.0340581908822059,0.0494783259928226,0.1961913704872131,-0.1848686784505844,0.5095926523208618,0.2941312193870544,0.0,1.0,0.9845387935638428,0.9992687702178956
0.0357896797358989,0.0466440543532371,0.1717120707035064,-0.1273556500673294,0.5080855488777161,-0.0348573103547096,0.0,1.0,0.9799073934555054,0.9929120540618896
0.0371334068477153,0.0450883023440837,0.1518407464027404,-0.0628376081585884,0.4882884919643402,-0.3961712718009949,0.0,1.0,0.9409290552139282,0.5114263296127319
0.038113784044981,0.0443425737321376,0.1258398443460464,-0.0238450802862644,0.4567306339740753,-0.6322316527366638,0.0,1.0,0.8763580322265625,-0.7699049115180969
0.0389892570674419,0.0438427552580833,0.1152361631393432,-0.0134727470576763,0.4264130294322967,-0.6064349412918091,0.0,1.0,0.5517003536224365,-0.601712167263031
0.0396699905395507,0.04385956376791,0.093647226691246,0.0082357237115502,0.3988180756568908,-0.5519211888313293,0.0,1.0,0.2197229862213134,-0.3078396916389465
0.0401343330740928,0.0443327762186527,0.0722231566905975,0.0280231032520532,0.3713209629058838,-0.5499643087387085,0.0,0.0,-0.9999837279319764,-0.8203322291374207
0.040625762194395,0.0443804115056991,0.0736295133829116,0.0082563823089003,0.3455017209053039,-0.5163849592208862,0.0,0.0,-0.9999414086341858,-0.5742282867431641
