x_pos,y_pos,x_vel,y_vel,angle,ang_vel,leg_1,leg_2,main_booster,lat_booster
-0.0014542579883709,1.403282642364502,-0.1468909978866577,-0.3394432961940765,0.0013203719863668,0.0260123554617166,0.0,0.0,0.0400041341781616,0.7111881971359253
-0.0027451515197753,1.3957587480545044,-0.1286094784736633,-0.3343949019908905,0.0008459907840006,-0.0094879129901528,0.0,0.0,-0.4398419857025146,0.0531381368637084
-0.0039651868864893,1.3878923654556274,-0.1211410388350486,-0.3496146202087402,-4.388882643979741e-06,-0.0170091688632965,0.0,0.0,-0.5934611558914185,0.6742019653320312
-0.0050714490935206,1.379681944847107,-0.1083124727010726,-0.364906907081604,-0.0022867794614285,-0.0456520840525627,0.0,0.0,-0.4711441993713379,0.3537355661392212
-0.0061060907319188,1.3711297512054443,-0.1008053794503212,-0.3800998628139496,-0.0049144797958433,-0.0525587201118469,0.0,0.0,-0.4516783952713012,0.3889484405517578
-0.0070689199492335,1.3622360229492188,-0.093293473124504,-0.3952932357788086,-0.0078723719343543,-0.0591637380421161,0.0,0.0,-0.0997971892356872,-0.8030510544776917
-0.0080255512148141,1.353001356124878,-0.0940098166465759,-0.4104438424110412,-0.0094948885962367,-0.0324530005455017,0.0,0.0,0.0021897554397583,0.1285269260406494
-0.0088157653808593,1.3440120220184326,-0.0775173306465148,-0.399529367685318,-0.0109834698960185,-0.0297746751457452,0.0,0.0,-0.3993942737579345,-0.125122845172882
-0.0095341680571436,1.3346809148788452,-0.0700477585196495,-0.4147276282310486,-0.0127522619441151,-0.0353791452944278,0.0,0.0,-0.6206561326980591,-0.3394633531570434
-0.0101807592436671,1.3250082731246948,-0.0626076683402061,-0.4299193322658539,-0.0147836133837699,-0.0406309217214584,0.0,0.0,-0.1499881744384765,-0.5475232601165771
-0.0107928272336721,1.314995050430298,-0.059844471514225,-0.4450498521327972,-0.0161299090832471,-0.0269284732639789,0.0,0.0,-0.1437141895294189,-0.6779617667198181
-0.0113809583708643,1.3046395778656006,-0.0584126040339469,-0.4602420032024383,-0.0165173821151256,-0.0077501782216131,0.0,0.0,-0.448129653930664,-0.7292889356613159
-0.0119431493803858,1.2939472198486328,-0.0567734763026237,-0.475206583738327,-0.0159801952540874,0.0107449535280466,0.0,0.0,-0.8450716137886047,-0.0566475987434387
-0.0124352453276515,1.282913327217102,-0.0495544485747814,-0.4903999865055084,-0.0156336594372987,0.0069313226267695,0.0,0.0,-0.934285283088684,-0.892551839351654
-0.0129114147275686,1.2715479135513306,-0.0491686202585697,-0.5051128268241882,-0.0141018889844417,0.030638163909316,0.0,0.0,-0.8742936849594116,-0.7294864058494568
-0.0133658405393362,1.2598333358764648,-0.0480338297784328,-0.5206320881843567,-0.0115401735529303,0.051239151507616,0.0,0.0,-0.7382038235664368,-0.7894445657730103
-0.0138001441955566,1.2477869987487793,-0.0471064671874046,-0.5353694558143616,-0.0079043600708246,0.0727227702736854,0.0,0.0,-0.8750290870666504,-0.2014071345329284
-0.0141672138124704,1.2353990077972412,-0.04026710242033,-0.5505639910697937,-0.0043847933411598,0.0703977718949318,0.0,0.0,-0.8727317452430725,0.0711678266525268
-0.0144680980592966,1.2226693630218506,-0.0335457250475883,-0.5657582879066467,-0.0009622097131796,0.0684573575854301,0.0,0.0,-0.8125292062759399,-0.0654348731040954
-0.0147038456052541,1.2095978260040283,-0.0269536711275577,-0.580952525138855,0.0023817159235477,0.0668844655156135,0.0,0.0,-0.7652232050895691,0.347643494606018
-0.014875697903335,1.1961846351623535,-0.020501971244812,-0.5961467027664185,0.005665483418852,0.0656811818480491,0.0,0.0,-0.8529152870178223,-0.4762370586395263
-0.0149849895387887,1.1824299097061155,-0.0142019437626004,-0.6113409399986267,0.0089074103161692,0.0648439228534698,0.0,0.0,-0.8033463358879089,-0.3906034231185913
-0.0150331500917673,1.1683335304260254,-0.0080651873722672,-0.6265352964401245,0.0121255479753017,0.064368225634098,0.0,0.0,-0.8423501253128052,0.1954497098922729
-0.015021800994873,1.153895139694214,-0.0021034644450992,-0.6417295336723328,0.0153377149254083,0.0642487257719039,0.0,0.0,-0.7741679549217224,-0.1614450216293335
-0.0149524686858057,1.139115333557129,0.0036712069995701,-0.6569238305091858,0.0185614209622144,0.0644798874855041,0.0,0.0,-0.7297226190567017,0.2833361625671386
-0.0148268695920705,1.1239721775054932,0.009273512288928,-0.6730718016624451,0.0218142233788967,0.0650560483336448,0.0,0.0,-0.7569712400436401,0.5235570669174194
-0.0146053312346339,1.1084918975830078,0.0198722798377275,-0.6880426406860352,0.0240654442459344,0.0450246892869472,0.0,0.0,-0.4680101871490478,0.2227225303649902
-0.0143316267058253,1.092670202255249,0.0250211022794246,-0.7032343745231628,0.026380157098174,0.0462943241000175,0.0,0.0,-0.8141862154006958,-0.5042058825492859
-0.0140566825866699,1.0765089988708496,0.023836875334382,-0.7183483242988586,0.0299945343285799,0.0722875371575355,0.0,0.0,-0.2166581749916076,0.7138389348983765
-0.0136795993894338,1.0600056648254397,0.035342913120985,-0.7335235476493835,0.0323349274694919,0.0468078665435314,0.0,0.0,-0.5898972749710083,0.147266149520874
-0.0132573125883936,1.043160915374756,0.039743348956108,-0.7487155199050903,0.0347870513796806,0.0490423962473869,0.0,0.0,-0.4082825183868408,0.4134964942932129
-0.0127925872802734,1.0259743928909302,0.043868638575077,-0.7639076113700867,0.0373660922050476,0.0515808351337909,0.0,0.0,-0.3462057113647461,0.4857823848724365
-0.0122879985719919,1.008446216583252,0.0477058961987495,-0.7790998220443726,0.0400868132710456,0.0544144436717033,0.0,0.0,0.1055917739868164,0.6260677576065063
-0.0117543218657374,0.9909326434135436,0.0517823882400989,-0.7784271836280823,0.0416533350944519,0.0313304737210273,0.0,0.0,0.10931396484375,-0.2490912079811096
-0.0111932754516601,0.9737091064453124,0.0542928390204906,-0.7655383348464966,0.0434401854872703,0.0357371196150779,0.0,0.0,-0.2743045687675476,0.7515659332275391
-0.0105403903871774,0.9561535716056824,0.0648542791604995,-0.7802577614784241,0.0438688956201076,0.0085740759968757,0.0,0.0,0.0862079858779907,-0.0077436566352844
-0.0098903654143214,0.9387037754058838,0.0644574537873268,-0.775560736656189,0.0444139279425144,0.0109005039557814,0.0,0.0,0.1234974861145019,0.4561892747879028
-0.0092131616547703,0.9216898679733276,0.0668328776955604,-0.7562046647071838,0.0452872738242149,0.0174669288098812,0.0,0.0,-0.3488343954086303,0.3040550947189331
-0.0085153579711914,0.9043341875076294,0.068677619099617,-0.7713966965675354,0.0463812388479709,0.0218790881335735,0.0,0.0,0.0098178386688232,0.7132887840270996
-0.0077413558028638,0.8871998190879822,0.0774763524532318,-0.761525571346283,0.0463012978434562,-0.0015989576932042,0.0,0.0,-0.0303395986557006,-0.0987187027931213
-0.0069540976546704,0.8697236776351929,0.0785628855228424,-0.7767177820205688,0.0464646592736244,0.0032672234810888,0.0,0.0,-0.7216641306877136,0.8038939237594604
-0.0060806274414062,0.8519095182418823,0.0888685435056686,-0.7916929125785828,0.0449549816548824,-0.0301933381706476,0.0,0.0,0.3376226425170898,0.2941770553588867
-0.0051344870589673,0.8341395258903503,0.0955060571432113,-0.789750337600708,0.0440734513103961,-0.0176304597407579,0.0,0.0,-0.7865749001502991,-0.1830456852912902
-0.0041868211701512,0.816027820110321,0.0953809916973114,-0.8049425482749939,0.0434660129249095,-0.0121485833078622,0.0,0.0,-0.7642046213150024,-0.1676828265190124
-0.0032418251503258,0.7975746989250183,0.0948352143168449,-0.8201348781585693,0.043142095208168,-0.0064784898422658,0.0,0.0,-0.2419500946998596,0.5886573791503906
-0.0022532462608069,0.7787770628929138,0.1001642122864723,-0.8354127407073975,0.0418510995805263,-0.0258197728544473,0.0,0.0,-0.1059305667877197,0.0793488025665283
-0.0012757300864905,0.7596376538276672,0.0987571775913238,-0.8506050705909729,0.0408612005412578,-0.0197981037199497,0.0,0.0,0.1144163608551025,-0.196324348449707
-0.0004121780511923,0.7409951090812683,0.087395928800106,-0.8285314440727234,0.0398298427462577,-0.020627336576581,0.0,0.0,-0.3866623640060425,-0.336223840713501
0.0004316330014262,0.7220109105110168,0.085108071565628,-0.8437238931655884,0.0391154997050762,-0.0142868505790829,0.0,0.0,-0.2241526246070861,-0.114652931690216
0.001251506851986,0.7026849985122681,0.0823752880096435,-0.8589162230491638,0.0387255400419235,-0.007799164392054,0.0,0.0,0.3854714632034302,-0.3424663543701172
0.0021445273887366,0.6837422847747803,0.0888005793094635,-0.841911256313324,0.0392234027385711,0.0099571300670504,0.0,0.0,0.5437870025634766,-0.055308997631073
0.0029239654541015,0.6654866933822632,0.0773534029722213,-0.8113806843757629,0.0398102886974811,0.011737935245037,0.0,0.0,-0.0495249032974243,0.689476490020752
0.0037307739257812,0.646889328956604,0.0813748389482498,-0.8265290856361389,0.0391211546957492,-0.0137825654819607,0.0,0.0,-0.1188491582870483,0.1793839931488037
0.0044959066435694,0.6279504895210266,0.0768598765134811,-0.8417214155197144,0.0387818589806556,-0.0067858984693884,0.0,0.0,0.7789223194122314,-0.5148416757583618
0.0053244591690599,0.6094624400138855,0.0813124626874923,-0.8217312097549438,0.0403109528124332,0.030581897124648,0.0,0.0,0.1996625661849975,0.2217885255813598
0.0060196877457201,0.591141402721405,0.0679363161325454,-0.8143099546432495,0.0418792590498924,0.0313661471009254,0.0,0.0,0.6310157775878906,0.0697962045669555
0.0067202569916844,0.5736638903617859,0.0676633268594741,-0.7768481373786926,0.0442416667938232,0.0472482666373252,0.0,0.0,-0.6881470680236816,0.579653263092041
0.0074184415861964,0.5558509230613708,0.0684810429811477,-0.7917280197143555,0.0455550178885459,0.0262670870870351,0.0,0.0,0.8453919887542725,-0.4517590999603271
0.0080951694399118,0.5390800833702087,0.0655840262770652,-0.7454332709312439,0.0476271472871303,0.0414425767958164,0.0,0.0,-0.5240058302879333,0.8391995429992676
0.0087628364562988,0.5219792723655701,0.0657667517662048,-0.7600702047348022,0.0486154071986675,0.0197651125490665,0.0,0.0,0.2480709552764892,-0.030453622341156
0.0093847271054983,0.5049589276313782,0.060627531260252,-0.7565160393714905,0.0501616112887859,0.0309238843619823,0.0,0.0,0.3448789119720459,0.0342108011245727
0.0098218917846679,0.4884461462497711,0.0421469621360302,-0.7339515089988708,0.051711831241846,0.0310043543577194,0.0,0.0,0.8678847551345825,0.1091103553771972
0.010289859957993,0.4724787175655365,0.044193685054779,-0.7097572088241577,0.0542918369174003,0.0515998192131519,0.0,0.0,-0.6946457624435425,0.6800554990768433
0.0107317920774221,0.4561753869056701,0.0426079481840133,-0.724652111530304,0.0558508411049842,0.0311802327632904,0.0,0.0,-0.2536567449569702,0.6231894493103027
0.0111381532624363,0.4395301043987274,0.0399426966905593,-0.7398166656494141,0.0565413832664489,0.0138108041137456,0.0,0.0,0.4597011804580688,-0.2187035083770752
0.0113170621916651,0.4233160316944122,0.0173044651746749,-0.7206459641456604,0.0571139827370643,0.0114521775394678,0.0,0.0,0.5658876895904541,0.2882461547851562
0.0113778114318847,0.4079769551753998,0.0050054779276251,-0.681778073310852,0.0581693425774574,0.0211072135716676,0.0,0.0,0.4432917833328247,0.5951619148254395
0.011453628540039,0.3926827013492584,0.0071541056968271,-0.6797583699226379,0.0586007423698902,0.0086278831586241,0.0,0.0,0.6252996921539307,0.7681957483291626
0.0114717483520507,0.3783213794231415,0.0024683850351721,-0.6382551193237305,0.0579442903399467,-0.0131288822740316,0.0,0.0,0.3969773054122925,0.3840384483337402
0.0112859727814793,0.3642110228538513,-0.0179306399077177,-0.6271024346351624,0.0573079399764537,-0.0127271059900522,0.0,0.0,-0.4389926195144653,0.93719744682312
0.0110589023679494,0.3497685194015503,-0.0208564568310976,-0.6418207287788391,0.0554771423339843,-0.0366159006953239,0.0,0.0,0.7738373279571533,0.5401096343994141
0.0107660293579101,0.3359927535057068,-0.0268384721130132,-0.612166166305542,0.0530551224946975,-0.0484402440488338,0.0,0.0,0.800055980682373,0.7748947143554688
0.0102229118347167,0.3232552707195282,-0.0503605976700782,-0.5659769177436829,0.0491543151438236,-0.0780162066221237,0.0,0.0,0.7028803825378418,0.5308640003204346
0.0096619604155421,0.3110772371292114,-0.0516988039016723,-0.5411080121994019,0.0448010228574276,-0.0870658978819847,0.0,0.0,0.2575515508651733,0.5536935329437256
0.0089896200224757,0.2990007400512695,-0.0620343200862407,-0.536586582660675,0.0396698489785194,-0.102623626589775,0.0,0.0,0.2506289482116699,0.2925821542739868
0.00824317894876,0.2869548201560974,-0.0700766816735267,-0.5352599024772644,0.0351542495191097,-0.0903119593858718,0.0,0.0,-0.4961670637130737,0.6017773151397705
0.0074240686371922,0.2745639383792877,-0.0765749439597129,-0.5505878925323486,0.0298795960843563,-0.1054928675293922,0.0,0.0,0.749121904373169,0.5927126407623291
0.0064971921965479,0.2630979716777801,-0.0864945650100708,-0.509486734867096,0.0237718895077705,-0.1221542134881019,0.0,0.0,-0.5555925965309143,0.1761683225631714
0.0054487227462232,0.2512907981872558,-0.0990335345268249,-0.5246817469596863,0.0180315654724836,-0.1148065775632858,0.0,0.0,0.2861378192901611,-0.0024983882904052
0.0041780471801757,0.2400942593812942,-0.1212110966444015,-0.4975652396678924,0.0122505268082022,-0.1156208366155624,0.0,0.0,-0.7772148847579956,0.5833897590637207
0.0028186799027025,0.2285511046648025,-0.1295238435268402,-0.5129899978637695,0.0059179463423788,-0.1266514956951141,0.0,0.0,-0.4557444453239441,-0.0704433917999267
0.0013327598571777,0.2166666388511657,-0.1425380408763885,-0.5281847715377808,-6.012866288074292e-05,-0.1195614710450172,0.0,0.0,0.1514265537261963,-0.2776870727539062
-0.0003518104495014,0.2050425112247467,-0.1624189764261245,-0.5166393518447876,-0.0060152406804263,-0.1191020980477333,0.0,0.0,-0.1543499231338501,0.203204870223999
-0.0021656989119946,0.1930770725011825,-0.1757033765316009,-0.5318333506584167,-0.0116258915513753,-0.1122131571173667,0.0,0.0,-0.5183690786361694,0.847069501876831
-0.004044437315315,0.180773451924324,-0.1808631122112274,-0.5468987822532654,-0.0185484439134597,-0.1384508460760116,0.0,0.0,-0.3344303965568542,0.9832189083099364
-0.0059659956023097,0.1681265234947204,-0.1832091063261032,-0.5622237324714661,-0.0273761972784996,-0.1765551120042801,0.0,0.0,0.860596776008606,0.954310417175293
-0.0079049114137887,0.1557030975818634,-0.1834091693162918,-0.5523747205734253,-0.0377267375588417,-0.2070109397172927,0.0,0.0,0.5276637077331543,0.8727147579193115
-0.009798526763916,0.1434815973043441,-0.1775837987661361,-0.5435119867324829,-0.0493636094033718,-0.2327373027801513,0.0,0.0,0.7802184820175171,0.6370186805725098
-0.011575698852539,0.1318252831697464,-0.1654136031866073,-0.5185056328773499,-0.0615294426679611,-0.2433169186115265,0.0,0.0,0.9731324911117554,0.1214978694915771
-0.0132936481386423,0.1205185949802398,-0.1605846583843231,-0.5030163526535034,-0.0726167559623718,-0.2217464745044708,0.0,0.0,0.9777772426605223,0.2644977569580078
-0.0150897977873682,0.1102175563573837,-0.1686895340681076,-0.4583867788314819,-0.0834338888525962,-0.2163424789905548,0.0,0.0,0.9803256988525392,-0.0028542280197143
-0.0169107429683208,0.1009304597973823,-0.1716487109661102,-0.4133775532245636,-0.0937848836183548,-0.2070196866989135,0.0,0.0,0.8741863965988159,0.0860266685485839
-0.018658448010683,0.0924126952886581,-0.1652840822935104,-0.379189670085907,-0.1031948998570442,-0.1882006227970123,0.0,0.0,0.9169728755950928,0.0909717082977294
-0.0203898437321186,0.0841007828712463,-0.1644812673330307,-0.3700352311134338,-0.1117834746837616,-0.1717715561389923,0.0,0.0,0.9925984144210817,0.6653139591217041
-0.0222077369689941,0.0763640701770782,-0.1719052493572235,-0.34462371468544,-0.121604785323143,-0.196426659822464,0.0,0.0,0.8732742071151733,0.2839255332946777
-0.0239519122987985,0.0697254240512847,-0.1652633547782898,-0.2958240807056427,-0.130716934800148,-0.1822429299354553,0.0,0.0,0.5133767127990723,0.7518824338912964
-0.0257335659116506,0.0635137856006622,-0.1677273511886596,-0.2770188450813293,-0.1411140710115432,-0.2079428136348724,0.0,0.0,0.8297755718231201,-0.3269338607788086
-0.0276690479367971,0.0582989305257797,-0.1827411502599716,-0.2328323870897293,-0.1518987119197845,-0.2156931906938552,0.0,0.0,0.1374869346618652,0.372172474861145
-0.0296144485473632,0.0534419864416122,-0.1842673867940902,-0.2169443815946579,-0.1621638834476471,-0.205303356051445,0.0,0.0,-0.4308779239654541,0.0544482469558715
-0.0317021384835243,0.0482440814375877,-0.1987487375736236,-0.2321411520242691,-0.1721945852041244,-0.2006136924028396,0.0,0.0,0.2756596803665161,0.0894567966461181
-0.0338963493704795,0.0435761064291,-0.2093536406755447,-0.2086678445339203,-0.1822940558195114,-0.2019895315170288,0.0,0.0,0.1859514713287353,-0.042772889137268
-0.0361864082515239,0.0390991792082786,-0.2190909683704376,-0.200222834944725,-0.1922572404146194,-0.1992636919021606,0.0,0.0,0.220280647277832,0.318415880203247
-0.038619615137577,0.0349599942564964,-0.2332353889942169,-0.1853050738573074,-0.2024078965187072,-0.2030133455991745,0.0,0.0,-0.1367071866989135,0.4950575828552246
-0.0411965362727642,0.0304797738790512,-0.2478304803371429,-0.2005013078451156,-0.2123551964759826,-0.1989460736513137,0.0,0.0,0.4650053977966308,0.2702059745788574
-0.0436912551522254,0.0265630334615707,-0.2402617037296295,-0.1754282563924789,-0.2216723263263702,-0.1863427460193634,0.0,0.0,0.101176381111145,0.5885863304138184
-0.0461872108280658,0.0226297713816165,-0.2394742220640182,-0.1763676851987838,-0.231922447681427,-0.2050022780895233,1.0,0.0,0.8252658843994141,0.985802173614502
-0.0480623245239257,0.020204409956932,-0.1933556497097015,-0.1073731705546379,-0.2247978001832962,0.1442165672779083,1.0,0.0,0.2756669521331787,0.9930959939956664
-0.0495111458003521,0.0188086610287427,-0.1674348264932632,-0.0587925501167774,-0.2019122838973999,0.4578405320644378,1.0,0.0,-0.4678411483764648,0.986947536468506
-0.0507266037166118,0.0173956733196973,-0.1529406309127807,-0.0588551238179206,-0.1702689230442047,0.6329966187477112,1.0,0.0,-0.2665742635726928,0.91181743144989
-0.0518072135746479,0.01577590405941,-0.1422130465507507,-0.0684630870819091,-0.1360525637865066,0.6844514608383179,1.0,0.0,-0.1221085786819458,0.7219059467315674
-0.0528542511165142,0.0137936444953084,-0.1363502591848373,-0.085513912141323,-0.1045766919851303,0.6295166611671448,1.0,0.0,0.0377355813980102,0.969858169555664
-0.0537261962890625,0.0122091388329863,-0.1169835776090622,-0.0686030238866806,-0.0750521048903465,0.5904922485351562,0.0,0.0,0.4142259359359741,0.947153091430664
-0.0545595176517963,0.0108585217967629,-0.1115265116095542,-0.058847602456808,-0.047166496515274,0.557712972164154,0.0,0.0,0.2467812299728393,0.965228796005249
-0.0555466637015342,0.0098786568269133,-0.1251382529735565,-0.0429220236837863,-0.0210616532713174,0.5220972299575806,0.0,0.0,-0.6264971494674683,0.9644707441329956
-0.0566185936331748,0.0085611911490559,-0.1322726160287857,-0.0583892576396465,0.0037018447183072,0.4952701926231384,0.0,0.0,-0.275676429271698,0.9901270866394044
-0.0577599518001079,0.0069093443453311,-0.1374593675136566,-0.0736347138881683,0.02672815695405,0.4605262875556946,0.0,0.0,-0.1217008829116821,0.9904587268829346
-0.058964729309082,0.0049235797487199,-0.1418677270412445,-0.0887699201703071,0.0478544346988201,0.422525942325592,0.0,0.0,0.2671656608581543,0.9972748756408693
-0.0602228157222271,0.003738937433809,-0.1262357532978058,-0.0526664368808269,0.0482840947806835,0.0085960607975721,0.0,1.0,-0.1483480930328369,0.9977542161941528
-0.0614932999014854,0.0028300976846367,-0.10833340883255,-0.0398958288133144,0.0297905709594488,-0.3698810636997223,0.0,1.0,-0.1669870615005493,0.5918211936950684
-0.0627025589346885,0.0015726423589512,-0.1017135977745056,-0.0556137077510356,0.0108193177729845,-0.3794251084327698,0.0,1.0,0.1698615550994873,0.5073317289352417
-0.0638246536254882,0.0003055667912121,-0.0920791253447532,-0.0562892295420169,-0.0090584093704819,-0.3975546360015869,0.0,0.0,-0.1551733016967773,0.5494236946105957
