x_pos,y_pos,x_vel,y_vel,angle,ang_vel,leg_1,leg_2,main_booster,lat_booster
-0.0015158653259277,1.403275728225708,-0.1533704996109008,-0.339748203754425,0.0016019337344914,0.031587578356266,0.0,0.0,0.1569634675979614,0.6641168594360352
-0.0029314041603356,1.3957873582839966,-0.1417027413845062,-0.3328160345554352,0.0017524760914966,0.0030117109417915,0.0,0.0,-0.2248281240463256,0.7606611251831055
-0.004265880677849,1.3879444599151611,-0.1315859109163284,-0.3485761880874634,-8.821902156341821e-05,-0.0368173532187938,0.0,0.0,0.0325199365615844,-0.0320799350738525
-0.0056668282486498,1.3802211284637451,-0.1377074420452118,-0.3432583510875702,-0.0024343149270862,-0.0469265691936016,0.0,0.0,0.0037248134613037,0.1470975875854492
-0.0069801332429051,1.3727431297302246,-0.1291931420564651,-0.3323603868484497,-0.0045489249750971,-0.0422962494194507,0.0,0.0,0.3288826942443847,-0.1215212345123291
-0.0081729888916015,1.3655710220336914,-0.1175306662917137,-0.3187702298164367,-0.0062745991162955,-0.034516803920269,0.0,0.0,0.1357914209365844,0.1226423978805542
-0.00937061291188,1.3586455583572388,-0.1178059801459312,-0.3077985942363739,-0.0082076974213123,-0.0386656746268272,0.0,0.0,-0.7071303129196167,-0.169339895248413
-0.0105600357055664,1.3513715267181396,-0.1168560236692428,-0.3232989907264709,-0.0102681573480367,-0.0412129648029804,0.0,0.0,-0.4588597416877746,0.2569634914398193
-0.0117412563413381,1.3437490463256836,-0.1159097924828529,-0.3387956321239471,-0.0124508617445826,-0.0436581447720527,0.0,0.0,-0.7803101539611816,0.8040001392364502
-0.0128508564084768,1.335781812667847,-0.1070293188095092,-0.3541369438171386,-0.0163408536463975,-0.0778071582317352,0.0,0.0,-0.6445732116699219,0.2614470720291137
-0.0139521602541208,1.3274661302566528,-0.106086865067482,-0.369636207818985,-0.02034124545753,-0.0800150781869888,0.0,0.0,-0.84952712059021,0.1317201852798462
-0.015045166015625,1.3188018798828125,-0.1051500290632247,-0.3851355910301208,-0.0244476068764925,-0.0821345970034599,0.0,0.0,-0.7419793605804443,0.1746507883071899
-0.0161297805607318,1.3097892999649048,-0.1042188853025436,-0.4006350636482239,-0.028654171153903,-0.0841389819979667,0.0,0.0,-0.5811167359352112,-0.1087911128997802
-0.0172061920166015,1.3004283905029297,-0.1032941564917564,-0.4161348342895508,-0.0329555571079254,-0.0860354974865913,0.0,0.0,-0.6644912958145142,0.0792320966720581
-0.0182743072509765,1.2907190322875977,-0.1023765355348587,-0.431634783744812,-0.0373464077711105,-0.0878249034285545,0.0,0.0,-0.7046119570732117,0.4582490921020508
-0.0193342212587595,1.2806612253189087,-0.1014666706323623,-0.4471348524093628,-0.0418213941156864,-0.0895080491900444,0.0,0.0,-0.8159105777740479,-0.1021091938018798
-0.0203859321773052,1.2702549695968628,-0.1005652546882629,-0.4626350998878479,-0.0463752970099449,-0.0910862386226654,0.0,0.0,-0.733879029750824,-0.6091678738594055
-0.0214662551879882,1.2594976425170898,-0.1042924895882606,-0.4782227277755737,-0.0500798597931861,-0.0740979984402656,0.0,0.0,-0.902759313583374,0.0291160345077514
-0.0225384719669818,1.24839186668396,-0.1034134998917579,-0.4937224388122558,-0.0538535788655281,-0.0754810646176338,0.0,0.0,-0.2665847539901733,0.104496955871582
-0.0236026756465435,1.2369375228881836,-0.1025446876883506,-0.5092223882675171,-0.0576908700168132,-0.0767528191208839,0.0,0.0,-0.6208258271217346,-0.6432549357414246
-0.0246987342834472,1.2251429557800293,-0.1066884398460388,-0.5243207216262817,-0.0605780184268951,-0.0577480681240558,0.0,0.0,0.2486478090286255,-0.7306556105613708
-0.0258146282285451,1.2135006189346311,-0.11008832603693,-0.5174978971481323,-0.0620546303689479,-0.0295350886881351,0.0,0.0,-0.4175565838813782,-0.7563904523849487
-0.0269695278257131,1.2015128135681152,-0.1151446551084518,-0.5328039526939392,-0.0624011866748333,-0.0069319372996687,0.0,0.0,-0.4142947793006897,-0.2929444313049316
-0.0281168930232524,1.1891764402389526,-0.1143384799361229,-0.5483005046844482,-0.0627933070063591,-0.0078430138528347,0.0,0.0,-0.3983759880065918,-0.2808701992034912
-0.0292567256838083,1.176491379737854,-0.11354760825634,-0.5637974143028259,-0.0632261410355568,-0.0086571313440799,0.0,0.0,-0.3866187334060669,-0.86927729845047
-0.0304751396179199,1.1634490489959717,-0.1235432773828506,-0.5795919299125671,-0.0615454167127609,0.0336145311594009,0.0,0.0,-0.2910752296447754,0.5703601837158203
-0.0316408164799213,1.1500574350357056,-0.117084726691246,-0.5951642990112305,-0.0610389970242977,0.0101284701377153,0.0,0.0,-0.5766474008560181,-0.1916731595993042
-0.0327994339168071,1.1363168954849243,-0.1163485869765281,-0.6106606125831604,-0.0605610907077789,0.0095582697540521,0.0,0.0,-0.6831534504890442,-0.924871861934662
-0.0340397842228412,1.122243881225586,-0.1267550736665725,-0.625367283821106,-0.057866383343935,0.053894180804491,0.0,0.0,-0.7700567245483398,0.7527147531509399
-0.0352159515023231,1.107814073562622,-0.1188701391220092,-0.6412681341171265,-0.0566391088068485,0.0245456956326961,0.0,0.0,-0.4487892389297485,-0.3035387396812439
-0.0363857261836528,1.0930359363555908,-0.1181989535689354,-0.6567646265029907,-0.0554292015731334,0.0241981912404298,0.0,0.0,-0.3016949892044067,0.5899628400802612
-0.0375086776912212,1.0779023170471191,-0.1124711483716964,-0.672602117061615,-0.055256437510252,0.0034551545977592,0.0,0.0,0.2071458101272583,0.1059098243713378
-0.0386533737182617,1.0633021593093872,-0.1143550053238868,-0.6488988399505615,-0.0553735569119453,-0.0023424976971,0.0,0.0,-0.8222866058349609,-0.6341429948806763
-0.0398479476571083,1.0483522415161133,-0.1207351088523864,-0.664393961429596,-0.054104033857584,0.0253906138241291,0.0,0.0,-0.9400535821914672,-0.4239321947097778
-0.0410367958247661,1.0330537557601929,-0.1201704367995262,-0.6798902750015259,-0.0528394505381584,0.0252916812896728,0.0,0.0,-0.7599697709083557,0.3178412914276123
-0.0422204956412315,1.0174064636230469,-0.1196362227201461,-0.6953865885734558,-0.051577154546976,0.0252458415925502,0.0,0.0,-0.6004827618598938,-0.0520398616790771
-0.0433990471065044,1.001410722732544,-0.1191340684890747,-0.7108829021453857,-0.0503146760165691,0.0252494271844625,0.0,0.0,-0.6690492630004883,0.6036536693572998
-0.0445219986140728,0.9850669503211976,-0.1122849211096763,-0.7263866662979126,-0.0503260716795921,-0.0002276134182466,0.0,0.0,-0.4981323480606079,-0.8044233322143555
-0.0457078926265239,0.9683886170387268,-0.1203202605247497,-0.7412008047103882,-0.0486260652542114,0.0340003184974193,0.0,0.0,0.5282154083251953,0.3278448581695556
-0.0468364730477333,0.9522022604942322,-0.1147002726793289,-0.7193372249603271,-0.046798650175333,0.0365484729409217,0.0,0.0,0.1328363418579101,-0.0664253830909729
-0.0480093955993652,0.9364723563194276,-0.118813432753086,-0.6990625262260437,-0.0453017204999923,0.0299384854733943,0.0,0.0,-0.6938503980636597,0.2348440885543823
-0.0491790771484375,0.9203938245773317,-0.1184950619935989,-0.7145588994026184,-0.0437950864434242,0.0301327463239431,0.0,0.0,-0.5653952360153198,-0.1990323066711425
-0.0503458976745605,0.9039665460586548,-0.1182179227471351,-0.7300552129745483,-0.0422774069011211,0.0303536709398031,0.0,0.0,0.3375219106674194,-0.3007872104644775
-0.0514118187129497,0.8878268003463745,-0.1085186600685119,-0.7172623872756958,-0.0403757281601429,0.0380339249968528,0.0,0.0,-0.0288636088371276,-0.4299942255020141
-0.0524757392704486,0.8713385462760925,-0.1083278432488441,-0.7327588200569153,-0.0384608879685401,0.0382967256009578,0.0,0.0,-0.4166537523269653,0.2526884078979492
-0.0535380356013774,0.8545019030570984,-0.1081818789243698,-0.7482553124427795,-0.0365321412682533,0.038574744015932,0.0,0.0,-0.2984129786491394,0.4109827280044555
-0.0545991882681846,0.8373162746429443,-0.1080817356705665,-0.763751745223999,-0.0345889516174793,0.0388640612363815,0.0,0.0,0.6115248203277588,0.013392686843872
-0.0557410232722759,0.8210071921348572,-0.1156562566757202,-0.7248207926750183,-0.0331380888819694,0.0290173776447772,0.0,0.0,-0.7811124324798584,0.4302361011505127
-0.0568826682865619,0.8043493032455444,-0.1156498789787292,-0.740317165851593,-0.0316721983253955,0.0293178316205739,0.0,0.0,-0.2485871315002441,0.4562098979949951
-0.0580245964229106,0.7873427867889404,-0.115691140294075,-0.7558135390281677,-0.0301913041621446,0.0296181105077266,0.0,0.0,-0.1982332468032837,0.4843144416809082
-0.0591671951115131,0.7699875235557556,-0.1157802566885948,-0.7713098526000977,-0.0286955945193767,0.0299143530428409,0.0,0.0,0.2671132087707519,0.4355425834655761
-0.0603389739990234,0.7531329989433289,-0.1185016632080078,-0.7490736842155457,-0.0273897405713796,0.0261169672012329,0.0,0.0,-0.539024293422699,0.7288379669189453
-0.0614444725215435,0.7359227538108826,-0.1101459488272667,-0.7649063467979431,-0.0277832429856061,-0.0078701060265302,0.0,0.0,0.5648499727249146,-0.1320431232452392
-0.0625280365347862,0.7194966673851013,-0.107988141477108,-0.7300577163696289,-0.0281496830284595,-0.0073287682607769,0.0,0.0,-0.6233084797859192,-0.0377393960952758
-0.0636143684387207,0.702721893787384,-0.1082668900489807,-0.7455539703369141,-0.0285040009766817,-0.0070864395238459,0.0,0.0,-0.2999929189682007,0.7006222009658813
-0.0646572113037109,0.6855933666229248,-0.1027466803789138,-0.7612999677658081,-0.0300201084464788,-0.030322004109621,0.0,0.0,0.0550795793533325,-0.0549225807189941
-0.065628245472908,0.668876588344574,-0.0958668142557144,-0.7429947257041931,-0.0312488488852977,-0.0245746970176696,0.0,0.0,0.2988202571868896,-0.0253078937530517
-0.0664783492684364,0.6526009440422058,-0.0842861831188201,-0.7233763933181763,-0.0319675579667091,-0.0143741099163889,0.0,0.0,0.1163108348846435,0.6218569278717041
-0.0672093406319618,0.6368120908737183,-0.071201667189598,-0.7017702460289001,-0.0338359363377094,-0.0373678393661975,0.0,0.0,-0.2532841563224792,-0.4662098884582519
-0.067945197224617,0.6206744909286499,-0.0716991275548935,-0.7172667384147644,-0.0356997214257717,-0.0372755154967308,0.0,0.0,0.0169835090637207,0.113330602645874
-0.0686467140913009,0.6045284271240234,-0.0684203058481216,-0.7176478505134583,-0.037415150552988,-0.0343084447085857,0.0,0.0,0.2115825414657592,-0.330539345741272
-0.0694082230329513,0.5888088941574097,-0.074073925614357,-0.6987010836601257,-0.0394703559577465,-0.0411041639745235,0.0,0.0,0.0034762620925903,-0.004825472831726
-0.0700884833931922,0.5732070803642273,-0.0663003772497177,-0.6934607028961182,-0.0411804988980293,-0.0342026427388191,0.0,0.0,0.6760708093643188,0.5952396392822266
-0.0706769004464149,0.5581850409507751,-0.0559688806533813,-0.6677290797233582,-0.0440149269998073,-0.0566886477172374,0.0,0.0,-0.4916521310806274,-0.056139051914215
-0.0712721794843673,0.5428144335746765,-0.0566484220325946,-0.6832258701324463,-0.0468564629554748,-0.056830920279026,0.0,0.0,0.1618691682815551,-0.5108841061592102
-0.0719907730817794,0.5277277827262878,-0.0698076635599136,-0.670581042766571,-0.0488852001726627,-0.0405743494629859,0.0,0.0,-0.4154812097549438,0.6558492183685303
-0.0726629272103309,0.5122963786125183,-0.0637864023447036,-0.6859577894210815,-0.0522769950330257,-0.067836046218872,0.0,0.0,0.938469409942627,0.3417005538940429
-0.0732288360595703,0.4970227777957916,-0.0535930208861827,-0.6789306998252869,-0.0552392117679119,-0.0592442378401756,0.0,0.0,-0.2411311864852905,-0.5682412385940552
-0.0738454833626747,0.4814108312129974,-0.0597437545657157,-0.6939375400543213,-0.0571391656994819,-0.0379993095993995,0.0,0.0,0.9929834604263306,0.009556770324707
-0.0745512992143631,0.4663150608539581,-0.0681021735072135,-0.6710167527198792,-0.0595866851508617,-0.0489504635334014,0.0,0.0,0.8586478233337402,-0.0453436374664306
-0.0753234848380088,0.4520206749439239,-0.0742335617542266,-0.6354290843009949,-0.0625379681587219,-0.059025514870882,0.0,0.0,0.6778813600540161,0.9317052364349364
-0.0759564414620399,0.438315600156784,-0.0584590807557106,-0.6093234419822693,-0.0673231557011604,-0.0957038328051567,0.0,0.0,-0.2835360765457153,0.8367919921875
-0.0765461921691894,0.4242663979530334,-0.0527824684977531,-0.6246994137763977,-0.0734487250447273,-0.1225115433335304,0.0,0.0,0.5054947137832642,-0.5894855856895447
-0.0770807266235351,0.410653293132782,-0.0485806092619895,-0.6052733659744263,-0.0782706290483474,-0.0964381322264671,0.0,0.0,-0.2646092176437378,0.7238188982009888
-0.0775711983442306,0.3966799974441528,-0.0427632629871368,-0.6213759779930115,-0.0844955742359161,-0.1244985908269882,0.0,0.0,0.9471871852874756,-0.9442680478096008
-0.0780259147286415,0.3829194009304046,-0.0411941930651664,-0.611829936504364,-0.0887283086776733,-0.0846548527479171,0.0,0.0,0.8691343069076538,-0.8467305898666382
-0.0785628333687782,0.3693897724151611,-0.0509960874915123,-0.6014779210090637,-0.0914015546441078,-0.0534651353955268,0.0,0.0,0.917698860168457,-0.5667700171470642
-0.0790804848074913,0.3568995296955108,-0.0501239523291587,-0.5552219152450562,-0.0930250063538551,-0.0324689671397209,0.0,0.0,-0.2055434584617614,0.7470362186431885
-0.0795412063598632,0.3440589904785156,-0.0426836498081684,-0.5709090828895569,-0.096388891339302,-0.0672778785228729,0.0,0.0,-0.1451319456100464,-0.5486047267913818
-0.0800633430480957,0.3308828175067901,-0.0500662215054035,-0.5857480764389038,-0.0985136330127716,-0.0424949936568737,0.0,0.0,0.7806613445281982,-0.5741857290267944
-0.0807550400495529,0.3179138004779815,-0.0677084401249885,-0.576497495174408,-0.0999590307474136,-0.0289083160459995,0.0,0.0,0.5843076705932617,-0.1023341417312622
-0.0813432708382606,0.3057217597961426,-0.0574774257838726,-0.5419559478759766,-0.1012936681509018,-0.0266926176846027,0.0,0.0,0.6998214721679688,-0.4837672710418701
-0.0819861441850662,0.2940807044506073,-0.0623876266181468,-0.5175108313560486,-0.1031827330589294,-0.0377814434468746,0.0,0.0,-0.039627194404602,-0.0157297253608703
-0.0826400741934776,0.2820911407470703,-0.063409611582756,-0.5330080389976501,-0.1051479876041412,-0.0393050387501716,0.0,0.0,0.8801028728485107,-0.5207536220550537
-0.0832766517996788,0.2709514796733856,-0.0626008883118629,-0.4951707720756531,-0.106196254491806,-0.0209651757031679,0.0,0.0,-0.4591286182403564,-0.2190346121788025
-0.0839243903756141,0.2594633102416992,-0.0636370033025741,-0.5106678009033203,-0.1073286607861518,-0.0226482190191745,0.0,0.0,-0.5786875486373901,0.2375268936157226
-0.0845834761857986,0.2476266175508499,-0.0646793320775032,-0.5261648893356323,-0.1085491552948951,-0.024409906938672,0.0,0.0,0.28401780128479,-0.6720998287200928
-0.0851934403181076,0.2358987182378769,-0.0611526146531105,-0.5212289690971375,-0.1083959490060806,0.0030643090140074,0.0,0.0,0.766279935836792,-0.3326876759529114
-0.0855924636125564,0.2247071117162704,-0.0406948402523994,-0.4973463118076324,-0.1076109260320663,0.0157004743814468,0.0,0.0,0.3467037677764892,-0.7527006268501282
-0.0859015434980392,0.2136297971010208,-0.0332827046513557,-0.4921549260616302,-0.1052483171224594,0.0472521111369133,0.0,0.0,0.7567355632781982,0.1034502983093261
-0.0861442536115646,0.2033966332674026,-0.0265215337276458,-0.4546518921852112,-0.1030169278383255,0.0446277745068073,0.0,0.0,-0.1349220871925354,0.4764026403427124
-0.0863986983895301,0.1928150057792663,-0.027587603777647,-0.4701494574546814,-0.1008924767374992,0.0424890257418155,0.0,0.0,0.2716010808944702,0.3411999940872192
-0.0865179076790809,0.1826366335153579,-0.0143943447619676,-0.4522063434123993,-0.0984350964426994,0.0491477027535438,0.0,0.0,0.2849504947662353,-0.1156281232833862
-0.0865459442138671,0.1724772751331329,-0.0055310064926743,-0.4513500332832336,-0.0957288444042205,0.0541253872215747,0.0,0.0,0.3115708827972412,0.6979411840438843
-0.0865386947989463,0.1625698357820511,-0.000414680049289,-0.4402582347393036,-0.0946034640073776,0.0225077830255031,0.0,0.0,0.3507941961288452,0.1516522169113159
-0.0864078551530838,0.1533575654029846,0.011739095672965,-0.4093535542488098,-0.093278594315052,0.0264973882585763,0.0,0.0,-0.0086826086044311,-0.6821048259735107
-0.0863450020551681,0.1438043862581253,0.0036521181464195,-0.4244245886802673,-0.0906654819846153,0.0522619970142841,0.0,0.0,0.5929170846939087,0.5569899082183838
-0.0863091498613357,0.1350651085376739,0.0025282592978328,-0.3883489370346069,-0.0896132141351699,0.021045159548521,0.0,0.0,0.0390442609786987,-0.6018773913383484
-0.086231991648674,0.1266341805458068,0.0054952530190348,-0.3745766878128052,-0.0874105766415596,0.0440528355538845,0.0,0.0,-0.1300398707389831,-0.7560779452323914
-0.0862315148115158,0.1178687885403633,-0.0037033911794424,-0.3893561959266662,-0.0836984738707542,0.0742423012852668,0.0,0.0,0.7233846187591553,-0.1766731739044189
-0.0862639397382736,0.1099334582686424,-0.0064556626603007,-0.3525060415267944,-0.0805209353566169,0.0635509341955185,0.0,0.0,0.320672869682312,0.7860777378082275
-0.0862372368574142,0.1022373735904693,0.0012142463820055,-0.3419679403305053,-0.0790752172470092,0.0289141535758972,0.0,0.0,0.3084460496902466,-0.2966029644012451
-0.0862772911787033,0.0949160158634185,-0.0048913722857832,-0.3253478109836578,-0.0781972929835319,0.0175584107637405,0.0,0.0,0.1517784595489502,0.6541833877563477
-0.086367130279541,0.0877984389662742,-0.0082474537193775,-0.3163756132125854,-0.0789251998066902,-0.014557996764779,0.0,0.0,0.5324606895446777,0.1217837333679199
-0.0863188728690147,0.0813174322247505,0.0052534290589392,-0.288066029548645,-0.0793434754014015,-0.0083656068891286,0.0,0.0,0.050578236579895,0.5089594125747681
-0.0861814469099044,0.0748244151473045,0.0152552174404263,-0.2886583507061004,-0.0808465853333473,-0.0300622172653675,0.0,0.0,0.1882076263427734,0.4116948843002319
-0.085908219218254,0.0687907338142395,0.0285051763057708,-0.2682313621044159,-0.082016035914421,-0.0233888737857341,0.0,0.0,-0.1427881717681884,-0.4218807220458984
-0.0856473892927169,0.0624085031449794,0.0274108257144689,-0.283728688955307,-0.0833361148834228,-0.026401674374938,0.0,0.0,0.3566231727600097,-0.7063226699829102
-0.0852659195661544,0.056725438684225,0.0380000993609428,-0.252570778131485,-0.0831903517246246,0.0029151907656341,0.0,0.0,0.175695538520813,0.0746177434921264
-0.0848085433244705,0.0513037294149398,0.0454907529056072,-0.2409522533416748,-0.0829471945762634,0.0048631196841597,0.0,0.0,0.1023963689804077,0.6366980075836182
-0.0842734351754188,0.0463486537337303,0.0547146685421466,-0.2202919274568557,-0.0841327235102653,-0.0237108282744884,0.0,0.0,-0.2171748876571655,0.1781787872314453
-0.0837508216500282,0.0410451032221317,0.0536195114254951,-0.235789343714714,-0.0854745209217071,-0.0268359147012233,0.0,0.0,0.0685027837753295,0.3666735887527466
-0.0831634551286697,0.0358295999467372,0.0600056052207946,-0.2318737953901291,-0.0867325440049171,-0.0251604858785867,0.0,0.0,0.2247450351715088,0.2971171140670776
-0.0826392173767089,0.0309623572975397,0.054272674024105,-0.2164298892021179,-0.0885681584477424,-0.0367122553288936,0.0,0.0,0.1581573486328125,0.5333669185638428
-0.0821522697806358,0.026292024180293,0.0519708208739757,-0.2077671736478805,-0.0918156132102012,-0.0649491772055625,0.0,0.0,0.4628410339355469,0.0223588943481445
-0.0816510170698165,0.0220215898007154,0.0536447279155254,-0.1900188773870468,-0.0953107103705406,-0.0699018687009811,0.0,0.0,0.3974672555923462,0.1407496929168701
-0.0810976028442382,0.0180734489113092,0.0589305348694324,-0.1757055073976516,-0.0988639816641807,-0.07106564193964,0.0,0.0,0.3217959403991699,-0.1721183657646179
-0.0804242119193077,0.0141909690573811,0.0705882012844085,-0.1727733612060547,-0.1020939722657203,-0.0645996481180191,0.0,0.0,0.3275749683380127,-0.3548280000686645
-0.0796295180916786,0.0107680419459939,0.0825236439704895,-0.1523399502038955,-0.105121724307537,-0.0605552569031715,0.0,0.0,0.2329778671264648,-0.4751089215278625
-0.0789038687944412,0.0089307287707924,0.0579220131039619,-0.0807262510061264,-0.0905457586050033,0.2916045784950256,1.0,0.0,-0.0677974820137023,-0.7194573879241943
