x_pos,y_pos,x_vel,y_vel,angle,ang_vel,leg_1,leg_2,main_booster,lat_booster
-0.0016261100536212,1.403531789779663,-0.164719671010971,-0.3283751308917999,0.0018853417132049,0.037199605256319,0.0,0.0,-0.4577927589416504,0.3830544948577881
-0.0033555985428392,1.396073579788208,-0.1748500764369964,-0.3314718902111053,0.0037690463941544,0.0376786068081855,0.0,0.0,-0.3325810432434082,0.8238749504089355
-0.005109024234116,1.3885167837142944,-0.1752860993146896,-0.3358613848686218,0.003709445009008,-0.0011921746190637,0.0,0.0,0.0952472686767578,0.0877125263214111
-0.0070456503890454,1.3813633918762207,-0.1932717114686966,-0.3179264366626739,0.0033202164340764,-0.00778524344787,0.0,0.0,-0.0963251590728759,0.5679597854614258
-0.0090310098603367,1.3741192817687988,-0.1968080252408981,-0.3219610452651977,0.0016168084694072,-0.0340715199708938,0.0,0.0,-0.3415597677230835,0.1218680143356323
-0.0111190797761082,1.366782307624817,-0.2071272879838943,-0.32608363032341,-3.484179251245223e-05,-0.0330363437533378,0.0,0.0,-0.0664606690406799,0.6981620788574219
-0.013256549835205,1.359352707862854,-0.2107944041490554,-0.3302086293697357,-0.0029644400347024,-0.0585972592234611,0.0,0.0,-0.3360326290130615,0.0761539936065673
-0.0154962539672851,1.3518304824829102,-0.2210696637630462,-0.3343336284160614,-0.0058390274643898,-0.0574969165027141,0.0,0.0,-0.6777427196502686,0.6659996509552002
-0.0177865028381347,1.3442223072052002,-0.2248682677745819,-0.3381622731685638,-0.0099504869431257,-0.0822366401553154,0.0,0.0,-0.2895306348800659,0.6598925590515137
-0.0201263427734375,1.3365249633789062,-0.2285660803318023,-0.3421490788459778,-0.0153091344982385,-0.1071827560663223,0.0,0.0,-0.9700892567634584,0.5067727565765381
-0.022521685808897,1.3287347555160522,-0.233013242483139,-0.3463181257247925,-0.0217557176947593,-0.1289432346820831,0.0,0.0,-0.7814012765884399,0.1675477027893066
-0.0250176433473825,1.3208521604537964,-0.2431401759386062,-0.3504458963871002,-0.0281407721340656,-0.1277127712965011,0.0,0.0,-0.8697242736816406,0.7780933380126953
-0.027539063245058,1.3128783702850342,-0.2438579052686691,-0.3545726537704468,-0.0363389253616333,-0.1639779508113861,0.0,0.0,-0.6302815675735474,0.2891700267791748
-0.0301601402461528,1.3048125505447388,-0.2538788020610809,-0.358702540397644,-0.0444713905453681,-0.1626641303300857,0.0,0.0,-0.6894677877426147,0.0544567108154296
-0.0328800193965435,1.296654462814331,-0.2638409733772278,-0.3628323972225189,-0.0525376610457897,-0.1613402962684631,0.0,0.0,-0.5238773822784424,0.7504833936691284
-0.035628605633974,1.2883906364440918,-0.2650007605552673,-0.3676609098911285,-0.0622983016073703,-0.1952304393053054,0.0,0.0,-0.7300984859466553,-0.473192036151886
-0.0384745597839355,1.2800350189208984,-0.2748206257820129,-0.3717933893203735,-0.0719879865646362,-0.1938113421201706,0.0,0.0,-0.8053714632987976,0.6997087001800537
-0.0413492210209369,1.27157461643219,-0.2760443389415741,-0.3766008019447326,-0.0833271443843841,-0.2268034219741821,0.0,0.0,-0.9445550441741944,0.401991605758667
-0.0443196296691894,1.2630231380462646,-0.2856951653957367,-0.3807365000247955,-0.0945917218923568,-0.2253119200468063,0.0,0.0,-0.7115522027015686,0.0558298826217651
-0.0473848357796669,1.2543803453445437,-0.295253038406372,-0.3848724961280823,-0.1057811379432678,-0.2238086014986038,0.0,0.0,-0.8455571532249451,-0.4494513273239136
-0.0505435951054096,1.245646357536316,-0.3047095835208893,-0.3890086114406585,-0.1168934479355812,-0.2222660481929779,0.0,0.0,-0.6925559639930725,0.0219359397888183
-0.0537948608398437,1.236820936203003,-0.3140560984611511,-0.3931450247764587,-0.1279270499944687,-0.2206916064023971,0.0,0.0,-0.8674868941307068,0.5064916610717773
-0.0570893287658691,1.227894306182861,-0.317232072353363,-0.397831916809082,-0.1401095241308212,-0.2436712235212326,0.0,0.0,-0.7230108976364136,0.0862848758697509
-0.0604737289249897,1.2188764810562134,-0.3263279497623443,-0.4019711911678314,-0.1522095501422882,-0.2420220375061035,0.0,0.0,-0.8457114696502686,0.611393928527832
-0.0639099106192588,1.2097609043121338,-0.3306848704814911,-0.4065049886703491,-0.1651601493358612,-0.2590353190898895,0.0,0.0,-0.6300414204597473,-0.4059628844261169
-0.0674356445670127,1.2005336284637451,-0.3397266268730163,-0.4115871787071228,-0.1780268102884292,-0.2573331594467163,0.0,0.0,-0.696841835975647,0.067858338356018
-0.0710470229387283,1.1912153959274292,-0.3484090864658355,-0.4157223403453827,-0.190809816122055,-0.2556599080562591,0.0,0.0,-0.7429487705230713,-0.6892009377479553
-0.0748064965009689,1.181831955909729,-0.3650082945823669,-0.4184916615486145,-0.2018200010061264,-0.2202039659023285,0.0,0.0,-0.79407799243927,-0.3392195701599121
-0.0786480903625488,1.1723570823669434,-0.3733327984809875,-0.4226229786872864,-0.2127454280853271,-0.2185086011886596,0.0,0.0,-0.7404588460922241,0.2908380031585693
-0.0825699791312217,1.1627906560897827,-0.3814596533775329,-0.4267539978027344,-0.2235855758190155,-0.2168031930923462,0.0,0.0,-0.8357568979263306,0.025996446609497
-0.0865697860717773,1.1531329154968262,-0.3893752694129944,-0.4308847784996032,-0.2343400567770004,-0.2150895148515701,0.0,0.0,-0.7339083552360535,-0.2793958187103271
-0.0906454101204872,1.143383502960205,-0.3970654904842376,-0.4350152909755707,-0.2450085282325744,-0.2133691310882568,0.0,0.0,-0.5907726883888245,0.0949012041091919
-0.0947944670915603,1.133542537689209,-0.4045155048370361,-0.439145565032959,-0.2555907070636749,-0.2116436511278152,0.0,0.0,-0.7338855266571045,-0.1951531767845153
-0.0990143790841102,1.123610019683838,-0.411710113286972,-0.4432756006717682,-0.2660863995552063,-0.2099146544933319,0.0,0.0,-0.358132004737854,-0.0115400552749633
-0.1033022850751876,1.1135857105255127,-0.4186335206031799,-0.4474053680896759,-0.2764956355094909,-0.2081841975450515,0.0,0.0,-0.7847442626953125,0.0925307273864746
-0.1076554283499717,1.1034698486328125,-0.4252691864967346,-0.4515348970890045,-0.2868183553218841,-0.2064544260501861,0.0,0.0,-0.7099160552024841,0.8247411251068115
-0.112012006342411,1.0932317972183228,-0.4241628646850586,-0.4573222994804382,-0.2986606955528259,-0.2368469536304474,0.0,0.0,-0.6255704164505005,-0.6637548804283142
-0.1164731979370117,1.0829287767410278,-0.4359782338142395,-0.460025280714035,-0.3091470003128052,-0.2097260951995849,0.0,0.0,-0.5621178150177002,-0.2942817807197571
-0.1209897994995117,1.0725339651107788,-0.4416492879390716,-0.4641546607017517,-0.3195476233959198,-0.2080123126506805,0.0,0.0,-0.7282183766365051,0.2506947517395019
-0.1255585700273513,1.0620474815368652,-0.4469639658927917,-0.4682838022708893,-0.329863041639328,-0.2063086032867431,0.0,0.0,-0.6162044405937195,0.4354232549667358
-0.1301755011081695,1.051469326019287,-0.451904684305191,-0.4724127352237701,-0.3400939106941223,-0.2046173810958862,0.0,0.0,-0.4882391691207886,0.3346648216247558
-0.1348367631435394,1.040799260139465,-0.4564539790153503,-0.4765414595603943,-0.3502409756183624,-0.2029411792755127,0.0,0.0,-0.4706484079360962,0.7012078762054443
-0.1394800245761871,1.0299973487854004,-0.4531699120998382,-0.4828450083732605,-0.3619839549064636,-0.2348597049713134,0.0,0.0,-0.8086193203926086,0.2858400344848633
-0.144159123301506,1.019103765487671,-0.4568873047828674,-0.4869762063026428,-0.3736449778079986,-0.2332202494144439,0.0,0.0,-0.5763051509857178,0.2095687389373779
-0.1488697081804275,1.0081191062927246,-0.4601635336875915,-0.4911071062088012,-0.3852251470088959,-0.2316031903028488,0.0,0.0,-0.3946878910064697,0.2203294038772583
-0.1536072790622711,0.9970425963401794,-0.4629835486412048,-0.495237797498703,-0.3967257142066955,-0.230010837316513,0.0,0.0,-0.7166880965232849,0.4460409879684448
-0.1583670675754547,0.9858747720718384,-0.4653332233428955,-0.499368280172348,-0.4081479609012604,-0.2284452021121978,0.0,0.0,-0.2086259126663208,0.1833364963531494
-0.1631443053483963,0.974615216255188,-0.4671997129917145,-0.5034985542297363,-0.4194933772087097,-0.2269082367420196,0.0,0.0,-0.5354945063591003,0.4231817722320556
-0.1679339408874511,0.9632641077041626,-0.4685715734958648,-0.5076286196708679,-0.4307634532451629,-0.2254016101360321,0.0,0.0,-0.5089938044548035,0.163081407546997
-0.1727311164140701,0.951821267604828,-0.4694390892982483,-0.5117585062980652,-0.441959798336029,-0.2239269316196441,0.0,0.0,0.0437613725662231,-0.062808871269226
-0.177294448018074,0.9407178163528442,-0.4465548098087311,-0.4966112077236175,-0.4526649117469787,-0.2141021192073822,0.0,0.0,-0.6040266752243042,0.8414911031723022
-0.1817996948957443,0.9294885993003844,-0.4394235610961914,-0.5027215480804443,-0.4648816883563995,-0.24433533847332,0.0,0.0,-0.521253228187561,-0.6932255625724792
-0.1863376647233963,0.9181942343711852,-0.4438966810703277,-0.5053206086158752,-0.4758471846580505,-0.219310000538826,0.0,0.0,-0.4591420888900757,0.8328065872192383
-0.1908017098903656,0.9067701697349548,-0.4350528717041015,-0.5116881728172302,-0.4884918928146362,-0.2528940439224243,0.0,0.0,0.499333381652832,-0.0926626920700073
-0.1949200630187988,0.8957456946372986,-0.4011736512184143,-0.4938048124313354,-0.500446081161499,-0.2390824854373932,0.0,0.0,0.4044408798217773,0.489567756652832
-0.198893740773201,0.8852152228355408,-0.3864922523498535,-0.4720305502414703,-0.5127125978469849,-0.2453308403491974,0.0,0.0,0.8745980262756348,-0.2866684198379516
-0.2023016959428787,0.8756967782974243,-0.3304995596408844,-0.4269527494907379,-0.5244241952896118,-0.2342319041490554,0.0,0.0,0.6149485111236572,-0.771285355091095
-0.2052679508924484,0.8668788075447083,-0.2880919575691223,-0.3952369093894958,-0.5341864228248596,-0.1952450424432754,0.0,0.0,0.2459720373153686,-0.6298419833183289
-0.2078655660152435,0.8587655425071716,-0.25257408618927,-0.363448828458786,-0.5424474477767944,-0.1652195006608963,0.0,0.0,0.7914812564849854,-0.4814870953559875
-0.2100504338741302,0.851718544960022,-0.2110518217086792,-0.3162160217761993,-0.5510340929031372,-0.1717326641082763,0.0,0.0,0.9708518981933594,-0.6589058041572571
-0.2119457274675369,0.8451277613639832,-0.1835189014673233,-0.295406699180603,-0.5580069422721863,-0.1394568830728531,0.0,0.0,0.9960265159606934,-0.8338812589645386
-0.2135048359632492,0.8396825194358826,-0.151280328631401,-0.2439504116773605,-0.5634022355079651,-0.1079057082533836,0.0,0.0,0.9848630428314208,-0.7599993348121643
-0.2145898342132568,0.8348495364189148,-0.1056206971406936,-0.2160219699144363,-0.5667707920074463,-0.0673707276582717,0.0,0.0,0.9358220100402832,-0.5132218599319458
-0.2152365744113922,0.8308414816856384,-0.0628497824072837,-0.1789083480834961,-0.5689049363136292,-0.0426831878721714,0.0,0.0,0.1538447141647339,-0.9142186045646667
-0.2157239466905594,0.8271409273147583,-0.048619620501995,-0.1645225882530212,-0.569044291973114,-0.0027873825747519,0.0,0.0,0.1274272203445434,-0.9072384238243104
-0.2160671204328537,0.8239942193031311,-0.0359068289399147,-0.1391726583242416,-0.567184567451477,0.0371949076652526,0.0,0.0,0.3994975090026855,-0.8820706009864807
-0.2159841954708099,0.8217191100120544,0.005022985395044,-0.0997363403439521,-0.5633576512336731,0.0765385031700134,0.0,0.0,-0.3072602748870849,-0.7388627529144287
-0.2158694714307785,0.8193835616111755,0.0069894245825707,-0.1019302755594253,-0.5581363439559937,0.1044262796640396,0.0,0.0,-0.4909528493881225,-0.8838753700256348
-0.2157264202833175,0.8170158863067627,0.0082111684605479,-0.1027017086744308,-0.5510525107383728,0.1416765749454498,0.0,0.0,-0.5111212134361267,-0.9661213159561156
-0.2155751287937164,0.8146209120750427,0.0069027915596961,-0.1031073853373527,-0.5415518879890442,0.1900127828121185,0.0,0.0,-0.575147807598114,-0.9018816351890564
-0.215404987335205,0.8121999502182007,0.0067777200601994,-0.1035384163260459,-0.5297934412956238,0.2351685315370559,0.0,0.0,-0.40353524684906,-0.9150984883308412
-0.2152026146650314,0.8097407221794128,0.0082697877660393,-0.1046937331557273,-0.5161508917808533,0.272851288318634,0.0,0.0,-0.5622439980506897,-0.5979506969451904
-0.2149543315172195,0.8072385191917419,0.0113614425063133,-0.1061942502856254,-0.5009250640869141,0.3045160472393036,0.0,0.0,-0.7511153221130371,-0.5566909909248352
-0.2146439999341964,0.8046737313270569,0.0164963640272617,-0.1087764576077461,-0.484633207321167,0.3258371949195862,0.0,0.0,-0.2679446935653686,-0.4674558043479919
-0.2142358273267746,0.8020192980766296,0.0261262319982051,-0.1129175052046775,-0.4683080613613128,0.3265027999877929,0.0,0.0,-0.6368415951728821,-0.7323921918869019
-0.2137753516435623,0.7993027567863464,0.029977723956108,-0.1154227182269096,-0.4506008625030517,0.3541439175605774,0.0,0.0,-0.5981279611587524,-0.0658522248268127
-0.2132127732038498,0.7964969277381897,0.0400255508720874,-0.1195679157972335,-0.4328634142875671,0.3547488749027252,0.0,0.0,-0.7958200573921204,-0.1138696670532226
-0.2125461548566818,0.7936021685600281,0.050261951982975,-0.1237134933471679,-0.4150971472263336,0.3553252220153808,0.0,0.0,-0.6988810300827026,-0.0921455025672912
-0.2117739617824554,0.7906181216239929,0.0606733933091163,-0.127859428524971,-0.3973034620285034,0.3558738529682159,0.0,0.0,-0.8633773326873779,-0.1065916419029235
-0.2108944952487945,0.7875450849533081,0.0712471455335617,-0.1320057064294815,-0.3794836699962616,0.3563956320285797,0.0,0.0,-0.631747305393219,-0.0941250324249267
-0.2099063396453857,0.784383237361908,0.0819712430238723,-0.1361523121595382,-0.3616391122341156,0.3568913638591766,0.0,0.0,-0.9467439651489258,0.0698592662811279
-0.2088081836700439,0.7811324000358582,0.0928344279527664,-0.1402992457151413,-0.3437710404396057,0.3573617339134216,0.0,0.0,-0.938098967075348,0.4696775674819946
-0.2075988799333572,0.7777928709983826,0.1038262024521827,-0.1444464772939682,-0.3258806765079498,0.3578074872493744,0.0,0.0,-0.9526808261871338,0.6654870510101318
-0.2062314450740814,0.7743439078330994,0.1206906884908676,-0.149758979678154,-0.309201717376709,0.3335794806480407,0.0,0.0,-0.9782822132110596,0.1011067628860473
-0.2047508209943771,0.7708057761192322,0.1319125890731811,-0.153903380036354,-0.2925027012825012,0.3339801430702209,0.0,0.0,-0.9880940318107604,0.7726820707321167
-0.2030892372131347,0.7671478390693665,0.1516535282135009,-0.1597314625978469,-0.277582436800003,0.2984060943126678,0.0,0.0,-0.9861595630645752,-0.1189794540405273
-0.201312780380249,0.7634000182151794,0.1630716472864151,-0.1638717204332351,-0.2626441717147827,0.2987653613090515,0.0,0.0,-0.9951767921447754,0.1273524761199951
-0.1994204521179199,0.7595622539520264,0.1745754182338714,-0.1680121421813964,-0.2476889789104461,0.2991039156913757,0.0,0.0,-0.9930065870285034,0.3795579671859741
-0.1974117308855056,0.7556344866752625,0.1861581355333328,-0.1721527129411697,-0.2327178865671157,0.2994219064712524,0.0,0.0,-0.9944968223571776,0.1883158683776855
-0.1952857077121734,0.751616895198822,0.1978134661912918,-0.1762934178113937,-0.2177318930625915,0.2997196018695831,0.0,0.0,-0.9968866109848022,0.3337633609771728
-0.1930418908596038,0.7475093603134155,0.2095356285572052,,-0.2027320265769958,0.2999970316886902,0.0,0.0,-0.998878002166748,0.3308534622192383
-0.1906795501708984,0.7433120608329773,0.221319243311882,-0.1845752745866775,-0.1877193003892898,0.3002541363239288,0.0,0.0,-0.9977697134017944,0.7121473550796509
-0.1881312429904937,0.7390081286430359,0.2415785789489746,-0.1896615773439407,-0.1744178086519241,0.2660298943519592,0.0,0.0,-0.9972447156906128,0.311991810798645
-0.1854636222124099,0.7346137166023254,0.2534716725349426,-0.1937987655401229,-0.1611053943634033,0.2662481665611267,0.0,0.0,-0.9993491768836976,0.5053417682647705
-0.1826403588056564,0.730118453502655,0.2699185311794281,-0.1984893232583999,-0.1487074047327041,0.2479596883058548,0.0,0.0,-0.9995772838592528,0.6686131954193115
-0.1796364784240722,0.7255269885063171,0.2894716262817383,-0.2030213326215744,-0.1378215849399566,0.2177161872386932,0.0,0.0,-0.998338520526886,0.2268588542938232
-0.1765121519565582,0.7208442091941833,0.301496684551239,-0.2071538269519806,-0.126927837729454,0.217874675989151,0.0,0.0,-0.9964145421981812,0.5286544561386108
-0.1732337027788162,0.7160685658454895,0.3177304863929748,-0.2114249020814895,-0.1168626695871353,0.2013034075498581,0.0,0.0,-0.989958882331848,0.4234960079193115
-0.1698340475559234,0.711201548576355,0.3298254311084747,-0.2155560404062271,-0.1067917197942733,0.2014192044734954,0.0,0.0,-0.9933868050575256,-0.1267843842506408
-0.1663129776716232,0.7062429785728455,0.3419506847858429,-0.219687208533287,-0.0967160984873771,0.201512336730957,0.0,0.0,-0.9939929842948914,0.5469744205474854
-0.1626328527927398,0.7011913657188416,0.3587923943996429,-0.2239463180303573,-0.0875762701034545,0.1827966272830963,0.0,0.0,-0.9687377214431764,0.3602809906005859
-0.1588308364152908,0.6960481405258179,0.3709704875946045,-0.2280760258436203,-0.0784341618418693,0.1828420460224151,0.0,0.0,-0.9900045990943908,0.4363700151443481
-0.1549068391323089,0.6908133029937744,0.3831711709499359,-0.2322057634592056,-0.0692910626530647,0.1828618347644806,0.0,0.0,-0.9759836792945862,-0.1467280387878418
-0.1508605033159256,0.6854867935180664,0.3953922390937805,-0.2363355010747909,-0.0601483285427093,0.1828546971082687,0.0,0.0,-0.9779298901557922,0.2232255935668945
-0.1466917097568512,0.6800686120986938,0.4076316356658935,-0.2404652386903762,-0.0510073527693748,0.1828192770481109,0.0,0.0,-0.9811493158340454,0.0807400941848754
-0.1424003541469574,0.6745588183403015,0.4198873937129974,-0.244595006108284,-0.0418696403503418,0.1827540695667266,0.0,0.0,-0.9847928285598756,0.0757637023925781
-0.1379863768815994,0.6689574122428894,0.4321576058864593,-0.2487247735261917,-0.0327367633581161,0.1826575100421905,0.0,0.0,-0.9881277680397034,-0.7102251052856445
-0.1335077285766601,0.663273274898529,0.4371372759342193,-0.2524323761463165,-0.0221433248370885,0.2118687331676483,0.0,0.0,-0.9846058487892152,-0.8757081627845764
-0.128958985209465,0.6575098633766174,0.4428127706050873,-0.2560149729251861,-0.01022844389081,0.238297551870346,0.0,0.0,-0.9955975413322448,0.0209207534790039
-0.124287225306034,0.6516557931900024,0.4551158845424652,-0.2601496279239654,0.0016763139283284,0.2380949705839157,0.0,0.0,-0.9947722554206848,-0.8220535516738892
-0.1195583343505859,0.6457189917564392,0.4591659009456634,-0.2639276683330536,0.0152231445536017,0.2709368467330932,0.0,0.0,-0.9931519031524658,0.1493921279907226
-0.1147064194083213,0.6396920084953308,0.4714833796024322,-0.2680657804012298,0.0287558268755674,0.2706536650657654,0.0,0.0,-0.9962711930274964,-0.6915866732597351
-0.1097787842154502,0.6335691213607788,0.4778665900230407,-0.2724711298942566,0.0434640534222126,0.2941645383834839,0.0,0.0,-0.9879106879234314,-0.291898250579834
-0.1047283187508583,0.6273564100265503,0.490192711353302,-0.2766119539737701,0.0581537075340747,0.2937926948070526,0.0,0.0,-0.9769728779792786,-0.8970670700073242
-0.0996407493948936,0.621044397354126,0.4917418956756592,-0.2812761068344116,0.0749889016151428,0.3367040455341339,0.0,0.0,-0.9705407619476318,-0.9510357975959778
-0.0945079773664474,0.6146345734596252,0.4943202435970306,-0.2859353423118591,0.0937624275684356,0.3754705488681793,0.0,0.0,-0.9701260924339294,-0.8912465572357178
-0.0893197059631347,0.608126163482666,0.4982288777828216,-0.2906887233257293,0.1142100989818573,0.4089531302452087,0.0,0.0,-0.9497726559638976,-0.943531334400177
-0.0840662941336631,0.60151207447052,0.503332793712616,-0.295784056186676,0.1361067146062851,0.4379322528839111,0.0,0.0,-0.7360643744468689,-0.9552375078201294
-0.0787536650896072,0.5948034524917603,0.5077440738677979,-0.3004781901836395,0.1595692038536071,0.4692496657371521,0.0,0.0,-0.4674606323242187,-0.9221222996711732
-0.0733891502022743,0.5880017280578613,0.5113095045089722,-0.305187314748764,0.1847608536481857,0.5038332343101501,0.0,0.0,-0.4211782813072204,-0.9695249795913696
