x_pos,y_pos,x_vel,y_vel,angle,ang_vel,leg_1,leg_2,main_booster,lat_booster
-0.0015536308055743,1.403263807296753,-0.1570902615785598,-0.3402824401855469,0.0015464260941371,0.0304886009544134,0.0,0.0,0.179044582791459,0.8003703571223884
-0.0030312538146972,1.3957600593566897,-0.1474836468696594,-0.3335011601448059,0.0012715978082269,-0.0054966220632195,0.0,0.0,-0.0836679244002118,-0.6581247354553079
-0.0045763971284031,1.387890100479126,-0.1550154685974121,-0.3497773706912994,0.0017731565749272,0.0100321415811777,0.0,0.0,0.5239165186343735,0.6753911859618067
-0.0062152864411473,1.3803483247756958,-0.1625421345233917,-0.3351907432079315,0.0004409324610605,-0.0266470499336719,0.0,0.0,-0.9095934809811608,0.7691414506232154
-0.0078048706054687,1.372448205947876,-0.1555166095495224,-0.3511185646057129,-0.0029657564591616,-0.0681401193141937,0.0,0.0,0.9464307960461468,0.9547975510390084
-0.0091612813994288,1.365144968032837,-0.1304055303335189,-0.3246065378189087,-0.008141916245222,-0.1035326570272445,0.0,0.0,0.7659290867839192,-0.9184351410051296
-0.0106328008696436,1.3584082126617432,-0.1434908211231231,-0.2994357645511627,-0.0117652602493762,-0.0724735632538795,0.0,0.0,0.9755788178419298,0.9199873073554548
-0.0118457796052098,1.3524693250656128,-0.1159816980361938,-0.2640042901039123,-0.0170233640819787,-0.1051719337701797,0.0,0.0,0.8147632213664566,0.9222583762314742
-0.0130031583830714,1.3475573062896729,-0.1083370670676231,-0.2184148877859115,-0.024339796975255,-0.1463420093059539,0.0,0.0,0.7010605510011121,-0.9770951759778904
-0.0142366411164402,1.343415379524231,-0.1177001446485519,-0.1841835230588913,-0.0299196764826774,-0.1116080656647682,0.0,0.0,0.8907048190886626,-0.9122123502597606
-0.0154277803376317,1.3399320840835571,-0.1153162866830825,-0.15489262342453,-0.0336757227778434,-0.0751276016235351,0.0,0.0,-0.1888264958741061,0.7146827537553958
-0.016569709405303,1.3360836505889893,-0.1086140275001525,-0.1711728125810623,-0.0392006039619445,-0.1105076894164085,0.0,0.0,0.8919334890971733,-0.9782713901634328
-0.0176036842167377,1.3330755233764648,-0.0998856127262115,-0.1337952762842178,-0.0426737442612648,-0.0694691464304924,0.0,0.0,0.0513644303390954,0.7308729219765846
-0.0185309406369924,1.3300317525863647,-0.0876259207725524,-0.1354361474514007,-0.047726035118103,-0.101054847240448,0.0,0.0,-0.6887202714589704,-0.8474925718986173
-0.0195184703916311,1.3266398906707764,-0.0947991758584976,-0.1508756279945373,-0.0516454242169857,-0.0783943906426429,0.0,0.0,0.8200777827203685,0.6207483072373213
-0.0203190799802541,1.323357343673706,-0.0750521570444107,-0.1460752785205841,-0.0566036626696586,-0.0991739481687545,0.0,0.0,0.5270446662513608,0.752283880509059
-0.0208812709897756,1.320890188217163,-0.0498266816139221,-0.1099008545279502,-0.0629347637295723,-0.1266337037086486,0.0,0.0,-0.4053355509175198,-0.9670541303246404
-0.0215073581784963,0.0,-0.0575739815831184,-0.1260029524564743,-0.0679260045289993,-0.0998337343335151,0.0,0.0,0.5955664291207183,0.7323373916612638
-0.0219241138547658,1.3160206079483032,-0.0352550223469734,-0.0909483358263969,-0.0742819011211395,-0.1271295249462127,0.0,0.0,-0.7698148276093622,-0.6511984202663152
-0.0224018096923828,1.313626766204834,-0.0427401401102542,-0.1066463142633438,-0.0792704224586486,-0.0997796803712844,0.0,0.0,-0.8989970935931486,-0.8220336346761037
-0.0229318626224994,1.310884952545166,-0.0491949804127216,-0.122072197496891,-0.0830576568841934,-0.0757512673735618,0.0,0.0,0.084205538791604,-0.613303350411616
-0.0234784130007028,0.0,-0.0520016178488731,-0.1186801344156265,-0.0856888964772224,-0.0526294633746147,0.0,0.0,-0.2654566183684481,-0.6930587606693532
-0.0240674018859863,1.3051949739456177,-0.0572717860341072,-0.1344520449638366,-0.0872998312115669,-0.0322218537330627,0.0,0.0,-0.1682310183629549,0.9419620941410236
-0.0245725624263286,1.3017902374267578,-0.0467406883835792,-0.1515538394451141,-0.0910556986927986,-0.0751242563128471,0.0,0.0,-0.1544750134954906,0.6029136043334777
-0.0250388141721487,1.2980215549468994,-0.0418841168284416,-0.1677916347980499,-0.0957606956362724,-0.0941081941127777,0.0,0.0,0.0390480022601211,0.7810190200816614
-0.0255048759281635,1.2945430278778076,-0.0402302145957946,-0.1550256162881851,-0.1020866781473159,-0.1265193670988083,0.0,0.0,-0.6749644194115645,0.6235230440993837
-0.025916863232851,1.2907006740570068,-0.0335688292980194,-0.1713104546070099,-0.1096656695008277,-0.1515797674655914,0.0,0.0,0.5162899579312508,0.7545347723579124
-0.0263128280639648,1.2876478433609009,-0.0302455481141805,-0.1364012062549591,-0.1189630106091499,-0.1859468221664428,0.0,0.0,-0.2976162579544363,0.6452153266318441
-0.0266627315431833,1.2842336893081665,-0.0246518608182668,-0.1526003032922744,-0.1292396783828735,-0.2055332958698272,0.0,0.0,0.7637722312850952,-0.9149761218902088
-0.0270355232059955,1.2812495231628418,-0.02878999710083,-0.1333871781826019,-0.1376882046461105,-0.1689704209566116,0.0,0.0,0.4056340799019771,0.9249623724803804
-0.0272105224430561,1.2789674997329712,-0.0072453743778169,-0.1024025529623031,-0.1479066312313079,-0.2043690979480743,0.0,0.0,-0.7800794526703152,0.7564572223051347
-0.027326202020049,1.2763103246688845,-9.765355207491666e-05,-0.1192773580551147,-0.1593728363513946,-0.229324072599411,0.0,0.0,-0.5115321636563908,-0.7789505290126406
-0.0275016780942678,1.2733176946640017,-0.0079478556290268,-0.1340656578540802,-0.1689753532409668,-0.1920504570007324,0.0,0.0,-0.0959042202384528,0.9420950700268552
-0.0276034362614154,1.2699402570724487,0.0009935070993378,-0.1514151245355606,-0.1801701337099075,-0.223895639181137,0.0,0.0,0.3825722172630963,0.6363218684044649
-0.0275372508913278,1.2669620513916016,0.0188924111425876,-0.1339006274938583,-0.1924975216388702,-0.2465478479862213,0.0,0.0,0.7492841774633474,0.978107176020012
-0.0272098537534475,1.2647830247879028,0.0467639416456222,-0.0987305790185928,-0.206626757979393,-0.2825847268104553,0.0,0.0,-0.899384796392072,-0.9340536799578688
-0.026948357000947,1.2622641324996948,0.038064356893301,-0.1136588156223297,-0.2186595499515533,-0.2406558990478515,0.0,0.0,-0.3218516576309163,-0.911425442394874
-0.0267413146793842,1.259414553642273,0.0307330675423145,-0.1281673461198806,-0.2288160324096679,-0.2031295746564865,0.0,0.0,-0.2393261342258068,0.8004915478219182
-0.0264651291072368,1.2561938762664795,0.0389494262635707,-0.1449416726827621,-0.2403100281953811,-0.2298799008131027,0.0,0.0,0.9179944062497888,-0.738391813317463
-0.0260324478149414,1.253650784492493,0.0528436824679374,-0.114632062613964,-0.2500567138195038,-0.194933995604515,0.0,0.0,0.5212902122394174,0.7676174004111964
-0.0254579540342092,1.2518136501312256,0.0685101374983787,-0.0835662260651588,-0.2613441050052643,-0.2257477939128875,0.0,0.0,-0.6528674364089966,-0.9969810247421264
-0.024934196844697,1.249638915061951,0.0616575703024864,-0.0983432456851005,-0.2708350718021393,-0.1898193359375,0.0,0.0,-0.9714471697807312,-0.9989629983901978
-0.0244662277400493,1.247119426727295,0.0542047843337059,-0.1133651211857795,-0.2784352898597717,-0.1520039588212967,0.0,0.0,-0.9192333221435548,-0.9964257478713988
-0.024052333086729,1.2442641258239746,0.046944111585617,-0.1279676854610443,-0.2841375172138214,-0.1140447258949279,0.0,0.0,-0.9647831916809082,-0.997992753982544
-0.0237122531980276,1.241071701049805,0.0372446291148662,-0.1425226479768753,-0.2874686121940613,-0.0666216760873794,0.0,0.0,-0.923516809940338,-0.996490478515625
-0.0234352108091115,1.2375388145446775,0.0289117954671382,,-0.288712739944458,-0.0248818937689065,0.0,0.0,-0.9771729707717896,-0.9944666028022766
-0.0232188217341899,1.2336692810058594,0.0208649598062038,-0.1718247681856155,-0.2879121899604797,0.0160111095756292,0.0,0.0,-0.9333530068397522,-0.991840660572052
-0.0230817794799804,1.2294878959655762,0.0103535475209355,-0.1851818412542343,-0.2844695746898651,0.0688531473278999,0.0,0.0,-0.9438403844833374,-0.98562753200531
-0.0230273250490427,1.2249934673309326,-0.0005294411676004,-0.1986003369092941,-0.2783294320106506,0.1228029727935791,0.0,0.0,-0.9755208492279052,-0.8607955574989319
-0.0230348594486713,1.2201646566390991,-0.0087453331798315,-0.2131126821041107,-0.2701312303543091,0.1639640033245086,0.0,0.0,-0.9703407883644104,-0.9435898065567015
-0.0230917930603027,1.2149977684020996,-0.0153817255049943,-0.2278831750154495,-0.2602184116840362,0.1982561498880386,0.0,0.0,-0.9723576307296752,-0.739899218082428
-0.0232050903141498,1.2095001935958862,-0.0229270122945308,-0.2423224002122879,-0.2483974546194076,0.2364194691181183,0.0,0.0,-0.9082617163658142,-0.3227269649505615
-0.0233150478452444,1.203642964363098,-0.0228801798075437,-0.2583584487438202,-0.2363082617521286,0.241783857345581,0.0,0.0,-0.91933935880661,-0.1989209651947021
-0.0234225280582904,1.1974259614944458,-0.022944388911128,-0.2743953168392181,-0.2239464521408081,0.2472365647554397,0.0,0.0,-0.9304682612419128,-0.4214619398117065
-0.023528765887022,1.190849781036377,-0.0231265611946582,-0.290432870388031,-0.2113078385591507,0.2527723014354706,0.0,0.0,-0.6822757124900818,-0.5022170543670654
-0.0236802101135253,1.1839264631271362,-0.0291156414896249,-0.3057604134082794,-0.1972196102142334,0.2817647159099579,0.0,0.0,-0.9593433737754822,0.186103343963623
-0.0238327030092477,1.1766445636749268,-0.0295548401772975,-0.3218022882938385,-0.1828470230102539,0.2874518930912018,0.0,0.0,-0.917144536972046,0.1207011938095092
-0.0239879600703716,1.1690040826797483,-0.0301319472491741,-0.3378451764583587,-0.1681865751743316,0.2932091057300567,0.0,0.0,-0.960594892501831,0.7853884696960449
-0.0240772254765033,1.1609951257705688,-0.0221191402524709,-0.3545129597187042,-0.1549987494945526,0.2637566030025482,0.0,0.0,-0.9021653532981871,0.4683220386505127
-0.0241721160709857,1.1526273488998413,-0.0229898821562528,-0.3705537915229797,-0.1415164917707443,0.2696450352668762,0.0,0.0,-0.8043656945228577,0.8768205642700195
-0.0242002494633197,1.1438767910003662,-0.0147345783188939,-0.3878189325332641,-0.1296424716711044,0.2374807149171829,0.0,0.0,-0.9576902985572816,0.5259312391281128
-0.024202536791563,1.1347631216049194,-0.0115828048437833,-0.4041124284267425,-0.1183423623442649,0.2260024100542068,0.0,0.0,-0.9227687120437622,0.8493121862411499
-0.0241349227726459,1.1252731084823608,-0.0028623293619602,-0.4210450053215027,-0.1087827906012535,0.1911913901567459,0.0,0.0,-0.7984278798103333,0.8096712827682495
-0.0240132324397563,1.1154133081436155,0.0039241085760295,-0.437631607055664,-0.1005951762199401,0.1637521535158157,0.0,0.0,-0.8516565561294556,0.9340697526931764
-0.0238314624875783,1.1051751375198364,0.0115213673561811,-0.4545996487140655,-0.0939881801605224,0.1321398913860321,0.0,0.0,-0.8915826678276062,0.5833189487457275
-0.0236287117004394,1.0945714712142944,0.014217460528016,-0.4709043502807617,-0.087993748486042,0.1198886409401893,0.0,0.0,-0.8255961537361145,0.7798202037811279
-0.0233794208616018,1.0836076736450195,0.0201853476464748,-0.4870024621486664,-0.0832923501729965,0.0940280854701995,0.0,0.0,-0.961540937423706,0.4418187141418457
-0.0231495853513479,1.072283387184143,0.017920833081007,-0.503032386302948,-0.0782751739025116,0.1003435403108596,0.0,0.0,-0.7993593811988831,0.5392148494720459
-0.0228961948305368,1.0605992078781128,0.0210723746567964,-0.5190777778625488,-0.0740604326128959,0.0842946097254753,0.0,0.0,-0.8334840536117554,0.1015652418136596
-0.0226662643253803,1.048554301261902,0.0184166003018617,-0.5351075530052185,-0.0695254579186439,0.0906995832920074,0.0,0.0,-0.8070821166038513,0.7319598197937012
-0.0224123951047658,1.036146640777588,0.0217202734202146,-0.5512875318527222,-0.0659025162458419,0.0724591240286827,0.0,0.0,-0.9481038451194764,0.3437137603759765
-0.0221858024597167,1.0233783721923828,0.0186622999608516,-0.567317008972168,-0.0619550831615924,0.0789485126733779,0.0,0.0,-0.8608413934707642,0.5564882755279541
-0.021953772753477,1.0102521181106567,0.0197613593190908,-0.5832499861717224,-0.0585505738854408,0.068090058863163,0.0,0.0,-0.7200949192047119,0.2282507419586181
-0.0217530243098735,0.9967649579048156,0.0162935797125101,-0.599279522895813,-0.0548175908625125,0.0746596977114677,0.0,0.0,-0.887371301651001,0.3918684720993042
-0.021585751324892,0.9829171895980836,0.0126191126182675,-0.615309476852417,-0.0507541894912719,0.0812679752707481,0.0,0.0,-0.93161541223526,0.3373633623123169
-0.0214539524167776,0.9687089323997498,0.0087373694404959,-0.6313397288322449,-0.0463584922254085,0.0879138559103012,0.0,0.0,-0.9128920435905457,0.7735573053359985
-0.0213019363582134,0.9541279673576356,0.0118949962779879,-0.6479377150535583,-0.0430883541703224,0.0654026418924331,0.0,0.0,-0.9589918851852416,0.416656494140625
-0.0211894027888774,0.9391864538192748,0.007598758675158,-0.663967490196228,-0.0394823104143142,0.0721210092306137,0.0,0.0,-0.91908597946167,0.5199296474456787
-0.0210718158632516,0.9238867163658142,0.008954269811511,-0.6799210906028748,-0.0367097146809101,0.0554519370198249,0.0,0.0,-0.9686106443405152,0.7297039031982422
-0.020950699225068,0.9082309007644652,0.010156063362956,-0.6957694292068481,-0.03477793186903,0.0386355184018611,0.0,0.0,-0.9449593424797058,-0.250937283039093
-0.0208751671016216,0.892214298248291,0.0052444553002715,-0.7117989659309387,-0.0325051732361316,0.0454551614820957,0.0,0.0,-0.8975803256034851,-0.0647085309028625
-0.0208474155515432,0.8758367896080017,0.0001310556253883,-0.7278287410736084,-0.0298898424953222,0.0523065701127052,0.0,0.0,-0.8463525772094727,0.4764820337295532
-0.0208691600710153,0.8590986728668213,-0.0051818140782415,-0.7438586950302124,-0.0269304066896438,0.0591886937618255,0.0,0.0,-0.8098616600036621,0.5392086505889893
-0.0209038741886615,0.8420006632804871,-0.0058222361840307,-0.7598755359649658,-0.0246000234037637,0.0466077700257301,0.0,0.0,-0.4197558164596557,0.6478347778320312
-0.0209417343139648,0.8245431184768677,-0.0052169230766594,-0.7758620977401733,-0.0231852252036333,0.02829584851861,0.0,0.0,-0.4961264133453369,0.8050057888031006
-0.0209620483219623,0.8067225217819214,-0.0019618622027337,-0.7920268177986145,-0.0232549048960208,-0.0013937905896455,0.0,0.0,-0.3628000020980835,0.3925002813339233
-0.021039580926299,0.7885412573814392,-0.0080424230545759,-0.8080564141273499,-0.022974893450737,0.0056004943326115,0.0,0.0,0.2984448671340942,0.8699049949645996
-0.0210167877376079,0.7704620361328125,0.0033257354516535,-0.8035373091697693,-0.0240038186311721,-0.0205785259604454,0.0,0.0,0.5062384605407715,-0.5939562916755676
-0.0209437366575002,0.7527990937232971,0.0064605795778334,-0.7850094437599182,-0.0231675077229738,0.0167262237519025,0.0,0.0,-0.5758898854255676,0.377092957496643
-0.0209331512451171,0.7347752451896667,-0.0001558510266477,-0.8010390400886536,-0.021977886557579,0.023792453110218,0.0,0.0,-0.2532057762145996,0.5623342990875244
-0.0209427829831838,0.7163932919502258,-0.0014059586683288,-0.8169678449630737,-0.0215414464473724,0.0087289158254861,0.0,0.0,0.0332632064819335,-0.0212870836257934
-0.0209888461977243,0.6983613967895508,-0.0054896431975066,-0.8014042973518372,-0.020660089328885,0.0176270268857479,0.0,0.0,-0.3862401247024536,0.7244548797607422
-0.0210330970585346,0.679969310760498,-0.0039175143465399,-0.817432701587677,-0.0211609788239002,-0.0100178951397538,0.0,0.0,0.0398900508880615,0.1141481399536132
-0.0210785865783691,0.6615225672721863,-0.0046991878189146,-0.8198530077934265,-0.0210110265761613,0.0029990253970026,0.0,0.0,0.0895357131958007,0.166365385055542
-0.0212222095578908,0.6432197690010071,-0.0147109348326921,-0.8134528398513794,-0.0206633452326059,0.0069533744826912,0.0,0.0,0.3163505792617798,0.3371880054473877
-0.0213561058044433,0.6255850195884705,-0.0144231263548135,-0.7837522625923157,-0.0196450073271989,0.0203669499605894,0.0,0.0,-0.2409663200378418,0.301311731338501
-0.0215633399784564,0.6075895428657532,-0.0221236366778612,-0.7997820377349854,-0.0182672534137964,0.027554914355278,0.0,0.0,0.2030482292175293,-0.1165199875831604
-0.0219253543764352,0.5901045203208923,-0.0375336408615112,-0.7770950198173523,-0.0169486384838819,0.0263720490038394,0.0,0.0,0.1452094316482544,0.3112345933914184
-0.02229480817914,0.5729827284812927,-0.0389259941875934,-0.7609460949897766,-0.0149904629215598,0.0391631349921226,0.0,0.0,0.3504958152770996,0.4548444747924804
-0.0227760318666696,0.5564211010932922,-0.0502625331282615,-0.7360531687736511,-0.0128738330677151,0.0423328913748264,0.0,0.0,0.0998159646987915,0.0602285861968994
-0.0233841892331838,0.5402474999427795,-0.0630735754966735,-0.7188100218772888,-0.0106507036834955,0.0444624833762645,0.0,0.0,0.3239490985870361,0.9365756511688232
-0.0240165702998638,0.5243077874183655,-0.0639524310827255,-0.7084267139434814,-0.0099440328776836,0.0141333220526576,0.0,0.0,0.5162956714630127,0.8422722816467285
-999.0,0.5088368654251099,-0.0752895027399063,-0.6876010298728943,-0.0107214916497468,-0.0155493440106511,0.0,0.0,-0.0043911933898925,0.8168216943740845
-0.0255713462829589,0.4930026233196258,-0.0777361094951629,-0.7037562131881714,-0.0123558659106493,-0.0326875001192092,0.0,0.0,0.4380689859390259,0.2219303846359253
-0.0263478271663188,0.4777441322803497,-0.0768005698919296,-0.6781615018844604,-0.0132021894678473,-0.0169263053685426,0.0,0.0,0.1038689613342285,0.9627931118011476
-0.0270798690617084,0.4624837934970855,-0.0707611143589019,-0.6782583594322205,-0.0156075814738869,-0.0481081344187259,0.0,0.0,0.112890601158142,0.3774733543395996
-0.0277905464172363,0.447631299495697,-0.0694523304700851,-0.660129189491272,-0.0171998720616102,-0.0318458043038845,0.0,0.0,0.8143516778945923,0.793756365776062
-0.028536319732666,0.4337019026279449,-0.0716787576675415,-0.6191190481185913,-0.020065851509571,-0.0573195628821849,0.0,0.0,0.4907876253128052,0.1044979095458984
-0.0292239189147949,0.4205642938613891,-0.066827043890953,-0.5839205384254456,-0.0219759996980428,-0.0382030755281448,0.0,0.0,-0.9428291916847228,0.6892666816711426
-0.0299368854612112,0.4070639908313751,-0.0681579560041427,-0.6000607013702393,-0.0250710863620042,-0.0619017891585826,0.0,0.0,0.8607263565063477,0.5457590818405151
-0.0306795127689838,0.3945861458778381,-0.0703706964850425,-0.554639995098114,-0.0289169438183307,-0.0769171118736267,0.0,0.0,0.3115291595458984,0.4800139665603637
-0.0314440727233886,0.3826830089092254,-0.0731457620859146,,-0.0321822017431259,-0.0653053000569343,0.0,0.0,-0.9923076629638672,0.9734416007995604
-0.0322100631892681,0.3704102039337158,-0.0714348033070564,-0.5455771684646606,-0.0372867174446582,-0.1020901352167129,0.0,0.0,-0.6139282584190369,0.0270397663116455
-0.0330653190612793,0.3577768802642822,-0.0807224139571189,-0.5616085529327393,-0.0420358218252658,-0.0949819236993789,0.0,0.0,-0.8217427134513855,-0.1005616188049316
-0.0340105071663856,0.3447828888893127,-0.0900607258081436,-0.5776394605636597,-0.0464309975504875,-0.087903544306755,0.0,0.0,-0.2475624680519104,0.2899987697601318
-0.0350458137691021,0.3314283490180969,-0.0994454473257064,-0.5936698913574219,-0.0504739210009574,-0.0808590129017829,0.0,0.0,0.903207778930664,0.7392615079879761
-0.0360501296818256,0.3186254799365997,-0.0952793508768081,-0.5691986083984375,-0.0555629394948482,-0.101780354976654,0.0,0.0,0.3074469566345215,0.4518476724624634
-0.0370265021920204,0.3058796226978302,-0.093327596783638,-0.5666519403457642,-0.0598257333040237,-0.0852558091282844,0.0,0.0,0.6355539560317993,-0.181135356426239
-0.0379575714468956,0.2937777936458587,-0.0895967036485672,-0.5380018353462219,-0.0632964521646499,-0.0694143921136856,0.0,0.0,0.3946689367294311,-0.6301256418228149
-0.0389636978507041,0.2823430597782135,-0.0987628102302551,-0.5082905888557434,-0.0651227161288261,-0.0365254692733287,0.0,0.0,-0.4163643717765808,0.8708951473236084
-0.0399863235652446,0.2705303430557251,-0.0988170951604843,-0.5251638889312744,-0.0685281902551651,-0.0681096166372299,0.0,0.0,-0.1552804708480835,-0.4758673906326294
