x_pos,y_pos,x_vel,y_vel,angle,ang_vel,leg_1,leg_2,main_booster,lat_booster
-0.0015222548972815,1.4034123420715332,-0.154167503118515,-0.3336841762065887,0.0017368565313518,0.0342588499188423,0.0,0.0,-0.2811784744262695,0.8912065029144287
-0.0029670714866369,1.3957111835479736,-0.1442139148712158,-0.3422721028327942,0.001479257363826,-0.0051516969688236,0.0,0.0,0.1113086938858032,0.8080239295959473
-0.0042428970336914,1.3881993293762207,-0.1257440745830536,-0.3338554203510284,-0.0003366051241755,-0.0363206230103969,0.0,0.0,-0.3258059024810791,0.0940462350845336
-0.0055165290832519,1.3804751634597778,-0.1254862844944,-0.3432961404323578,-0.0021923980675637,-0.037119273096323,0.0,0.0,-0.4788073301315307,0.4679700136184692
-0.0067877769470214,1.3725390434265137,-0.1252121329307556,-0.3527289628982544,-0.0040896539576351,-0.0379483774304389,0.0,0.0,-0.1576117873191833,0.9438045024871826
-0.0079655647277832,1.3643884658813477,-0.1134927049279213,-0.3622545897960663,-0.0083211120218038,-0.0846370905637741,0.0,0.0,-0.4989694356918335,-0.6136099100112915
-0.0091907503083348,1.3560268878936768,-0.1194743290543556,-0.3716546893119812,-0.011333025060594,-0.0602437779307365,0.0,0.0,-0.349586009979248,-0.1358563899993896
-0.0104132648557424,1.347452998161316,-0.1191709265112876,-0.381089299917221,-0.0143873989582061,-0.0610929429531097,0.0,0.0,-0.2117730379104614,0.1872437000274658
-0.0116332052275538,1.338666915893555,-0.1188660040497779,-0.3905238211154938,-0.0174820963293313,-0.0618994235992431,0.0,0.0,-0.0885977149009704,0.4599220752716064
-0.0128504754975438,1.3296687602996826,-0.1185633912682533,-0.3999582827091217,-0.0206160545349121,-0.0626847296953201,0.0,0.0,-0.7847417593002319,-0.4558547735214233
-0.0140651706606149,1.3204585313796997,-0.1182673349976539,-0.4093928635120392,-0.0237874947488307,-0.0634344369173049,0.0,0.0,-0.4847274422645569,0.6370787620544434
-0.0152213098481297,1.3110328912734983,-0.1109477654099464,-0.418997585773468,-0.0284051671624183,-0.0923620462417602,0.0,0.0,-0.3338805437088012,-0.5808221697807312
-0.0164108276367187,1.3013997077941897,-0.1151680797338485,-0.4282161295413971,-0.0321512334048748,-0.0749280080199241,0.0,0.0,0.0274649858474731,0.6151449680328369
-0.0174942016601562,1.2918751239776611,-0.1033469289541244,-0.4234220683574676,-0.0370849631726741,-0.0986834093928337,0.0,0.0,-0.434434711933136,-0.5925686359405518
-0.0186109542846679,1.2821468114852903,-0.1075834780931472,-0.4324774444103241,-0.041141714900732,-0.0811424627900123,0.0,0.0,-0.7418001294136047,0.3742604255676269
-0.0197258945554494,1.2722063064575195,-0.1073737740516662,-0.4419117271900177,-0.045220099389553,-0.0815749615430831,0.0,0.0,-0.7138307690620422,-0.3210323452949524
-0.0208391193300485,1.2620539665222168,-0.1071919351816177,-0.4513464868068695,-0.0493145957589149,-0.0818973556160926,0.0,0.0,-0.6946815848350525,-0.2906391620635986
-0.0219510085880756,1.2516895532608032,-0.1070417761802673,-0.4607822597026825,-0.0534201823174953,-0.0821190625429153,0.0,0.0,-0.7846271395683289,-0.3972362279891968
-0.0230617523193359,1.2411130666732788,-0.1069268807768821,-0.4702180624008178,-0.0575311593711376,-0.0822268649935722,0.0,0.0,-0.8996486067771912,0.4441981315612793
-0.0241717342287302,1.2303245067596436,-0.1068506091833114,-0.4796538650989532,-0.0616413690149784,-0.0822113752365112,0.0,0.0,-0.9575769901275636,0.2063994407653808
-0.0252812393009662,1.2193241119384766,-0.1068161502480506,-0.4890898466110229,-0.0657441616058349,-0.0820629745721817,0.0,0.0,-0.7344548106193542,-0.6635227203369141
-0.0264422409236431,1.208112716674805,-0.1132818683981895,-0.4984098970890045,-0.0685391798615455,-0.0559050031006336,0.0,0.0,-0.7635011076927185,-0.3345735073089599
-0.0276037212461233,1.196689248085022,-0.1133447438478469,-0.5078450441360474,-0.0713127478957176,-0.0554766729474067,0.0,0.0,-0.4982020258903503,-0.0418745875358581
-0.0287660602480173,1.185053467750549,-0.1134580001235008,-0.517280101776123,-0.0740561336278915,-0.0548726730048656,0.0,0.0,-0.056410789489746,-0.9121756553649902
-0.0300183296203613,1.1732176542282104,-0.1247725710272789,-0.5260512828826904,-0.0745158195495605,-0.0091944308951497,0.0,0.0,0.0992718935012817,0.6969379186630249
-0.0312935821712017,1.1618590354919434,-0.1255889236927032,-0.50492924451828,-0.0764286071062088,-0.0382557436823844,0.0,0.0,-0.5496396422386169,-0.7529003620147705
-0.0326299667358398,1.1502994298934937,-0.1332624852657318,-0.5137748718261719,-0.0767938941717147,-0.0073060528375208,0.0,0.0,0.041397213935852,0.6112766265869141
-0.033973217010498,1.1393171548843384,-0.1326787918806076,-0.4881883859634399,-0.0784258171916008,-0.0326382145285606,0.0,0.0,0.0306448936462402,0.5235375165939331
-0.0353304855525493,1.1288553476333618,-0.1329605132341385,-0.4651209115982055,-0.081173837184906,-0.0549606196582317,0.0,0.0,-0.4142576456069946,0.0773166418075561
-0.0366917625069618,1.118181228637695,-0.1334424912929535,-0.4745530188083648,-0.0838352814316749,-0.0532288923859596,0.0,0.0,-0.2695937156677246,0.3555670976638794
-0.0380576141178607,1.1072947978973389,-0.1339925825595855,-0.4839849174022674,-0.0863993167877197,-0.0512806586921215,0.0,0.0,-0.882892370223999,0.32040536403656
-0.039428424090147,1.096196174621582,-0.1346126943826675,-0.4934166967868805,-0.0888547748327255,-0.04910908639431,0.0,0.0,0.8311572074890137,0.8393933773040771
-0.0407598502933979,1.0862252712249756,-0.1288951635360717,-0.4434102773666382,-0.0930543690919876,-0.0839918628334999,0.0,0.0,-0.8950842022895813,0.4753624200820923
-0.0420974716544151,1.0760421752929688,-0.1296605765819549,-0.4528427422046661,-0.0971221104264259,-0.0813553258776664,0.0,0.0,-0.7279379367828369,0.4499056339263916
-0.0434420593082904,1.0656468868255615,-0.13050077855587,-0.4622749984264374,-0.1010460257530212,-0.0784781575202941,0.0,0.0,-0.9379061460494996,-0.5605684518814087
-0.0448366180062294,1.055050015449524,-0.1367596983909607,-0.4711582362651825,-0.1037283539772033,-0.0536466054618358,0.0,0.0,0.3697868585586548,0.2034295797348022
-0.0462220199406147,1.044807195663452,-0.1359059065580368,-0.4554153680801391,-0.1063426956534385,-0.0522868633270263,0.0,0.0,-0.9759440422058104,0.9774987697601318
-0.0475339889526367,1.034346580505371,-0.1266621202230453,-0.4652440249919891,-0.1108457073569297,-0.0900602713227272,0.0,0.0,-0.8338190913200378,-0.9175223708152772
-0.0489315018057823,1.0236966609954834,-0.1373847424983978,-0.4735099077224731,-0.1132004857063293,-0.047095738351345,0.0,0.0,-0.9777261018753052,0.63405442237854
-0.0502870567142963,1.0128262042999268,-0.1320587694644928,-0.4834012389183044,-0.1166722178459167,-0.0694346725940704,0.0,0.0,-0.9619825482368468,0.1855413913726806
-0.0516534820199012,1.0017433166503906,-0.1333686560392379,-0.4928321540355682,-0.1199235767126083,-0.065027467906475,0.0,0.0,-0.8211376070976257,0.2564748525619507
-0.0530313476920127,0.9904479384422302,-0.1347586661577224,-0.5022627115249634,-0.1229413896799087,-0.0603559017181396,0.0,0.0,-0.955902934074402,-0.0057721138000488
-0.0544215217232704,0.9789400696754456,-0.1362288296222686,-0.5116929411888123,-0.1257123202085495,-0.0554188191890716,0.0,0.0,-0.906396985054016,0.488452672958374
-0.0558245666325092,0.9672195911407472,-0.1377790719270706,-0.5211228728294373,-0.1282230913639068,-0.0502154529094696,0.0,0.0,-0.9961751103401184,0.75080406665802
-0.057186983525753,0.9552671313285828,-0.1325887739658355,-0.531537652015686,-0.1318627446889877,-0.0727931931614875,0.0,0.0,-0.9909294247627258,0.7065000534057617
-0.0585046783089637,0.9430831670761108,-0.1268751770257949,-0.5419469475746155,-0.1367381066083908,-0.0975072160363197,0.0,0.0,-0.7258316278457642,-0.4932018518447876
-0.0598372444510459,0.930686891078949,-0.128663569688797,-0.5513774752616882,-0.1413134783506393,-0.0915071442723274,0.0,0.0,-0.977005660533905,0.4954032897949219
-0.0611852630972862,0.9180779457092284,-0.1305298507213592,-0.5608076453208923,-0.1455756723880767,-0.0852439701557159,0.0,0.0,-0.465124249458313,-0.5212920308113098
-0.062598705291748,0.9052718877792358,-0.1386792659759521,-0.5694239139556885,-0.1482373028993606,-0.0532325096428394,0.0,0.0,-0.9727126955986024,-0.8842070698738098
-0.0641008391976356,0.8922663927078247,-0.149712860584259,-0.5780695676803589,-0.1487306207418441,-0.0098667005077004,0.0,0.0,-0.996492087841034,-0.699202299118042
-0.0656620040535926,0.8790573477745056,-0.1570394337177276,-0.5869830846786499,-0.1478068530559539,0.018475417047739,0.0,0.0,-0.9991012811660768,-0.4134678840637207
-0.0672411918640136,0.8656352758407593,-0.1592064201831817,-0.5964107513427734,-0.146518588066101,0.0257656276226043,0.0,0.0,-0.9523302316665648,-0.2470570206642151
-0.0688389763236045,0.8520001769065857,-0.1614453196525573,-0.6058383584022522,-0.1448533833026886,0.0333039611577987,0.0,0.0,-0.9081681966781616,-0.0865710973739624
-0.0704559311270713,0.838152289390564,-0.1637544929981231,-0.6152659058570862,-0.1427990794181823,0.041086159646511,0.0,0.0,-0.9607478380203248,-0.2844691872596741
-0.07209262996912,0.824091374874115,-0.1661322116851806,-0.6246935725212097,-0.1403437256813049,0.0491074919700622,0.0,0.0,-0.8943169116973877,-0.88519287109375
-0.0738302245736122,0.8098307251930237,-0.1786982119083404,-0.6333450675010681,-0.1354275196790695,0.0983240008354187,0.0,0.0,-0.8725643157958984,-0.0095513463020324
-0.0755887031555175,0.7953575253486633,-0.1812076717615127,-0.6427743434906006,-0.1300871074199676,0.1068080440163612,0.0,0.0,-0.9432772397994996,-0.1967496871948242
-0.0773684531450271,0.7806717753410339,-0.1837798506021499,-0.6522039175033569,-0.1243113428354263,0.1155152097344398,0.0,0.0,-0.8105267882347107,0.4553513526916504
-0.0791700333356857,0.7657737135887146,-0.1864126026630401,-0.6616341471672058,-0.1180893704295158,0.1244395747780799,0.0,0.0,-0.8136898875236511,0.6564741134643555
-0.0809483528137207,0.7506605982780457,-0.1834037899971008,-0.6712591648101807,-0.1125527545809745,0.1107322722673416,0.0,0.0,-0.7077285051345825,0.4702506065368652
-0.0827493667602539,0.735335111618042,-0.1861506849527359,-0.6806893944740295,-0.1065491437911987,0.120072528719902,0.0,0.0,-0.8343088030815125,0.7050092220306396
-0.0845271125435829,0.7197934985160828,-0.1831230670213699,-0.6903720498085022,-0.1012392118573188,0.1061982735991478,0.0,0.0,-0.4453592300415039,0.756477952003479
-0.0862568840384483,0.7040262222290039,-0.1769808083772659,-0.7004967927932739,-0.0972612276673317,0.0795596688985824,0.0,0.0,-0.4043490290641784,0.7363414764404297
-0.0879502296447753,0.68803870677948,-0.1723111867904663,-0.7103695273399353,-0.0943124815821647,0.0589748620986938,0.0,0.0,-0.6478745937347412,0.6725989580154419
-0.0896145850419998,0.6718257069587708,-0.1685521304607391,-0.7204433679580688,-0.0922188311815261,0.0418730154633522,0.0,0.0,-0.7383649945259094,0.8591952323913574
-0.0912498459219932,0.6553930044174194,-0.1647886037826538,-0.7302663326263428,-0.0909722298383712,0.0249321199953556,0.0,0.0,-0.1707648038864135,0.8435275554656982
-0.0928407683968544,0.6387478709220886,-0.1591194719076156,-0.7397844791412354,-0.0909420251846313,0.0006040044827386,0.0,0.0,0.4964864253997803,0.6936702728271484
-0.0942973122000694,0.6222584843635559,-0.1449776440858841,-0.7328956723213196,-0.0916121900081634,-0.0134030934423208,0.0,0.0,0.5700852870941162,0.6146712303161621
-0.0956286415457725,0.6067649126052856,-0.1318227648735046,-0.6886883974075317,-0.0929044336080551,-0.0258452985435724,0.0,0.0,0.6450414657592773,0.4402414560317993
-0.0970353111624717,0.5917752981185913,-0.1394759863615036,-0.6662780046463013,-0.0940862447023391,-0.0236359499394893,0.0,0.0,-0.9514331221580504,-0.058574378490448
-0.0984681099653244,0.576572835445404,-0.1426396816968917,-0.6757058501243591,-0.0947172716259956,-0.0126206520944833,0.0,0.0,-0.0092169642448425,0.1733375787734985
-0.099927045404911,0.5611574053764343,-0.145829752087593,-0.6851335167884827,-0.0947910770773887,-0.0014757548924535,0.0,0.0,0.0396664142608642,0.2692971229553222
-0.1014429107308387,0.5463342070579529,-0.1517032831907272,-0.6588024497032166,-0.094676487147808,0.0022916898597031,0.0,0.0,-0.7852645516395569,-0.3478327393531799
-0.1029853820800781,0.531298041343689,-0.1549370884895324,-0.6682300567626953,-0.0939927026629448,0.0136755537241697,0.0,0.0,-0.3659625053405761,0.6734640598297119
-0.1045048683881759,0.5160366296768188,-0.1519355475902557,-0.6782854199409485,-0.0940032377839088,-0.0002105323073919,0.0,0.0,0.4627556800842285,0.9720802307128906
-0.1058796867728233,0.500961422920227,-0.1361535489559173,-0.6700970530509949,-0.0953152552247047,-0.0262405481189489,0.0,0.0,0.2563917636871338,0.8184018135070801
-0.1072200760245323,0.4860451817512512,-0.1316385418176651,-0.6630988717079163,-0.0977023467421531,-0.0477419272065162,0.0,0.0,0.5095173120498657,0.8984200954437256
-0.1084540337324142,0.4719969034194946,-0.1197680234909057,-0.6246078014373779,-0.1012990474700927,-0.0719340220093727,0.0,0.0,-0.5677713751792908,0.3970799446105957
-0.109714888036251,0.4577357769012451,-0.1230571642518043,-0.6340358257293701,-0.1043024286627769,-0.0600675344467163,0.0,0.0,0.0863419771194458,-0.396772027015686
-0.111019991338253,0.4440750479698181,-0.1277453005313873,-0.6073415875434875,-0.1070499792695045,-0.0549508221447467,0.0,0.0,-0.5699048042297363,0.5943441390991211
-0.1123156547546386,0.4301892817020416,-0.1264696568250656,-0.6173700094223022,-0.1101298779249191,-0.0615981742739677,0.0,0.0,0.770540714263916,0.8605108261108398
-0.1134292632341384,0.4173421561717987,-0.1072248369455337,-0.5712935924530029,-0.1142344400286674,-0.0820910930633544,0.0,0.0,-0.1994562149047851,0.200467824935913
-0.1145694702863693,0.4042820930480957,-0.1104991883039474,-0.5807211399078369,-0.1177320182323455,-0.0699516385793685,0.0,0.0,-0.2159317135810852,0.8438453674316406
-0.1156755462288856,0.3910018503665924,-0.1061690226197242,-0.5905880331993103,-0.1221493557095527,-0.0883469134569168,0.0,0.0,-0.3629776239395141,0.396141767501831
-0.116808034479618,0.3775086402893066,-0.109415128827095,-0.6000154614448547,-0.1259547173976898,-0.0761070996522903,0.0,0.0,-0.2221336364746093,-0.2403837442398071
-0.1179664582014083,0.3638024032115936,-0.1126415506005287,-0.6094421744346619,-0.129146009683609,-0.0638259500265121,0.0,0.0,0.6683366298675537,-0.0310448408126831
-0.1190824508666992,0.3503924906253814,-0.1091294139623642,-0.5962122678756714,-0.1316107660531997,-0.0492953620851039,0.0,0.0,0.6734350919723511,0.1979608535766601
-0.1200774163007736,0.3373572528362274,-0.0980732068419456,-0.5794677734375,-0.1330235600471496,-0.0282562524080276,0.0,0.0,-0.215878427028656,0.5519754886627197
-0.1210437789559364,0.3240978419780731,-0.0944585651159286,-0.5895028710365295,-0.1351901143789291,-0.0433309897780418,0.0,0.0,0.3155673742294311,-0.7907676100730896
-0.1219308823347091,0.3110731840133667,-0.0888846889138221,-0.578858494758606,-0.1350124627351761,0.003552995622158,0.0,0.0,0.3443801403045654,0.3354851007461548
-0.1227646842598915,0.2987447381019592,-0.0841602087020874,-0.5478603839874268,-0.134236142039299,0.0155263487249612,0.0,0.0,0.6109222173690796,-0.283587098121643
-0.1234935745596885,0.2872963547706604,-0.0744364634156227,-0.5086773037910461,-0.1326999366283416,0.0307245049625635,0.0,0.0,-0.827959418296814,0.6700963973999023
-0.1241825073957443,0.2756245136260986,-0.0694336965680122,-0.5187001824378967,-0.1321576535701751,0.0108452141284942,0.0,0.0,0.1854453086853027,-0.2722018361091614
-0.1247918158769607,0.264073371887207,-0.0624367371201515,-0.5132524967193604,-0.1306604892015457,0.0299432128667831,0.0,0.0,-0.5746668577194214,0.8200070858001709
-0.1253651678562164,0.2522950172424316,-0.0579586625099182,-0.52342689037323,-0.1300399154424667,0.0124118775129318,0.0,0.0,0.5044807195663452,-0.3451180458068847
-0.1257821023464203,0.2414570450782776,-0.0432939156889915,-0.4815514981746673,-0.128444105386734,0.0319162346422672,0.0,0.0,0.5876710414886475,0.4546513557434082
-0.1261724531650543,0.2312237322330474,-0.0411489531397819,-0.4546333849430084,-0.1263344287872314,0.0421936810016632,0.0,0.0,-0.4475660324096679,0.5695183277130127
-0.1265473365783691,0.2207755595445633,-0.0393280051648616,-0.4642067849636078,-0.1245086714625358,0.0365151390433311,0.0,0.0,0.3446633815765381,0.539858341217041
-0.1267524659633636,0.2109400182962417,-0.0220600329339504,-0.4370079338550567,-0.1229735538363456,0.0307024326175451,0.0,0.0,-0.6466508507728577,-0.3978915214538574
-0.1269766837358474,0.2008912414312362,-0.0245780348777771,-0.4464339017868042,-0.1208264082670211,0.0429429300129413,0.0,0.0,0.479407787322998,0.091964840888977
-0.1272117644548416,0.1916411966085434,-0.025935998186469,-0.4109182059764862,-0.118412472307682,0.048278771340847,0.0,0.0,-0.3766207695007324,0.5433518886566162
-0.1274233758449554,0.1821689903736114,-0.0231551937758922,-0.4208320677280426,-0.1164323538541793,0.0396022163331508,0.0,0.0,-0.0446604490280151,0.5802751779556274
-0.1276145875453949,0.1724777072668075,-0.0207817405462265,-0.4305926859378814,-0.1147823259234428,0.0330007970333099,0.0,0.0,0.2104604244232177,0.1851955652236938
-0.1278868615627288,0.1631641536951065,-0.0289692971855402,-0.4138030111789703,-0.1130425035953521,0.0347962081432342,0.0,0.0,-0.1324846744537353,0.870423436164856
-0.1280925720930099,0.1536289304494857,-0.0208691488951444,-0.4237666428089142,-0.1127470806241035,0.0059084235690534,0.0,0.0,0.7843892574310303,0.045058250427246
-0.1282009184360504,0.1444634348154068,-0.0120345205068588,-0.4072681069374084,-0.111553855240345,0.0238646753132343,0.0,0.0,0.9002416133880615,0.7897160053253174
-0.1279803216457367,0.13635815680027,0.0214480459690094,-0.3601904809474945,-0.1109550893306732,0.0119752725586295,0.0,0.0,0.4220571517944336,-0.5926071405410767
-0.127764418721199,0.1290518194437027,0.0192615669220685,-0.3245536684989929,-0.1086372211575508,0.0463577918708324,0.0,0.0,-0.224563717842102,0.4786722660064697
-0.1275581419467926,0.1215325444936752,0.0177049748599529,-0.3339809477329254,-0.1057439520955085,0.0578653439879417,0.0,0.0,0.5655224323272705,-0.5239963531494141
-0.1272664964199066,0.1146140173077583,0.0244147330522537,-0.3071613013744354,-0.1010345220565795,0.0941885486245155,0.0,0.0,0.3292268514633178,0.84183669090271
-0.1268555670976638,0.108462318778038,0.0374826155602932,-0.2731662690639496,-0.097445011138916,0.0717902779579162,0.0,0.0,-0.1258704662322998,-0.4138730764389038
-0.1264503449201584,0.1020978987216949,0.036343228071928,-0.2825948596000671,-0.0933004468679428,0.0828912928700447,0.0,0.0,0.3184690475463867,0.9701316356658936
-0.1258649826049804,0.0960412621498107,0.0557107739150524,-0.2690109014511108,-0.0905051976442337,0.0559048876166343,0.0,0.0,-0.0030519962310791,0.5465658903121948
-0.1252482384443283,0.08976811170578,0.0591883175075054,-0.2786586880683899,-0.0880388990044593,0.049325805157423,0.0,0.0,-0.0268147587776184,0.5127197504043579
-0.1246011704206466,0.0832766592502594,0.0624946467578411,-0.2883817851543426,-0.0858472287654876,0.0438334196805954,0.0,0.0,0.3604785203933716,0.8188015222549438
-0.1238696128129959,0.0772599279880523,0.0720879063010215,-0.2673497200012207,-0.0847908407449722,0.0211277920752763,0.0,0.0,0.4694085121154785,0.0988556146621704
-0.1230731979012489,0.0717365816235542,0.0779556855559349,-0.2453863620758056,-0.0831179618835449,0.0334576815366745,0.0,0.0,0.2641711235046386,0.1220462322235107
-0.122150994837284,0.0663994178175926,0.0895591229200363,-0.2370621412992477,-0.0804841965436935,0.0526752956211566,0.0,0.0,0.1181902885437011,0.4130980968475342
-0.1211209297180175,0.0615336038172245,0.0995501354336738,-0.2160757929086685,-0.0770584270358085,0.0685155987739563,0.0,0.0,0.0370430946350097,-0.1807665824890136
-0.1200295463204383,0.0572107397019863,0.1051241755485534,-0.191927969455719,-0.0730855613946914,0.0794572606682777,0.0,0.0,-0.2383404970169067,-0.0379208922386169
