x_pos,y_pos,x_vel,y_vel,angle,ang_vel,leg_1,leg_2,main_booster,lat_booster
-0.0015482902526855,1.402976155281067,-0.1570129096508026,-0.3530670702457428,0.0019551499281078,0.0385815873742103,0.0,0.0,0.0960505926066126,-0.4580437003610235
-0.0030861855484545,1.394866108894348,-0.1560448259115219,-0.360450267791748,0.004187474027276,0.0446515493094921,0.0,0.0,0.020035896655294,0.3761078315093851
-0.0045644761994481,1.386481761932373,-0.1506383568048477,-0.3726438283920288,0.0069693541154265,0.0556427463889122,0.0,0.0,0.1766074501740289,0.6446710201753977
-0.0061096190474927,1.377980351448059,-0.1560378074645996,-0.3778518140316009,0.0084688067436218,0.0299918390810489,0.0,0.0,-0.6226697912261774,-0.6075289364857746
-0.0077112196013331,1.3688318729400637,-0.1627809405326843,-0.4066132307052612,0.0110570890828967,0.0517703592777252,0.0,0.0,0.5276334925255641,0.0793639747301322
-0.0092090610414743,1.359790563583374,-0.1531422883272171,-0.4018625319004059,0.0143874073401093,0.06661257147789,0.0,0.0,-0.7242378546297443,0.358400709805166
-0.010722923092544,1.3501009941101074,-0.1548827141523361,-0.4306859076023102,0.017847254872322,0.0692030042409896,0.0,0.0,-0.3407162682003826,0.3214940103154489
-0.0122515680268406,1.3397632837295532,-0.1564814895391464,-0.4595010578632355,0.0214305371046066,0.0716722160577774,0.0,0.0,0.42739284145758,0.947153550335608
-0.0137464525178074,1.32987380027771,-0.1513293087482452,-0.4395561814308166,0.0232411697506904,0.0362160503864288,0.0,0.0,-0.0202675049148888,-0.2903574511039071
-0.0152534488588571,1.3193359375,-0.1526490449905395,-0.4683820903301239,0.0251626092940568,0.0384323559701442,0.0,0.0,-0.2686516041677682,-0.2942285741454888
-0.0167713165283203,1.3081499338150024,-0.1538389772176742,-0.4971955120563507,0.0271865725517272,0.0404830910265445,0.0,0.0,0.3990237283264721,-0.5261160641714436
-0.0182877536863088,1.2969862222671509,-0.1550054252147674,-0.4962304830551147,0.0305106751620769,0.0664883553981781,0.0,0.0,0.4614903721450361,0.4519728425146853
-0.019716452807188,1.2861071825027466,-0.1468646824359893,-0.4835987687110901,0.0344673991203308,0.0791415721178054,0.0,0.0,0.7200050211696098,0.2217034319381648
-0.0210935585200786,1.2751379013061523,-0.1421231925487518,-0.4876297116279602,0.0388443619012832,0.0875469297170639,0.0,0.0,0.8934536584737331,0.5075551189501915
-0.0223028175532817,1.2649542093276978,-0.1249385029077529,-0.4527169167995453,0.0428131073713302,0.0793820843100547,0.0,0.0,-0.7493784242134314,-0.7291026713874127
-0.0235642436891794,1.2541106939315796,-0.1314208209514618,-0.4820933938026428,0.0480337888002395,0.1044231653213501,0.0,0.0,-0.9910289625702612,0.894016646781645
-0.0247440338134765,1.24263596534729,-0.1210968494415283,-0.5100968480110168,0.0511301383376121,0.0619326755404472,0.0,0.0,0.2165633186747722,0.6057944051624792
-0.0257772449404001,1.2309335470199585,-0.1055027022957801,-0.5201810002326965,0.0532846003770828,0.0430930778384208,0.0,0.0,-0.9974981108650964,-0.6191027120481012
-0.0268544200807809,1.21858549118042,-0.1109696477651596,-0.5489251613616943,0.0565142147243022,0.0645980313420295,0.0,0.0,-0.4714617212397733,0.1187892217680876
-0.027933407574892,1.2055891752243042,-0.1111940890550613,-0.5777419209480286,0.0597805827856063,0.0653329938650131,0.0,0.0,0.0316477854980372,-0.2977087081094006
-0.0289620403200387,1.192654728889465,-0.1065626963973045,-0.5750134587287903,0.06344885379076,0.0733718052506446,0.0,0.0,-0.2109920819586874,-0.6059560396066531
-0.0300378799438476,1.1790642738342283,-0.1124966889619827,-0.6042388081550598,0.0683221742510795,0.0974752232432365,0.0,0.0,-0.3159879357964528,0.663599666880532
-0.0310499183833599,1.164831280708313,-0.1045103445649147,-0.6327322721481323,0.0716060400009155,0.0656833872199058,0.0,0.0,0.4369042611392477,0.6009984437779311
-0.0319665893912315,1.1503616571426392,-0.0939369276165962,-0.6431998014450073,0.0738485008478164,0.0448532328009605,0.0,0.0,-0.2268535719186188,0.0547562767819564
-0.032882023602724,1.1352437734603882,-0.0938074514269828,-0.6720204949378967,0.0760932341217994,0.0448987819254398,0.0,0.0,0.556603070849659,-0.6713630596392174
-0.0340478904545307,1.1204288005828855,-0.1198830157518386,-0.6586158871650696,0.0793580412864685,0.0652963072061538,0.0,0.0,-0.0766087424724077,-0.2028008178486736
-0.0352114662528038,1.1049655675888062,-0.1196485012769699,-0.6874314546585083,0.08261239528656,0.0650873035192489,0.0,0.0,0.9769992055359722,0.2940115088592242
-0.0366098396480083,1.0903109312057495,-0.1423736810684204,-0.6514532566070557,0.0851265862584114,0.0502838306128978,0.0,0.0,0.7205729837271628,-0.8876587875489759
-0.0382948890328407,1.0761929750442505,-0.1725531369447708,-0.6277017593383789,0.0891386494040489,0.0802412033081054,0.0,0.0,-0.1064073393223026,0.0976131509669683
-0.0399768836796283,1.061426877975464,-0.1722146123647689,-0.656517744064331,0.0931220427155494,0.079667791724205,0.0,0.0,-0.1137847444170836,-0.779436762480284
-0.0417157188057899,1.0460129976272583,-0.179374024271965,-0.685409426689148,0.0985733121633529,0.1090248823165893,0.0,0.0,-0.96133691072464,0.7914316654205322
-0.0433965697884559,1.0299545526504517,-0.1721551418304443,-0.7139816284179688,0.1026124060153961,0.0807816609740257,0.0,0.0,-0.995741844177246,0.6884419918060303
-0.0450276359915733,1.0132614374160769,-0.16594198346138,-0.7421086430549622,0.1054195016622543,0.0561420433223247,0.0,0.0,-0.9975031614303588,0.935421347618103
-0.0465889945626258,0.9959222674369812,-0.1572295725345611,-0.7707167267799377,0.1065117493271827,0.0218448601663112,0.0,0.0,-0.2699106931686401,0.912161350250244
-0.0480733886361122,0.9779481291770936,-0.1476003229618072,-0.7987877726554871,0.1056800559163093,-0.0166338346898555,0.0,0.0,-0.9269084930419922,0.932957410812378
-0.0494793877005577,0.9593448042869568,-0.1377722769975662,-0.8266218304634094,0.1028695106506347,-0.0562105998396873,0.0,0.0,-0.3150620460510254,0.7984514236450195
-0.050821878015995,0.9400984048843384,-0.1298280954360962,-0.855098307132721,0.0984741225838661,-0.0879076272249221,0.0,0.0,0.9039261341094972,-0.2530295252799988
-0.0522042289376258,0.9215197563171388,-0.133933812379837,-0.8254426121711731,0.0942140370607376,-0.085201695561409,0.0,0.0,0.9847586154937744,0.5904865264892578
-0.0536831840872764,0.9038106203079224,-0.1421927660703659,-0.786723256111145,0.0885614231228828,-0.1130523309111595,0.0,0.0,-0.0765172243118286,-0.2679571509361267
-0.055159855633974,0.8854535818099976,-0.1418914496898651,-0.8155401945114136,0.08283381909132,-0.1145519837737083,0.0,0.0,-0.0247143507003784,0.3267784118652344
-0.0566347129642963,0.8664485216140747,-0.1416252553462982,-0.8443572521209717,0.0770278722047805,-0.1161187440156936,0.0,0.0,0.5296045541763306,-0.7565268278121948
-0.0580788627266883,0.8475261330604553,-0.1402145326137542,-0.8407819867134094,0.0728673860430717,-0.083209678530693,0.0,0.0,0.9819717407226562,0.6297430992126465
-0.0593751892447471,0.828530490398407,-0.1244164928793907,-0.8439995646476746,0.0677071660757064,-0.1032045483589172,0.0,0.0,0.6361374855041504,-0.4536916017532348
-0.0606083869934082,0.8096804022789001,-0.1184776648879051,-0.8375730514526367,0.0629146993160247,-0.0958492308855056,0.0,0.0,0.9740633964538574,-0.0714083313941955
-0.0619124397635459,0.7907043695449829,-0.1252363324165344,-0.8431712985038757,0.057808082550764,-0.1021323204040527,0.0,0.0,0.9570815563201904,0.8948276042938232
-0.0631093010306358,0.7716755270957947,-0.1127501279115676,-0.8454800248146057,0.0509465113282203,-0.1372314542531967,0.0,0.0,0.9123260974884032,-0.4623353481292724
-0.0642636269330978,0.7527790665626526,-0.1087158545851707,-0.8396300077438354,0.0443178601562976,-0.1325732916593551,0.0,0.0,0.988107442855835,-0.7545173168182373
-0.0656706839799881,0.7347325682640076,-0.1350670456886291,-0.8019084334373474,0.0387479029595851,-0.1113990694284439,0.0,0.0,0.8770411014556885,0.919198751449585
-0.0672095268964767,0.7173833250999451,-0.1459996402263641,-0.770901620388031,0.030956519767642,-0.1558276712894439,0.0,0.0,-0.9183194637298584,0.5568469762802124
-0.0687096565961837,0.6993867754936218,-0.1409445405006408,-0.7996826171875,0.0219981055706739,-0.1791683435440063,0.0,0.0,0.2617472410202026,-0.3397988677024841
-0.0701146125793457,0.681400716304779,-0.131828024983406,-0.7992835640907288,0.01344670727849,-0.1710278391838073,0.0,0.0,0.6324247121810913,-0.5563435554504395
-0.0716399177908897,0.6638603210449219,-0.1447343528270721,-0.7795194387435913,0.0057432428002357,-0.1540690064430236,0.0,0.0,-0.5329151749610901,0.7541917562484741
-0.0731012374162674,0.6456691026687622,-0.1364295035600662,-0.8084920048713684,-0.0038337020669132,-0.1915394365787506,0.0,0.0,-0.3248287439346313,-0.4263622760772705
-0.0745699852705001,0.6268308162689209,-0.1370702087879181,-0.8373146057128906,-0.0135128693655133,-0.1935833990573883,0.0,0.0,0.8097531795501709,-0.6838507056236267
-0.075917437672615,0.6081412434577942,-0.1266428083181381,-0.8307436108589172,-0.0215164627879858,-0.1600715219974517,0.0,0.0,0.9917880296707152,-0.0357839465141296
-0.0773774161934852,0.5896599292755127,-0.137238472700119,-0.8215439915657043,-0.030155923217535,-0.1727893203496933,0.0,0.0,0.9943892955780028,0.1982736587524414
-0.0787053108215332,0.5719685554504395,-0.1244697347283363,-0.7864723801612854,-0.0383735932409763,-0.1643538028001785,0.0,0.0,0.9214088916778564,-0.2529173493385315
-0.0798543915152549,0.5547962188720703,-0.1072276830673217,-0.7634317874908447,-0.0459520071744918,-0.1515681892633438,0.0,0.0,0.8529136180877686,0.1689670085906982
-0.0808898955583572,0.538354218006134,-0.0961711928248405,-0.731002151966095,-0.0532457903027534,-0.1458758413791656,0.0,0.0,0.9332396984100342,-0.0869755744934082
-0.0819792747497558,0.5226489901542664,-0.10103739798069,-0.6983081698417664,-0.0610545240342617,-0.1561746895313263,0.0,0.0,-0.6934152245521545,-0.6036823987960815
-0.0831274017691612,0.5062950849533081,-0.1079288721084594,-0.7271379828453064,-0.0678670704364776,-0.1362509578466415,0.0,0.0,0.895982027053833,0.3352394104003906
-0.0843519195914268,0.490509957075119,-0.114923357963562,-0.7019213438034058,-0.075313463807106,-0.1489282250404358,0.0,0.0,0.5121151208877563,0.6061944961547852
-0.0853878036141395,0.4747645854949951,-0.0950218066573143,-0.7002469301223755,-0.083793006837368,-0.1695909798145294,0.0,0.0,0.4984196424484253,0.0988613367080688
-0.086374282836914,0.4592002630233764,-0.0900890603661537,-0.6922510862350464,-0.092273510992527,-0.1696103811264038,0.0,0.0,0.5699410438537598,-0.8757843971252441
-0.0874064415693283,0.4435594081878662,-0.0963320806622505,-0.695590078830719,-0.0990978255867958,-0.1364864856004715,0.0,0.0,0.9561221599578856,-0.64066481590271
-0.0885968208312988,0.428346574306488,-0.1129323095083236,-0.6765440702438354,-0.1051578596234321,-0.1212009042501449,0.0,0.0,0.3404250144958496,0.1726456880569458
-0.0897191017866134,0.4135189652442932,-0.1061077937483787,-0.6594455242156982,-0.1112336888909339,-0.12151650339365,0.0,0.0,0.7092103958129883,0.2536239624023437
-0.0907466858625412,0.3984805643558502,-0.0969436094164848,-0.6688181757926941,-0.1170116066932678,-0.1155581250786781,0.0,0.0,0.9140136241912842,-0.8039276599884033
-0.0917118042707443,0.3842820227146148,-0.0922923982143402,-0.6313828825950623,-0.1212018877267837,-0.0838057324290275,0.0,0.0,0.7117886543273926,-0.7053916454315186
-0.0928043350577354,0.3701920509338379,-0.106135107576847,-0.6264774799346924,-0.1243081763386726,-0.0621256530284881,0.0,0.0,0.4212937355041504,0.1366041898727417
-0.0939299613237381,0.3563357591629028,-0.1089877262711525,-0.6161374449729919,-0.1278698444366455,-0.0712334588170051,0.0,0.0,0.638648509979248,0.3343241214752197
-0.0949748009443283,0.3427439928054809,-0.1009561866521835,-0.6043861508369446,-0.1313785016536712,-0.0701729357242584,0.0,0.0,0.8618801832199097,0.2458722591400146
-0.0960680991411209,0.3299480676651001,-0.1050494909286499,-0.5690915584564209,-0.1356448382139206,-0.0853266268968582,0.0,0.0,0.6204195022583008,0.6539103984832764
-0.0969863906502723,0.3173197209835052,-0.0863280519843101,-0.5617727637290955,-0.1411279290914535,-0.1096621006727218,0.0,0.0,0.069218635559082,-0.3132336139678955
-0.0979223251342773,0.3044240176677704,-0.0879085659980773,-0.5736903548240662,-0.1467938274145126,-0.1133180111646652,0.0,0.0,0.2785760164260864,-0.8936389088630676
-0.0988650321960449,0.2912466526031494,-0.0903430506587028,-0.5860554575920105,-0.1507156044244766,-0.0784354358911514,0.0,0.0,0.2827829122543335,-0.7648707032203674
-0.0998899489641189,0.2778242826461792,-0.0999876707792282,-0.5968030691146851,-0.1532219499349594,-0.0501267090439796,0.0,0.0,0.9635976552963256,-0.7182310819625854
-0.1008719429373741,0.2651731967926025,-0.0970363244414329,-0.5623900890350342,-0.1543886959552765,-0.023334888741374,0.0,0.0,0.5663708448410034,0.0837365388870239
-0.1016961112618446,0.2530028522014618,-0.0815240889787674,-0.5409992933273315,-0.1552767157554626,-0.0177603997290134,0.0,0.0,0.5691107511520386,-0.5236676335334778
-0.1025904640555381,0.2413758635520935,-0.089230939745903,-0.5167727470397949,-0.1554814130067825,-0.0040939850732684,0.0,0.0,0.6246113777160645,-0.3904359340667724
-0.1035981178283691,0.2296130508184433,-0.0999073088169097,-0.5228846669197083,-0.1563416570425033,-0.0172049384564161,0.0,0.0,-0.2312526106834411,0.3366376161575317
-0.1046448722481727,0.2172019332647323,-0.1037485376000404,-0.5517003536224365,-0.1572661250829696,-0.0184894632548093,0.0,0.0,0.9966397285461426,0.9250555038452148
-0.105683609843254,0.2051875740289688,-0.1007736548781395,-0.5343033075332642,-0.1603585034608841,-0.0618478171527385,0.0,0.0,0.9199681282043456,0.8829505443572998
-0.1066371947526931,0.1936953365802765,-0.0903135016560554,-0.5113194584846497,-0.1654088348150253,-0.1010069996118545,0.0,0.0,0.9270365238189696,-0.2075129151344299
-0.1075120940804481,0.1827654391527176,-0.0823177918791771,-0.4863588511943817,-0.1705794036388397,-0.1034113988280296,0.0,0.0,0.9045815467834472,-0.3749470710754394
-0.108216568827629,0.1721534878015518,-0.0657007545232772,-0.4721966683864593,-0.1753376871347427,-0.0951657146215438,0.0,0.0,0.9740134477615356,-0.8565311431884766
-0.108930304646492,0.1614988148212433,-0.0683476626873016,-0.4738992154598236,-0.1783705502748489,-0.0606569238007068,0.0,0.0,0.9445323944091796,-0.593212366104126
-0.1095362678170204,0.1508729010820388,-0.0590288266539573,-0.4724548161029815,-0.1799414902925491,-0.0314188227057457,0.0,0.0,0.9877752065658568,0.040263295173645
-0.1098899841308593,0.1405651420354843,-0.0345837883651256,-0.4582194983959198,-0.1807371228933334,-0.0159123856574296,0.0,0.0,0.9794104099273682,-0.1092997193336486
-0.1100401878356933,0.1302613168954849,-0.0149549487978219,-0.4579547941684723,-0.1808004975318908,-0.0012676217593252,0.0,0.0,0.9786858558654784,-0.6210690140724182
-0.11012963950634,0.1206564977765083,-0.0100751863792538,-0.4267429113388061,-0.179672360420227,0.0225631333887577,0.0,0.0,0.9583613872528076,-0.0107151269912719
-0.1100692749023437,0.1117207407951355,0.0047758659347891,-0.3969968259334564,-0.1784085482358932,0.0252763722091913,0.0,0.0,0.929532527923584,-0.7832974195480347
-0.1098229438066482,0.1032639816403389,0.0214892216026783,-0.3754803836345672,-0.1752550899982452,0.0630692094564437,0.0,0.0,0.9061858654022216,-0.8506835103034973
-0.1095005050301551,0.0946908593177795,0.0271722022444009,-0.3804357647895813,-0.1701767891645431,0.1015660017728805,0.0,0.0,0.8651106357574463,-0.0826121568679809
-0.1091876998543739,0.0863348096609115,0.0265079084783792,-0.3708429038524627,-0.1653970927000045,0.0955938771367073,0.0,0.0,0.8669921159744263,0.0773811340332031
-0.1086689010262489,0.0787496641278266,0.0466778501868248,-0.3365488052368164,-0.1601959764957428,0.1040222272276878,0.0,0.0,0.5689342021942139,-0.3138877153396606
-0.1081351265311241,0.0713221654295921,0.0482960864901542,-0.3295716643333435,-0.1551150232553482,0.1016191020607948,0.0,0.0,0.7081077098846436,0.18453049659729
-0.1076510399580001,0.0644954070448875,0.0439295694231987,-0.3029538094997406,-0.1506437063217163,0.0894261598587036,0.0,0.0,0.7310104370117188,-0.6835689544677734
-0.1070624366402626,0.05809823051095,0.0527969822287559,-0.2837156355381012,-0.14459028840065,0.1210684403777122,0.0,0.0,0.6837121248245239,0.4324716329574585
-0.106467917561531,0.0522000156342983,0.053645521402359,-0.261592149734497,-0.1387974023818969,0.115857683122158,0.0,0.0,0.8449299335479736,-0.2270171642303466
-0.1058997139334678,0.0469152070581913,0.0514457449316978,-0.2343890070915222,-0.1334368884563446,0.1072100400924682,0.0,0.0,0.6550388336181641,-0.4823049902915954
-0.1053404808044433,0.0417290292680263,0.0506593771278858,-0.2300347983837127,-0.1281935721635818,0.104866549372673,0.0,0.0,0.5150258541107178,0.4766740798950195
-0.1048675552010536,0.0367357581853866,0.0425116680562496,-0.2215184718370437,-0.1234439983963966,0.0949914082884788,0.0,0.0,0.416399598121643,0.6630749702453613
-0.1044794097542762,0.0317778922617435,0.0356313288211822,-0.2200902849435806,-0.120280772447586,0.0632641240954399,0.0,0.0,0.3849382400512695,0.7804610729217529
-0.103909395635128,0.0270444005727767,0.0552449151873588,-0.2102388590574264,-0.1185298115015029,0.0350195318460464,0.0,0.0,0.584768533706665,0.25670325756073
-0.1032898873090744,0.0221792310476303,0.0598962791264057,-0.216066300868988,-0.1164967790246009,0.0406607128679752,0.0,0.0,0.7970540523529053,0.4199659824371338
-0.1024681106209755,0.0178746804594993,0.0793802961707115,-0.191099002957344,-0.1137213483452797,0.0555086359381675,0.0,0.0,0.882244348526001,0.530295729637146
-0.101582333445549,0.0142413238063454,0.0869224146008491,-0.1613551825284958,-0.1120673641562461,0.033079344779253,0.0,0.0,0.7240312099456787,-0.0802299976348877
-0.1004993468523025,0.0112639283761382,0.1059232130646705,-0.1321553885936737,-0.1097068786621093,0.047209657728672,0.0,0.0,0.4674547910690307,-0.7649497389793396
-0.099322035908699,0.0090092988684773,0.0985556989908218,-0.0989300683140754,-0.0906058028340339,0.3821257948875427,1.0,0.0,0.2207380533218383,-0.3040367364883423
-0.0980946570634841,0.0070127700455486,0.1035088747739791,-0.0876919254660606,-0.0715274363756179,0.3816207945346832,1.0,0.0,0.0290411710739135,-0.5895002484321594
-0.0968289375305175,0.0051277135498821,0.1055657714605331,-0.0829225406050682,-0.0507031194865703,0.4165449142456054,1.0,0.0,0.1304919719696045,-0.3271963596343994
-0.0954978913068771,0.0030564402695745,0.1121300607919693,-0.0914760529994964,-0.0299837067723274,0.4143876135349273,1.0,0.0,0.0965843200683593,-0.3056956529617309
-0.0942355170845985,0.0009614920709282,0.1056249290704727,-0.0928249508142471,-0.0096400687471032,0.4068730473518371,1.0,0.0,-0.2205706238746643,-0.3215909004211426
-0.0929685607552528,-0.0017447494901716,0.1052191257476806,-0.1202740296721458,0.0115585215389728,0.4239718914031982,1.0,1.0,0.3614028692245483,0.3506848812103271
-0.0918489471077919,-0.0036231183912605,0.097670242190361,-0.0838071256875991,0.0250178016722202,0.2683501541614532,1.0,1.0,-0.6504723429679871,-0.9316253066062928
-0.0909560173749923,-0.0051936055533587,0.0802187845110893,-0.0699818432331085,0.0339755117893219,0.1791570335626602,1.0,1.0,-0.7527170777320862,-0.9249649047851562
-0.0902440994977951,-0.0063545368611812,0.0632842630147934,-0.0518019199371337,0.0417836643755435,0.1561643928289413,1.0,1.0,-0.4279325604438782,-0.3722967505455017
-0.0896435752511024,-0.0070348526351153,0.0527788624167442,-0.0304584987461566,0.0489672496914863,0.143668383359909,1.0,1.0,-0.538596510887146,-0.2869292497634887
-0.0891825705766677,-0.007366981357336,0.0435709580779075,-0.0148475747555494,0.05146050080657,0.0498548373579978,1.0,1.0,-0.3895215988159179,-0.223983883857727
-0.0888488739728927,-0.0073004625737667,0.0338657945394516,0.0029728929512202,0.0509627312421798,-0.0099639082327485,1.0,1.0,-0.643743634223938,-0.1234543919563293
