x_pos,y_pos,x_vel,y_vel,angle,ang_vel,leg_1,leg_2,main_booster,lat_booster
-0.0016539574135094,1.4033653736114502,-0.167612075805664,-0.335766851902008,0.0019889678806066,0.0392510257661342,0.0,0.0,-0.8282778034202913,-0.7381758404671477
-0.0034936903975903,1.395570993423462,-0.1874065101146698,-0.346424251794815,0.00538733555004,0.0679743140935897,0.0,0.0,0.9924460072266044,-0.2169486730698063
-0.0053090094588696,1.3882492780685425,-0.1858726590871811,-0.3254287838935852,0.0096785044297575,0.0858315750956535,0.0,0.0,0.7835393661550645,-0.997018622682352
-0.0074873925186693,1.3814712762832642,-0.2240640223026275,-0.3012982904911041,0.0158302839845418,0.1230467334389686,0.0,0.0,0.7771147758317623,0.1380121153694297
-0.0096749309450387,1.3754899501800537,-0.2257542908191681,-0.2659247815608978,0.0227582212537527,0.138571947813034,0.0,0.0,0.3298147629262939,0.2899667095188659
-0.0118996622040867,1.3699097633361816,-0.2301307916641235,-0.2481544315814972,0.0303222872316837,0.151295319199562,0.0,0.0,0.358329571049131,-0.220163968264937
-0.0142964366823434,1.3647818565368652,-0.247331827878952,-0.2280742079019546,0.0379021316766738,0.1516109257936477,0.0,0.0,-0.457202675272252,-0.1255037809264054
-0.0168329235166311,1.3593957424163818,-0.2614197134971618,-0.2395982295274734,0.0455833412706851,0.1536383926868438,0.0,0.0,-0.2583342671534323,0.8439058909812499
-0.019445514306426,1.3537650108337402,-0.2674592137336731,-0.2504612803459167,0.0517217852175235,0.1227801665663719,0.0,0.0,0.6880715309871399,0.0492614119897061
-0.0222387313842773,1.348987340927124,-0.2856188118457794,-0.2125706225633621,0.0579517781734466,0.1246112808585167,0.0,0.0,0.2508711888326116,-0.8506846740426194
-0.0251925475895404,1.3446264266967771,-0.303537368774414,-0.1941558420658111,0.0660285577178001,0.1615504771471023,0.0,0.0,-0.7819771883941369,-0.1598242867817061
-0.0282894130796194,1.340007185935974,-0.3179282248020172,-0.2056792080402374,0.0741930231451988,0.1633042097091674,0.0,0.0,0.6226152414841533,-0.1625226870895016
-0.0314532294869422,1.3361718654632568,-0.3253174126148224,-0.1709238141775131,0.0830485597252845,0.1771272420883178,0.0,0.0,0.135631413093735,-0.3672086840831009
-0.0347342491149902,1.3324490785598757,-0.3373448252677917,-0.1659875661134719,0.0922108739614486,0.1832631379365921,0.0,0.0,0.704628087498947,0.4457737367150877
-0.0380937568843364,1.329759120941162,-0.3459311723709106,-0.1201950833201408,0.1021399050951004,0.1985983997583389,0.0,0.0,-0.5565503553939508,-0.1072875322567118
-0.0415985099971294,1.32681143283844,-0.3605391681194305,-0.1317300498485565,0.1121472418308258,0.2001645565032959,0.0,0.0,-0.0219234297015105,-0.1115933969368331
-0.0452491752803325,1.3236058950424194,-0.375191330909729,-0.1432522386312484,0.1222317814826965,0.2017088383436203,0.0,0.0,0.1276045754197334,-0.8944124578527928
-0.0490336418151855,1.3205243349075315,-0.3904615938663482,-0.1379907578229904,0.1342118382453918,0.239622950553894,0.0,0.0,-0.0037122047305195,0.4516299132120791
-0.0529647842049598,1.3171855211257937,-0.4051921367645263,-0.1495251208543777,0.1462644636631012,0.2410747110843658,0.0,0.0,-0.2952476329551834,0.0933379315180394
-0.0570430755615234,1.3135894536972046,-0.4199546873569488,-0.1610559821128845,0.1583899557590484,0.2425318658351898,0.0,0.0,-0.4714599737082356,0.5852912845198036
-0.0612139701843261,1.309753656387329,-0.4278468191623688,-0.1716612428426742,0.1691663712263107,0.2155475616455078,0.0,0.0,-0.395587353087754,0.0613697550537611
-0.0655324906110763,1.3056602478027344,-0.4426600337028503,-0.1831914782524109,0.180014356970787,0.2169792354106903,0.0,0.0,-0.9559297237145132,-0.8914438073241678
-0.0700531005859375,1.3012938499450684,-0.4643096327781677,-0.1956046521663665,0.1923349797725677,0.2464346140623092,0.0,0.0,-0.3318688660133839,0.3112215800741656
-0.0747220069169998,1.2966700792312622,-0.4791730940341949,-0.2071391642093658,0.2047251164913177,0.2478252202272415,0.0,0.0,0.3668195265505984,-0.6423390810527358
-0.0798242539167404,1.292518138885498,-0.5235841870307922,-0.1864277422428131,0.2182352840900421,0.2702275216579437,0.0,0.0,0.9318659288069728,0.2678635874584194
-0.0854164138436317,1.2892390489578247,-0.5718545913696289,-0.1476599276065826,0.2310284376144409,0.2558626532554626,0.0,0.0,0.5464448738449312,-0.4157897493866733
-0.0913092643022537,1.286697268486023,-0.6019679307937622,-0.1150094345211982,0.2439097464084625,0.2576260268688202,0.0,0.0,0.5553428595284498,0.1270445493094898
-0.0976575836539268,1.284985065460205,-0.6469964385032654,-0.078163594007492,0.2562932968139648,0.2476714849472046,0.0,0.0,-0.378499320565699,0.7349189250303061
-0.1041118651628494,1.283038854598999,-0.6564658284187317,-0.0884646326303482,0.2675786912441253,0.2257078140974044,0.0,0.0,0.252472194926,0.7266715604043493
-0.1107739433646202,1.281383037567139,-0.6758425235748291,-0.0753826647996902,0.2774443030357361,0.1973121166229248,0.0,0.0,0.5461443143153193,-0.0210380366647854
-0.1177849769592285,1.2806200981140137,-0.7108524441719055,-0.0358003266155719,0.2874633073806762,0.2003804743289947,0.0,0.0,-0.8203790187835693,0.9996647834777832
-0.1248779296875,1.2796226739883425,-0.7173696160316467,-0.0459387898445129,0.2957935631275177,0.1666053235530853,0.0,0.0,-0.8377819061279297,0.9994423389434814
-0.132056325674057,1.278406023979187,-0.7242790460586548,-0.0553963258862495,0.3024354875087738,0.1328386217355728,0.0,0.0,-0.8877670764923096,0.9997252225875854
-0.1393144577741623,1.276953935623169,-0.7305482029914856,-0.0655384361743927,0.30734384059906,0.0981664583086967,0.0,0.0,-0.9129113554954528,0.999974250793457
-0.1466443985700607,1.27528178691864,-0.7357910871505737,-0.0749106109142303,0.3102365732192993,0.057854950428009,0.0,0.0,-0.7060022950172424,0.9994710683822632
-0.1540472954511642,1.27339506149292,-0.7411257028579712,-0.0840285196900367,0.3111039996147156,0.0173484552651643,0.0,0.0,-0.961843192577362,0.999903440475464
-0.1615259200334549,1.2712795734405518,-0.7468975782394409,-0.0938229635357856,0.310111254453659,-0.0198547281324863,0.0,0.0,-0.9870669841766356,0.9995754957199096
-0.1690748184919357,1.2689508199691772,-0.7519129514694214,-0.1028656736016273,0.3070313334465027,-0.0615992434322834,0.0,0.0,-0.9159911274909972,0.9992226362228394
-0.1767042130231857,1.266407489776611,-0.7581974267959595,-0.1120430082082748,0.3021274209022522,-0.0980781391263008,0.0,0.0,-0.9595836400985718,0.9996812343597412
-0.1844033300876617,1.2636438608169556,-0.763192355632782,-0.1214450821280479,0.2951857149600982,-0.1388340592384338,0.0,0.0,-0.970749855041504,0.998993158340454
-0.1921902596950531,1.260658860206604,-0.7704271078109741,-0.1310239881277084,0.2866621315479278,-0.1704710125923156,0.0,0.0,-0.9932154417037964,0.997530460357666
-0.2000339031219482,1.2574539184570312,-0.7738009691238403,-0.1403920650482177,0.2758020460605621,-0.2172009646892547,0.0,0.0,-0.9864689111709596,0.997765064239502
-0.2079355269670486,1.2540191411972046,-0.7773784399032593,-0.1503007560968399,0.2627099156379699,-0.2618424892425537,0.0,0.0,-0.9931277632713318,0.9917712211608888
-0.2158966064453125,1.2503619194030762,-0.781093418598175,-0.1599318087100982,0.2473933100700378,-0.306332528591156,0.0,0.0,-0.9589545726776124,0.997732400894165
-0.223932072520256,1.2464648485183716,-0.7867512106895447,-0.1704690903425216,0.2303248941898346,-0.3413686156272888,0.0,0.0,-0.9923796057701112,0.9804422855377196
-0.232032299041748,1.242332100868225,-0.7911809682846069,-0.1808472126722335,0.2112604528665542,-0.3812889456748962,0.0,0.0,-0.9868924021720886,0.9915993213653564
-0.2401946038007736,1.237967610359192,-0.795258104801178,-0.1911133080720901,0.1901324987411499,-0.4225591719150543,0.0,0.0,-0.9576104283332824,0.9999089241027832
-0.2484420835971832,1.233379364013672,-0.8021879196166992,-0.2011801898479461,0.1675004065036773,-0.4526420533657074,0.0,0.0,-0.9445146322250366,0.9997748136520386
-0.2567762434482574,1.228563904762268,-0.8093465566635132,-0.2114916890859604,0.1434437334537506,-0.4811336398124695,0.0,0.0,-0.8605349659919739,0.9998371601104736
-0.2651806473731994,1.2235113382339478,-0.8144960403442383,-0.2222698479890823,0.1176087632775306,-0.5166996121406555,0.0,0.0,-0.8367268443107605,0.9997906684875488
-0.2736332416534424,1.2182263135910034,-0.8169044256210327,-0.2328916192054748,0.0894591882824897,-0.5629920363426208,0.0,0.0,-0.9459446668624878,0.9999983310699464
-0.2821598947048187,1.2127097845077517,-0.8225744962692261,-0.2436432540416717,0.0596684142947196,-0.5958157777786255,0.0,0.0,-0.8233092427253723,0.9999964237213136
-0.2907370924949646,1.2069498300552368,-0.825369656085968,-0.2550135552883148,0.0276976376771926,-0.6394160985946655,0.0,0.0,-0.9536312818527222,0.9978374242782592
-0.2993784546852112,1.200958013534546,-0.8299070596694946,-0.2660211324691772,-0.006091222167015,-0.6757776141166687,0.0,0.0,-0.9865625500679016,0.9999599456787108
-0.3080634176731109,1.194718599319458,-0.8319452404975891,-0.2778490483760834,-0.0421750247478485,-0.7216768264770508,0.0,0.0,-0.972643256187439,0.995426058769226
-0.3168233335018158,1.1882293224334717,-0.8380120396614075,-0.2899027168750763,-0.0797322541475296,-0.751145601272583,0.0,0.0,-0.959726631641388,0.9370484352111816
-0.3256371021270752,1.1814990043640137,-0.8415411710739136,-0.3017234206199646,-0.1192439794540405,-0.7902355194091797,0.0,0.0,-0.9403927326202391,0.941014528274536
-0.3344979882240295,1.1745184659957886,-0.844334602355957,-0.3141084611415863,-0.1608541309833526,-0.8322043418884277,0.0,0.0,-0.8535738587379456,0.8168370723724365
-0.3434227406978607,1.1672929525375366,-0.8493970632553101,-0.3263684511184692,-0.2040814012289047,-0.8645465970039368,0.0,0.0,-0.7694982290267944,0.3804655075073242
-0.3524821698665619,1.159832000732422,-0.8634679913520813,-0.3380335569381714,-0.2470847815275192,-0.8600686192512512,0.0,0.0,-0.8635606169700623,-0.8658775687217712
-0.3617366850376129,1.152149677276611,-0.8851972818374634,-0.3487356901168823,-0.2882636785507202,-0.8235786557197571,0.0,0.0,-0.8712061643600464,-0.8783668875694275
-0.3711994588375091,1.1442666053771973,-0.9087377786636353,-0.358258306980133,-0.3271204829216003,-0.7771364450454712,0.0,0.0,-0.768291175365448,-0.7664809823036194
-0.380838394165039,1.1361628770828247,-0.9282549023628236,-0.3686721622943878,-0.3644924461841583,-0.7474396228790283,0.0,0.0,-0.711819589138031,-0.8425695300102234
-0.3906654417514801,1.1278507709503174,-0.949350655078888,-0.3783257603645324,-0.3999505341053009,-0.7091619372367859,0.0,0.0,-0.4751912355422973,-0.6854695081710815
-0.4006702005863189,1.119318962097168,-0.969133198261261,-0.3883924782276153,-0.4337616860866546,-0.6762229204177856,0.0,0.0,-0.5202234387397766,-0.7113193869590759
-0.4108616709709167,1.110582709312439,-0.9901501536369324,-0.3975809216499328,-0.4655272364616394,-0.6353114247322083,0.0,0.0,-0.5968695878982544,-0.638839602470398
-0.4212183058261871,1.1016360521316528,-1.008512020111084,-0.4070325791835785,-0.4957258105278015,-0.6039720773696899,0.0,0.0,-0.5149449706077576,-0.673035740852356
-0.4317400455474853,1.0924639701843262,-1.0267622470855713,-0.4170860052108764,-0.5244399309158325,-0.5742822289466858,0.0,0.0,-0.4922256469726562,-0.5550167560577393
-0.4424158632755279,1.08307683467865,-1.0438075065612793,-0.426641970872879,-0.5517426133155823,-0.546055257320404,0.0,0.0,-0.0112675428390502,-0.7356106042861938
-0.4532676637172699,1.0734856128692627,-1.063583493232727,-0.4353629350662231,-0.5769534111022949,-0.5042158365249634,0.0,0.0,-0.1672707200050354,-0.8388084173202515
-0.4642974734306335,1.0637041330337524,-1.0837162733078003,-0.4432812333106994,-0.5997965335845947,-0.4568621218204498,0.0,0.0,-0.185210108757019,-0.7742487788200378
-0.4754877984523773,1.053716063499451,-1.1016110181808472,-0.4520139098167419,-0.6207595467567444,-0.4192604124546051,0.0,0.0,0.6191332340240479,-0.1284471750259399
-0.4864103198051452,1.0445914268493652,-1.0748636722564695,-0.4139958322048187,-0.6420078277587891,-0.4249657988548279,0.0,0.0,-0.0319567918777465,-0.5076629519462585
-0.4974683225154876,1.035240888595581,-1.0896995067596436,-0.423754870891571,-0.6619817018508911,-0.3994788527488708,0.0,0.0,0.5595762729644775,-0.5808467864990234
-0.5084682703018188,1.0261390209197998,-1.0853252410888672,-0.4122816026210785,-0.6804603934288025,-0.3695743680000305,0.0,0.0,0.472275972366333,-0.4981868267059326
-0.5193396806716919,1.0170594453811646,-1.0731480121612549,-0.4112144410610199,-0.6983455419540405,-0.3577027916908264,0.0,0.0,0.4623551368713379,-0.3932833671569824
-0.530135989189148,1.0080933570861816,-1.0659959316253662,-0.4062499105930328,-0.716042160987854,-0.3539320826530456,0.0,0.0,0.4961963891983032,-0.6564950346946716
-0.5405949950218201,0.999743402004242,-1.0338088274002075,-0.3782242238521576,-0.7319666147232056,-0.318489670753479,0.0,0.0,0.4874980449676513,0.0716172456741333
-0.5505974292755127,0.9918811917304992,-0.9888080358505248,-0.3563746511936188,-0.7472319602966309,-0.3053074181079864,0.0,0.0,0.7247829437255859,0.2734231948852539
-0.5601886510848999,0.9848174452781676,-0.9476951360702516,-0.3210979402065277,-0.762709379196167,-0.3095487058162689,0.0,0.0,0.4273726940155029,0.251692533493042
-0.5697402954101562,0.9779201149940492,-0.9437721371650696,-0.3139085471630096,-0.7783704400062561,-0.3132208883762359,0.0,0.0,0.8566176891326904,0.3701508045196533
-0.5787075757980347,0.9716638922691344,-0.8858915567398071,-0.2852722704410553,-0.7934855818748474,-0.3023032546043396,0.0,0.0,0.5086243152618408,0.5446722507476807
-0.5874060392379761,0.9657623171806335,-0.8584124445915222,-0.2701647877693176,-0.8097113966941833,-0.324517548084259,0.0,0.0,0.8188145160675049,0.678471565246582
-0.5956306457519531,0.9603888988494872,-0.8102927207946777,-0.2474668323993683,-0.8272659182548523,-0.3510914444923401,0.0,0.0,0.6448706388473511,0.3186955451965332
-0.6034027338027954,0.9554758071899414,-0.7654690146446228,-0.227005586028099,-0.8445313572883606,-0.3453090190887451,0.0,0.0,0.855143666267395,0.7122321128845215
-0.6106246709823608,0.9507740139961244,-0.7099770307540894,-0.2182925343513488,-0.8628590106964111,-0.3665527105331421,0.0,0.0,0.8104732036590576,0.7009081840515137
-0.6175493597984314,0.9460809230804444,-0.6797279119491577,-0.2186750620603561,-0.8824006915092468,-0.3908339142799377,0.0,0.0,0.8769934177398682,0.5318667888641357
-0.6240556240081787,0.9413856863975524,-0.6378186345100403,-0.2192469984292984,-0.9025254249572754,-0.4024948179721832,0.0,0.0,0.87310791015625,0.0717835426330566
-0.6299723386764526,0.9368362426757812,-0.5798723101615906,-0.2123360186815261,-0.921527624130249,-0.3800444006919861,0.0,0.0,0.9441285133361816,-0.8105498552322388
-0.6354668736457825,0.9323045611381532,-0.5394715666770935,-0.2103121131658554,-0.937982976436615,-0.329106867313385,0.0,0.0,0.9745368957519532,-0.7797200679779053
-0.6402809619903564,0.928392231464386,-0.4729193747043609,-0.1817005723714828,-0.9522718787193298,-0.2857781052589416,0.0,0.0,0.9603610038757324,-0.9719838500022888
-0.6443766951560974,0.9250461459159852,-0.4028129577636719,-0.1551248431205749,-0.963868260383606,-0.2319271564483642,0.0,0.0,0.9735853672027588,-0.9506038427352904
-0.6477559208869934,0.9220085740089417,-0.3328778743743896,-0.1398794949054718,-0.9726480841636658,-0.175596222281456,0.0,0.0,0.8997014760971069,-0.9926801323890686
-0.6507853865623474,0.9189541339874268,-0.2995592355728149,-0.1390929967164993,-0.9786123633384703,-0.1192852854728698,0.0,0.0,0.9464704990386964,-0.934521734714508
-0.653373122215271,0.916310727596283,-0.2567893266677856,-0.1194560900330543,-0.982121467590332,-0.0701818689703941,0.0,0.0,0.9132180213928224,-0.9883022308349608
-0.6550737619400024,0.9142008423805236,-0.1696880310773849,-0.0941518768668174,-0.982801616191864,-0.0136030940338969,0.0,0.0,0.3326377868652344,-0.9498049020767212
-0.6564063429832458,0.9123267531394958,-0.1343304812908172,-0.0822205618023872,-0.9808895587921144,0.0382412783801555,0.0,0.0,0.2811528444290161,-0.9893090724945068
-0.6572794318199158,0.9109424352645874,-0.0899363532662391,-0.0589172877371311,-0.976242184638977,0.0929464548826217,0.0,0.0,-0.0147635340690612,-0.952809512615204
-0.6581313610076904,0.909375011920929,-0.0891389697790145,-0.0657974556088447,-0.9693126082420348,0.1385910212993621,0.0,0.0,-0.3352293968200683,-0.8644244074821472
-0.6589598059654236,0.907636821269989,-0.0883347243070602,-0.07197055965662,-0.9598051309585572,0.1901491284370422,0.0,0.0,-0.1172528266906738,-0.8963557481765747
-0.6597618460655212,0.9057354927062988,-0.087387703359127,-0.0777473822236061,-0.9475409984588624,0.24528269469738,0.0,0.0,-0.7844603657722473,-0.9350042343139648
-0.660534679889679,0.9036609530448914,-0.0861705094575882,-0.0840695947408676,-0.9326504468917848,0.2978111207485199,0.0,0.0,-0.8039730191230774,-0.9585983157157898
-0.6612781882286072,0.9014313817024232,-0.0852740854024887,-0.0894349589943885,-0.9147372841835022,0.3582630157470703,0.0,0.0,-0.9333443641662598,-0.7847768664360046
-0.6619811058044434,0.8990296721458435,-0.0831360891461372,-0.0958233401179313,-0.8941969275474548,0.4108075201511383,0.0,0.0,-0.8642870783805847,-0.7165663838386536
-0.6626169681549072,0.8964244723320007,-0.077884241938591,-0.1041579097509384,-0.8719317317008972,0.4453036189079284,0.0,0.0,-0.9640925526618958,-0.5602661371231079
-0.6631816625595093,0.893602192401886,-0.0721509605646133,-0.1132566556334495,-0.8481670618057251,0.4752930700778961,0.0,0.0,-0.8323845863342285,0.2262125015258789
-0.663642942905426,0.8905224204063416,-0.0624820962548255,-0.1247801631689071,-0.8240519762039185,0.4823017716407776,0.0,0.0,-0.8820251822471619,0.3803907632827759
-0.6639964580535889,0.8871856331825256,-0.052380621433258,-0.1363060623407364,-0.7995884418487549,0.4892712235450744,0.0,0.0,-0.9055426716804504,-0.3636618852615356
-0.6642380356788635,0.8835920691490173,-0.0418771877884864,-0.1478344351053238,-0.7747784852981567,0.4961988925933838,0.0,0.0,-0.900995910167694,0.0193774700164794
-0.6643639206886292,0.8797420859336853,-0.031001154333353,-0.1593653261661529,-0.7496243715286255,0.5030825138092041,0.0,0.0,-0.9262284636497498,-0.6144711971282959
-0.6644026637077332,0.8756897449493408,-0.0240356493741273,-0.1678845286369323,-0.7227288484573364,0.537911057472229,0.0,0.0,-0.9502936601638794,-0.2985936999320984
-0.6643185019493103,0.8713828921318054,-0.0125030353665351,-0.1794253140687942,-0.6954941153526306,0.5446943044662476,0.0,0.0,-0.7850445508956909,-0.399044930934906
-0.6641086339950562,0.8668215870857239,-0.0006770368199795,-0.1909691393375396,-0.6679229140281677,0.5514257550239563,0.0,0.0,-0.7919984459877014,-0.1518412828445434
-0.663770318031311,0.8620064854621887,0.0114189917221665,-0.2025159746408462,-0.6400177478790283,0.5581032633781433,0.0,0.0,-0.9122048616409302,-0.2455506920814514
-0.6633011102676392,0.8569380640983582,0.0237632617354393,-0.2140659242868423,-0.6117814779281616,0.5647251605987549,0.0,0.0,-0.9192328453063964,0.1642496585845947
-0.6626988053321838,0.8516167998313904,0.0363355278968811,-0.2256190180778503,-0.5832170248031616,0.5712896585464478,0.0,0.0,-0.9289072155952454,0.0887949466705322
-0.6619612574577332,0.8460434079170227,0.0491170212626457,-0.2371752709150314,-0.5543272495269775,0.5777950882911682,0.0,0.0,-0.8926301598548889,0.2132049798965454
-0.6610866785049438,0.8402180671691895,0.0620903857052326,-0.2487347424030304,-0.5251152515411377,0.5842395424842834,0.0,0.0,-0.7494896054267883,0.6543254852294922
-0.6600213646888733,0.8340990543365479,0.0818801447749137,-0.2627125680446625,-0.4971920847892761,0.558463990688324,0.0,0.0,-0.9032432436943054,0.3643054962158203
-0.6588162779808044,0.8277281522750854,0.0951962918043136,-0.2742716372013092,-0.4689526557922363,0.5647883415222168,0.0,0.0,-0.8090819120407104,0.6719213724136353
