x_pos,y_pos,x_vel,y_vel,angle,ang_vel,leg_1,leg_2,main_booster,lat_booster
-0.0014818191993981,1.403419852256775,-0.1501572877168655,-0.3333460688591003,0.0017704220954328,0.0349234864115715,0.0,0.0,-0.452308177947998,0.2430130243301391
-0.0029215812683105,1.3957380056381226,-0.1457521617412567,-0.3414142727851867,0.0035177504178136,0.0349508076906204,0.0,0.0,-0.3422693014144897,0.8850417137145996
-0.0042344094254076,1.387845158576965,-0.1308978646993637,-0.3507942259311676,0.0031446164939552,-0.0074631934985518,0.0,0.0,-0.3131470084190368,0.4496699571609497
-0.0055049895308911,1.3797476291656494,-0.1266909539699554,-0.3598935306072235,0.0027857867535203,-0.0071774721145629,0.0,0.0,0.1349827051162719,0.0669457912445068
-0.0066459653899073,1.3721177577972412,-0.1141733899712562,-0.3391081094741821,0.0028595682233572,0.0014757135650143,0.0,0.0,-0.6680821180343628,0.6195375919342041
-0.0076849935576319,1.3642823696136477,-0.1024579778313636,-0.3482347130775451,0.0014325219672173,-0.0285431388765573,0.0,0.0,-0.268263041973114,0.2462149858474731
-0.0086817741394042,1.3562424182891846,-0.0982411131262779,-0.357327938079834,6.276872227317654e-06,-0.028527271002531,0.0,0.0,-0.4260355830192566,-0.0789211392402648
-0.0096364971250295,1.347998023033142,-0.0940240398049354,-0.3664231896400451,-0.001424916787073,-0.0286263637244701,0.0,0.0,-0.4667199850082397,-0.3852763175964355
-0.0105491634458303,1.3395488262176514,-0.0898070409893989,-0.3755192160606384,-0.0028653612826019,-0.0288116298615932,0.0,0.0,-0.6663172841072083,0.4022775888442993
-0.0114198680967092,1.3308950662612915,-0.0855909436941146,-0.3846152424812317,-0.0043196966871619,-0.0290895998477935,0.0,0.0,-0.668996274471283,-0.0278481841087341
-0.0122485160827636,1.322036623954773,-0.0813765823841095,-0.3937112689018249,-0.0057925740256905,-0.0294603742659091,0.0,0.0,-0.1048696637153625,-0.2184304594993591
-0.0130352973937988,1.3129737377166748,-0.0771647989749908,-0.4028073847293854,-0.0072886068373918,-0.0299234297126531,0.0,0.0,-0.8660747408866882,0.2702579498291015
-0.0137803079560399,1.3037060499191284,-0.0729564577341079,-0.4119035005569458,-0.008812359534204,-0.0304778926074504,0.0,0.0,-0.2703722715377807,0.5554466247558594
-0.014434814453125,1.2942280769348145,-0.0626307278871536,-0.4212657809257507,-0.0115961013361811,-0.0556798055768013,0.0,0.0,-0.7437775731086731,-0.7537503838539124
-0.0150931356474757,1.2845540046691897,-0.0641362890601158,-0.4299720525741577,-0.0132701806724071,-0.0334847569465637,0.0,0.0,-0.7623392343521118,-0.2866466045379638
-0.0157099720090627,1.2746752500534058,-0.059943925589323,-0.4390686452388763,-0.0149860000237822,-0.0343197099864482,0.0,0.0,-0.900881290435791,-0.690440833568573
-0.0163273811340332,1.2646008729934692,-0.0610241517424583,-0.4477550685405731,-0.0156894139945507,-0.0140696140006184,0.0,0.0,-0.7567876577377319,-0.5699560046195984
-0.0169379226863384,1.2543179988861084,-0.0611667223274707,-0.4570216834545135,-0.0155790261924266,0.002207797486335,0.0,0.0,-0.9640119671821594,-0.1584342718124389
-0.0175073631107807,1.243830323219299,-0.057004939764738,-0.4661179184913635,-0.015522408299148,0.0011323573999106,0.0,0.0,-0.9096934199333192,-0.6681180000305176
-0.0180956833064556,1.233138918876648,-0.0603615418076515,-0.4751510620117187,-0.0140186809003353,0.0300775319337844,0.0,0.0,-0.9371876120567322,0.0646301507949829
-0.0186433792114257,1.222243070602417,-0.0562271066009998,-0.4842474162578583,-0.0125769656151533,0.0288370698690414,0.0,0.0,-0.8548147678375244,-0.3749654293060303
-0.0191505439579486,1.2111425399780271,-0.0521057918667793,-0.4933439195156097,-0.0111998664215207,0.0275443140417337,0.0,0.0,-0.9332721829414368,-0.375723123550415
-0.0196172706782817,1.1998374462127686,-0.0479995124042034,-0.5024403929710388,-0.0098910769447684,0.0261780172586441,0.0,0.0,-0.8424637317657471,-0.639454185962677
-0.0200885776430368,1.1883213520050049,-0.0495235361158847,-0.5118160247802734,-0.0075304405763745,0.0472170151770114,0.0,0.0,-0.8389809727668762,-0.3451881408691406
-0.0205199234187603,1.176600456237793,-0.0454554483294487,-0.5209129452705383,-0.0052450858056545,0.0457113794982433,0.0,0.0,-0.9596035480499268,-0.4746667146682739
-0.0209117885679006,1.1646536588668823,-0.0414140038192272,-0.5309634804725647,-0.0030369989108294,0.0441618561744689,0.0,0.0,-0.8878598213195801,-0.2357839345932006
-0.0212640762329101,1.1525022983551023,-0.0373816527426242,-0.5400579571723938,-0.0009087576763704,0.0425645187497139,0.0,0.0,-0.8580541014671326,0.414592981338501
-0.0215770713984966,1.1401463747024536,-0.0333739146590232,-0.5491524934768677,0.0011372984154149,0.0409209206700325,0.0,0.0,-0.7778875827789307,0.0096708536148071
-0.0218511577695608,1.127585768699646,-0.0293931029736995,-0.5582469701766968,0.0030990028753876,0.0392342656850814,0.0,0.0,-0.8905393481254578,-0.0285720825195312
-0.0220866203308105,1.1148207187652588,-0.0254417266696691,-0.5673414468765259,0.0049743964336812,0.0375076383352279,0.0,0.0,-0.935493230819702,-0.23660808801651
-0.0222837440669536,1.101850986480713,-0.0215224903076887,-0.5764358043670654,0.0067616095766425,0.0357439815998077,0.0,0.0,-0.7797931432723999,-0.3651186227798462
-0.0224429126828908,1.088676929473877,-0.0176383107900619,-0.585530161857605,0.0084589114412665,0.0339459553360939,0.0,0.0,-0.9842363595962524,-0.5638049840927124
-0.0226153377443552,1.0753027200698853,-0.0201606880873441,-0.5944250226020813,0.0113394064828753,0.0576101131737232,0.0,0.0,-0.9191262125968932,0.5432310104370117
-0.022712230682373,1.06171977519989,-0.0115297976881265,-0.6037025451660156,0.0131613006815314,0.0364375039935112,0.0,0.0,-0.8953248858451843,0.1975499391555786
-0.0227724071592092,1.0479320287704468,-0.0077707068994641,-0.6127968430519104,0.0148889804258942,0.0345536731183528,0.0,0.0,-0.8540018200874329,-0.2228477001190185
-0.0227965358644723,1.0339399576187134,-0.0040608472190797,-0.6218910813331604,0.0165213141590356,0.0326466001570224,0.0,0.0,-0.857631266117096,0.1731775999069214
-0.0227849967777729,1.0197432041168213,-0.0004044793895445,-0.6309853196144104,0.0180572532117366,0.0307188369333744,0.0,0.0,-0.9309606552124025,-0.2285677194595337
-0.0227384567260742,1.00534188747406,0.0031938157044351,-0.6400794982910156,0.0194959007203578,0.0287729911506176,0.0,0.0,-0.9463425278663636,0.7532904148101807
-0.0226020812988281,0.9907459616661072,0.0137083576992154,-0.6487109065055847,0.0194356385618448,-0.0012055551633238,0.0,0.0,-0.8062968254089355,0.3606805801391601
-0.0224318504333496,0.9759451746940612,0.0171753950417041,-0.6578048467636108,0.0192766413092613,-0.0031802239827811,0.0,0.0,-0.8400183320045471,-0.5648655891418457
-0.0222814567387104,0.9609432220458984,0.0139606241136789,-0.6667721271514893,0.0203405059874057,0.0212773792445659,0.0,0.0,-0.9074464440345764,0.125139832496643
-0.0220990180969238,0.9457364678382874,0.0172738581895828,-0.6758662462234497,0.0213046912103891,0.0192834138870239,0.0,0.0,-0.5243772864341736,-0.0015482306480407
-0.0218852050602436,0.9303251504898072,0.0205007977783679,-0.6849603056907654,0.0221688486635684,0.0172833763062953,0.0,0.0,-0.6481547355651855,0.2421027421951294
-0.0216411594301462,0.9147092700004578,0.0236346833407878,-0.694054365158081,0.022932831197977,0.0152794914320111,0.0,0.0,-0.885205090045929,0.514754056930542
-0.0213296897709369,0.8988837599754333,0.031442753970623,-0.7033466696739197,0.0226423852145671,-0.005809071008116,0.0,0.0,-0.6767643094062805,-0.4040877819061279
-0.0209898948669433,0.8828537464141846,0.0343687906861305,-0.7124406099319458,0.0222516972571611,-0.0078137936070561,0.0,0.0,-0.779912531375885,0.3434202671051025
-0.0206231120973825,0.8666190505027771,0.0371793359518051,-0.7215346097946167,0.0217609126120805,-0.0098155057057738,0.0,0.0,-0.7997512817382812,-0.153770625591278
-0.0202303882688283,0.8501797318458557,0.0398662909865379,-0.7306285500526428,0.0211703162640333,-0.0118120750412344,0.0,0.0,-0.762886643409729,0.402437686920166
-0.0198132507503032,0.8335357308387756,0.0424212999641895,-0.739722490310669,0.0204802509397268,-0.0138012571260333,0.0,0.0,-0.4651120901107788,-0.1919693350791931
-0.0193728450685739,0.8166870474815369,0.0448358058929443,-0.7488164305686951,0.0196912195533514,-0.0157809015363454,0.0,0.0,-0.5285580158233643,0.1550023555755615
-0.0189108848571777,0.7996337413787842,0.0471011474728584,-0.7579103708267212,0.0188037808984518,-0.0177488196641206,0.0,0.0,-0.4177680015563965,0.4416073560714721
-0.0184287074953317,0.7823760509490967,0.0492086187005043,-0.7670043110847473,0.0178186371922492,-0.019702922552824,0.0,0.0,-0.1855604648590088,0.1862759590148925
-0.0179282184690237,0.7649134993553162,0.0511495694518089,-0.776098370552063,0.0167365837842226,-0.0216411538422107,0.0,0.0,-0.3447107672691345,0.7683281898498535
-0.0173500068485736,0.7472550272941589,0.0605765394866466,-0.7847918272018433,0.014021947979927,-0.0542927086353302,0.0,0.0,0.1779967546463012,-0.9006096124649048
-0.0167091377079486,0.729911208152771,0.0650726035237312,-0.7708313465118408,0.0130516933277249,-0.0194051750004291,0.0,0.0,-0.4065618515014648,0.412674069404602
-0.0160552971065044,0.71236252784729,0.0664644464850425,-0.7799254655838013,0.0119874943047761,-0.0212840158492326,0.0,0.0,-0.3737043142318725,-0.3223608732223511
-0.0153904911130666,0.6946094632148743,0.0676581114530563,-0.7890195846557617,0.0108305215835571,-0.0231394488364458,0.0,0.0,-0.4383583068847656,-0.3658692836761474
-0.014716625213623,0.6766518354415894,0.0686470493674278,-0.7981137633323669,0.0095820212736725,-0.0249698422849178,0.0,0.0,-0.4883127808570862,-0.5162592530250549
-0.0140717504546046,0.6584941744804382,0.0649324655532836,-0.8070002198219299,0.0091423448175191,-0.0087935347110033,0.0,0.0,-0.3608230352401733,0.0356166362762451
-0.0134221073240041,0.6401320099830627,0.0654956698417663,-0.8160942792892456,0.0086138658225536,-0.0105694234371185,0.0,0.0,-0.1914787292480468,-0.0008859038352966
-0.0127698900178074,0.6215651035308838,0.0658398121595382,-0.825188398361206,0.0079980585724115,-0.0123161682859063,0.0,0.0,-0.2296772003173828,-0.191569447517395
-0.0121173858642578,0.6027937531471252,0.0659622102975845,-0.8342824578285217,0.0072964173741638,-0.0140327662229537,0.0,0.0,0.7748451232910156,-0.8100212216377258
-0.0113889696076512,0.584649920463562,0.0717122629284858,-0.8063989877700806,0.0084046516567468,0.0221648849546909,0.0,0.0,-0.0916382074356079,0.2370836734771728
-0.0106646539643406,0.5663014650344849,0.0713879764080047,-0.8154930472373962,0.0094302045181393,0.0205111298710107,0.0,0.0,0.4366078376770019,-0.5925166606903076
-0.009989452548325,0.5482662916183472,0.0653580576181411,-0.8015782833099365,0.0115692308172583,0.0427802167832851,0.0,0.0,0.226100206375122,0.279581069946289
-0.0094195362180471,0.5306828022003174,0.0553289875388145,-0.7815011143684387,0.013203808106482,0.0326915495097637,0.0,0.0,0.2545937299728393,0.3554110527038574
-0.0088525768369436,0.5138697624206543,0.0550427325069904,-0.7472602128982544,0.0148359676823019,0.0326434895396232,0.0,0.0,-0.2395684123039245,-0.3575642704963684
-0.0082983970642089,0.4968521296977997,0.0538462176918983,-0.7563544511795044,0.0163920018821954,0.0311204250901937,0.0,0.0,0.3730378150939941,-0.4128190279006958
-0.0077480315230786,0.4806945621967315,0.0534230172634124,-0.7181337475776672,0.0179773773998022,0.0317076221108436,0.0,0.0,-0.7842934131622314,-0.5864545106887817
-0.0072682378813624,0.4643284380435943,0.0450899600982666,-0.7274224162101746,0.0208385288715362,0.0572234168648719,0.0,0.0,0.2606587409973144,0.140045166015625
-0.0068878172896802,0.448530375957489,0.0355403684079647,-0.7021722197532654,0.0233042780309915,0.0493149571120739,0.0,0.0,0.177992582321167,0.1489533185958862
-0.0065162656828761,0.4331940114498138,0.034614622592926,-0.6816591620445251,0.0258017964661121,0.0499504134058952,0.0,0.0,-0.8869592547416687,0.2522969245910644
-0.0061671258881688,0.4176530838012695,0.0324539616703987,-0.6907537579536438,0.028231207281351,0.0485884621739387,0.0,0.0,0.5967929363250732,0.0873602628707885
-0.0057868002913892,0.4027474224567413,0.0353172309696674,-0.6625270247459412,0.0309226177632808,0.0538279898464679,0.0,0.0,-0.4505161643028259,0.5242823362350464
-0.005392646882683,0.3876349329948425,0.0377486161887645,-0.6717022061347961,0.0325650013983249,0.03284777328372,0.0,0.0,0.4887099266052246,0.3707602024078369
-0.0049738883972167,0.3727599084377289,0.039993267506361,-0.6611524820327759,0.0344273224472999,0.0372464731335639,0.0,0.0,0.7751607894897461,0.3896563053131103
-0.0046299933455884,0.3582253456115722,0.0327231585979461,-0.6460217237472534,0.0360705368220806,0.0328640677034854,0.0,0.0,0.3820303678512573,0.3133054971694946
-0.0043468475341796,0.3444803357124328,0.0267512761056423,-0.6109263300895691,0.0376207418739795,0.0310041550546884,0.0,0.0,0.7723367214202881,0.6111407279968262
-0.0039870264008641,0.3318564891815185,0.0354574657976627,-0.5610713362693787,0.0381307750940322,0.0102004967629909,0.0,0.0,-0.5320345759391785,0.1019859313964843
-0.0036594390403479,0.3190281093120575,0.0323033519089221,-0.5701652765274048,0.0385830737650394,0.0090458206832408,0.0,0.0,0.590322732925415,0.4618971347808838
-0.0035017966292798,0.3064656257629394,0.0159508716315031,-0.5583245754241943,0.0384028889238834,-0.003603670746088,0.0,0.0,0.8230383396148682,0.6366398334503174
-0.0033136368729174,0.2950173914432525,0.0202095471322536,-0.5087763667106628,0.0370214432477951,-0.027628805488348,0.0,0.0,-0.6904236674308777,0.2791794538497925
-0.0031606673728674,0.2833645343780517,0.0167566370218992,-0.5178706049919128,0.035586442798376,-0.0286999978125095,0.0,0.0,0.0347315073013305,-0.0696111917495727
-0.0030928612686693,0.2721415758132934,0.0084394766017794,-0.4987591505050659,0.0339404195547103,-0.0329205207526683,0.0,0.0,-0.5587724447250366,0.3120560646057129
-0.0030617713928222,0.2607140243053436,0.0048234025016427,-0.5078533887863159,0.0322435908019542,-0.0339366048574447,0.0,0.0,0.1663408279418945,0.4421310424804687
-0.0030199051834642,0.2497005760669708,0.0056769871152937,-0.4894537627696991,0.0307820942252874,-0.0292300693690776,0.0,0.0,0.0680556297302246,-0.2498562932014465
-0.0030074119567871,0.2388150244951248,0.0027022208087146,-0.4837723672389984,0.0293434374034404,-0.0287733729928731,0.0,0.0,0.0318362712860107,0.4556361436843872
-0.0029830932617187,0.2281044274568557,0.0036701585631817,-0.4760010540485382,0.0281261149793863,-0.0243461653590202,0.0,0.0,0.4457049369812011,-0.3956267833709717
-0.0028831481467932,0.2179440110921859,0.0106622222810983,-0.4515652060508728,0.0274590905755758,-0.0133404899388551,0.0,0.0,0.5537741184234619,-0.6773885488510132
-0.0027432441711425,0.2081334888935089,0.0130571201443672,-0.4360379874706268,0.0283905826508998,0.0186298452317714,0.0,0.0,0.5211098194122314,-0.1272138357162475
-0.0026681900490075,0.1991552412509918,0.0066302842460572,-0.3990477621555328,0.0292554963380098,0.0172982066869735,0.0,0.0,0.0901128053665161,-0.0819044113159179
-0.0026278495788574,0.1907238066196441,0.0031018215231597,-0.3747510313987732,0.0301739033311605,0.0183679405599832,0.0,0.0,-0.1876853704452514,0.4324923753738403
-0.0026284218765795,0.1820877343416214,-0.0009484762558713,-0.3838451504707336,0.0310528520494699,0.0175791475921869,0.0,0.0,0.2673732042312622,-0.1360002160072326
-0.0026006698608398,0.1736260503530502,0.0015594208380207,-0.3761003613471985,0.0322517529129982,0.0239781457930803,0.0,0.0,0.5122315883636475,-0.6494065523147583
-0.0027334212791174,0.1656517386436462,-0.0156458877027034,-0.3544680774211883,0.0345963388681411,0.0468917079269886,0.0,0.0,0.475893497467041,0.1948326826095581
-0.002859020140022,0.158632144331932,-0.0152556132525205,-0.3120440542697906,0.0372557789087295,0.0531889572739601,0.0,0.0,-0.3909034132957458,0.5858665704727173
-0.0029821395874023,0.1514102816581726,-0.0138425305485725,-0.321008950471878,0.0387616418302059,0.0301174316555261,0.0,0.0,-0.3688586950302124,0.7357192039489746
-0.0031016350258141,0.1439932882785797,-0.0122688356786966,-0.3296548724174499,0.0390737131237983,0.0062416298314929,0.0,0.0,-0.0561054944992065,-0.3642607927322387
-0.0032636641990393,0.1363715976476669,-0.0164924599230289,-0.3387489318847656,0.0393557958304882,0.0056419488973915,0.0,0.0,0.1716784238815307,0.3173713684082031
-0.0035273551475256,0.1293405592441558,-0.0264446474611759,-0.3124929964542389,0.0394339375197887,0.0015628669643774,0.0,0.0,-0.3471438884735107,0.2420617341995239
-0.0038339614402502,0.1221048235893249,-0.0307080540806055,-0.3215871155261993,0.0394854769110679,0.001030835788697,0.0,0.0,-0.1385308504104614,-0.1970396041870117
-0.0041835783049464,0.1146645173430442,-0.0349887982010841,-0.330681174993515,0.0395121499896049,0.0005335193127393,0.0,0.0,0.5920207500457764,0.1939396858215332
-0.004711627960205,0.1078815311193466,-0.0522794239223003,-0.3014529049396515,0.0389956645667552,-0.0103295594453811,0.0,0.0,-0.2186994552612304,0.6294033527374268
-0.0052454946562647,0.1008946970105171,-0.0519020929932594,-0.3104880750179291,0.0375188142061233,-0.0295369084924459,0.0,0.0,0.1315157413482666,0.8679044246673584
-0.0056882859207689,0.094454824924469,-0.0410465933382511,-0.286139965057373,0.0343270972371101,-0.0638342946767807,0.0,0.0,0.0750806331634521,0.8049662113189697
-0.0060727121308445,0.0881690829992294,-0.033585000783205,-0.279261440038681,0.0295389555394649,-0.0957630947232246,0.0,0.0,0.012378454208374,0.3652098178863525
-0.0064255716279149,0.0823839530348777,-0.030842836946249,-0.2570378482341766,0.0251461546868085,-0.0878560245037078,0.0,0.0,0.0184623003005981,0.1817659139633178
-0.0068483352661132,0.0771112293004989,-0.0377447567880153,-0.234274074435234,0.0206741839647293,-0.0894393771886825,0.0,0.0,-0.3983253240585327,0.2101305723190307
-0.0073148729279637,0.0716340839862823,-0.0421105995774269,-0.2433698624372482,0.0161901991814374,-0.0896800607442855,0.0,0.0,-0.3387057781219482,-0.4780348539352417
-0.0078252796083688,0.0659526661038398,-0.0464845821261405,-0.2524656653404236,0.0116960508748888,-0.0898827835917472,0.0,0.0,0.0374480485916137,0.332775354385376
-0.0083900447934865,0.0608358010649681,-0.0518953800201416,-0.2273871600627899,0.0071727028116583,-0.0904669538140297,0.0,0.0,-0.2571788430213928,0.9267650842666626
-0.0089180944487452,0.0555237382650375,-0.0461577363312244,-0.2360719293355941,0.0006141702760942,-0.1311707347631454,0.0,0.0,-0.2855900526046753,-0.0930359363555908
-0.0094901081174612,0.0500076860189437,-0.0505516156554222,-0.2451696842908859,-0.0059487554244697,-0.1312586516141891,0.0,0.0,0.4710365533828735,0.2133781909942627
-0.0102117536589503,0.0451144091784954,-0.065001793205738,-0.2175247371196746,-0.013017987832427,-0.1413849294185638,0.0,0.0,0.4366248846054077,0.0036921501159667
-0.0110832210630178,0.0406908355653286,-0.0794597119092941,-0.1966922879219055,-0.0206041820347309,-0.1517238020896911,0.0,0.0,0.1067020893096923,0.8709423542022705
-0.011938857845962,0.0366276837885379,-0.0761266946792602,-0.1807400286197662,-0.0299260448664426,-0.1864372938871383,0.0,0.0,-0.4530952572822571,0.7411803007125854
-0.0127774234861135,0.032357107847929,-0.0728674456477165,-0.1900553405284881,-0.0407826639711856,-0.2171325236558914,0.0,0.0,-0.0079976320266723,0.2293612957000732
-0.0136601449921727,0.0278835389763116,-0.077282465994358,-0.1991593539714813,-0.0516341999173164,-0.2170308530330658,0.0,0.0,0.4123423099517822,-0.1016134619712829
-0.0144734382629394,0.024075947701931,-0.070750281214714,-0.1696198135614395,-0.0620934553444385,-0.2091850489377975,0.0,0.0,-0.098147451877594,-0.0168486833572387
-0.015330696478486,0.0200652927160263,-0.0751701220870018,-0.1787230521440506,-0.0725440233945846,-0.2090111970901489,0.0,0.0,0.2795641422271728,-0.5418342351913452
-0.0162039753049612,0.016205558553338,-0.0779796317219734,-0.172022670507431,-0.0817927345633506,-0.1849744617938995,0.0,0.0,0.3167943954467773,0.0282505750656127
