x_pos,y_pos,x_vel,y_vel,angle,ang_vel,leg_1,leg_2,main_booster,lat_booster
-0.0015480041038244,1.4029792547225952,-0.1566413938999176,-0.3529319763183594,0.0016505371313542,0.0325500443577766,0.0,0.0,-0.3074568488455313,0.7119006677492223
-0.0030625343788415,1.3944127559661863,-0.1514015942811966,-0.3807314932346344,0.0016018814640119,-0.0009727755677886,0.0,0.0,-0.7424423604195403,-0.8901099745390237
-0.0046610832214355,1.3851938247680664,-0.1610746681690216,-0.4097310304641723,0.0028052038978785,0.0240685101598501,0.0,0.0,0.4183196592736051,-0.5751414708216842
-0.0064492225646972,1.375970482826233,-0.1808083355426788,-0.4099352955818176,0.0047692419029772,0.0392846055328846,0.0,0.0,-0.6043279037593552,0.7707590871278904
-0.0081981662660837,1.3661046028137207,-0.1749034225940704,-0.4384858012199402,0.0047825761139392,0.0002668178931344,0.0,0.0,-0.6969088399615859,0.8118933933189357
-0.0099049564450979,1.3555927276611328,-0.1686064898967743,-0.467185378074646,0.0027354212943464,-0.0409472361207008,0.0,0.0,0.9646170923818576,-0.6301573862205017
-0.0117300990968942,1.3454654216766355,-0.1815426498651504,-0.4501034021377563,0.0017761343624442,-0.0191875360906124,0.0,0.0,-0.215321810629026,0.9033042452894974
-0.0135066034272313,1.33469557762146,-0.1743499785661697,-0.4786631464958191,-0.0014829714782536,-0.0651882141828537,0.0,0.0,-0.770374849061481,0.5814915060503844
-0.0152796749025583,1.323286771774292,-0.1728290617465973,-0.5070658922195435,-0.005925437901169,-0.0888571664690971,0.0,0.0,0.6174337379234551,-0.953382654407307
-0.0171679500490427,1.3123061656951904,-0.1861863136291504,-0.4880388677120209,-0.0085243862122297,-0.0519834384322166,0.0,0.0,-0.2808852679463312,-0.9675231658417196
-0.0191661827266216,1.300681710243225,-0.1988201439380645,-0.516652524471283,-0.0095133818686008,-0.0197818744927644,0.0,0.0,-0.9789133639102658,-0.5457505807201524
-0.0212483406066894,1.2884113788604736,-0.2081708014011383,-0.5453499555587769,-0.0095681091770529,-0.0010946204420179,0.0,0.0,0.941670118933328,-0.7892803362931561
-0.0232656486332416,1.276731252670288,-0.2036399841308593,-0.5191042423248291,-0.0076800640672445,0.0377646461129188,0.0,0.0,-0.0446975108608012,0.5266313396442022
-0.0252851489931345,1.2644000053405762,-0.202687531709671,-0.5480437874794006,-0.0069521251134574,0.0145602766424417,0.0,0.0,0.1624154606293872,0.5444858921117214
-0.0271976478397846,1.2522977590560913,-0.1911388784646988,-0.5378767848014832,-0.0070699551142752,-0.0023567688185721,0.0,0.0,-0.9813573940117202,0.9483071211737032
-0.0290721897035837,1.239538073539734,-0.1851134151220321,-0.567112922668457,-0.0093799782916903,-0.0462045185267925,0.0,0.0,0.9582176594776916,-0.6014145755380277
-0.0308615677058696,1.2276592254638672,-0.1783450543880462,-0.5279561877250671,-0.0099557172507047,-0.0115159954875707,0.0,0.0,-0.7995158563900515,0.8017789565399909
-0.0326245315372943,1.2151267528533936,-0.1737794727087021,-0.5570186376571655,-0.012441674247384,-0.0497236177325248,0.0,0.0,0.9264515457123126,-0.7345153506657756
-0.0343635566532611,1.2033588886260986,-0.1732446253299713,-0.5230287909507751,-0.0130993397906422,-0.0131544424220919,0.0,0.0,0.543168446643777,-0.9253015284008348
-0.0363071449100971,1.1917407512664795,-0.1955309808254242,-0.5163476467132568,-0.011939724907279,0.0231942608952522,0.0,0.0,-0.2402939484823782,0.9925563924122436
-0.0382093414664268,1.1794830560684204,-0.1890787929296493,-0.5448027849197388,-0.0130679132416844,-0.0225656013935804,0.0,0.0,-0.8746478672099613,-0.9768199514654304
-0.0402414314448833,1.166575908660889,-0.2041148692369461,-0.5736443996429443,-0.0121762594208121,0.0178346186876297,0.0,0.0,-0.3284085829522787,0.9812986012543584
-0.0422339439392089,1.153020262718201,-0.1978818327188491,-0.6024829745292664,-0.0135266538709402,-0.0270103011280298,0.0,0.0,0.2267555209448175,0.6184986474343994
-0.0441718101501464,1.139158010482788,-0.1914242357015609,-0.6161256432533264,-0.0158628653734922,-0.0467282682657241,0.0,0.0,0.660456444811452,-0.6861662294825936
-0.0463644973933696,1.1256273984909058,-0.2181051969528198,-0.6013768911361694,-0.0170157700777053,-0.0230605844408273,0.0,0.0,0.7900583760876114,-0.8694172067016992
-0.0488434806466102,1.1125847101211548,-0.2483322620391845,-0.5796672701835632,-0.0165787879377603,0.0087394826114177,0.0,0.0,-0.2899216056297911,-0.6729069544381164
-0.0514311790466308,1.0989023447036743,-0.2607471346855163,-0.6080868244171143,-0.0146252671256661,0.0390704944729805,0.0,0.0,0.8425849350115537,0.9147101140921248
-0.0541504845023155,1.0859664678573608,-0.2719863057136535,-0.5749233365058899,-0.0145695842802524,0.0011138308327645,0.0,0.0,-0.0081081978593351,0.966259796645538
-0.05686616897583,1.0723921060562134,-0.2703161835670471,-0.6033211946487427,-0.0158049687743186,-0.0247076619416475,0.0,0.0,0.7883680408355895,-0.9450456798990264
-0.0597302429378032,1.0589627027511597,-0.2872442007064819,-0.5968526601791382,-0.0149738593026995,0.0166219715029001,0.0,0.0,-0.0645576982788915,0.5634581917590112
-0.0626048073172569,1.0448933839797974,-0.2873818278312683,-0.6253073811531067,-0.0150577444583177,-0.0016773998504504,0.0,0.0,-0.9468223452568054,0.8954925537109375
-0.0654747039079666,1.0301719903945925,-0.2855829894542694,-0.6542967557907104,-0.0164398159831762,-0.0276416596025228,0.0,0.0,-0.4039965271949768,0.3565874099731445
-0.0684015303850174,1.0148053169250488,-0.2915452420711517,-0.6829763054847717,-0.0175564736127853,-0.0223333798348903,0.0,0.0,-0.4783963561058044,0.3896939754486084
-0.0713852867484092,0.9987933039665222,-0.2975292801856994,-0.7116557955741882,-0.0183955002576112,-0.0167805664241313,0.0,0.0,-0.3755825757980346,0.6112895011901855
-0.0743764862418174,0.9821357131004332,-0.297298789024353,-0.7403550744056702,-0.0201934371143579,-0.0359587892889976,0.0,0.0,-0.86601722240448,0.9479265213012696
-0.0773474723100662,0.9648376703262328,-0.2936162948608398,-0.7688493728637695,-0.0236319135874509,-0.0687694102525711,0.0,0.0,-0.8411452770233154,0.7871483564376831
-0.0803161635994911,0.9468884468078612,-0.2921876907348633,-0.79782634973526,-0.0282556880265474,-0.0924756452441215,0.0,0.0,-0.8964527249336243,0.6824877262115479
-0.0832846611738205,0.9282969832420348,-0.2910289168357849,-0.8264093399047852,-0.0339990332722663,-0.1148667931556701,0.0,0.0,-0.5904023051261902,0.9578866958618164
-0.0862393379211425,0.9090675711631776,-0.2881869375705719,-0.8548197150230408,-0.0411883331835269,-0.1437863260507583,0.0,0.0,-0.6790544986724854,0.812396764755249
-0.0891840010881424,0.8891904950141907,-0.2858251631259918,-0.8836885690689087,-0.0497258454561233,-0.1707503497600555,0.0,0.0,0.5274567604064941,0.3855149745941162
-0.0922488197684288,0.8697547316551208,-0.2977328896522522,-0.8641297221183777,-0.0583665780723094,-0.1728148758411407,0.0,0.0,-0.1875255107879638,0.5980832576751709
-0.0953139290213584,0.849668025970459,-0.2966946363449096,-0.8931522965431213,-0.0680792778730392,-0.194254070520401,0.0,0.0,0.9538156986236572,0.586066484451294
-0.0982430428266525,0.8294684886932373,-0.2826400399208069,-0.898260235786438,-0.078245609998703,-0.2033266127109527,0.0,0.0,0.9926743507385254,-0.0805228352546691
-0.1010601967573165,0.8095638155937195,-0.272392213344574,-0.8851655125617981,-0.0874779373407363,-0.1846464574337005,0.0,0.0,0.983790397644043,-0.5986063480377197
-0.1040030494332313,0.7895486354827881,-0.2864213585853576,-0.8900396227836609,-0.0952769368886947,-0.155979722738266,0.0,0.0,0.9679696559906006,0.6702830791473389
-0.106854535639286,0.7694602608680725,-0.2764820158481598,-0.8933938145637512,-0.1038673892617225,-0.1718088239431381,0.0,0.0,0.9971530437469482,0.2507398128509521
-0.1096337288618087,0.7495214939117432,-0.2700223922729492,-0.8867421746253967,-0.1117136180400848,-0.1569249778985977,0.0,0.0,0.9675236940383912,0.1171307563781738
-0.1124924644827842,0.730440080165863,-0.2777657806873321,-0.8486915826797485,-0.1197690665721893,-0.1611089259386062,0.0,0.0,0.9712395668029784,-0.1720920205116272
-0.1154531463980674,0.7121424078941345,-0.2876477837562561,-0.8139287233352661,-0.1281402111053466,-0.1674227863550186,0.0,0.0,0.9298080205917358,0.1955504417419433
-0.1184194535017013,0.6940881609916687,-0.2885334193706512,-0.8031259775161743,-0.1362029761075973,-0.161255344748497,0.0,0.0,0.976279616355896,0.5413651466369629
-0.1211275085806846,0.6763579845428467,-0.2626031041145324,-0.7887784838676453,-0.144383043050766,-0.1636013686656952,0.0,0.0,0.7168693542480469,-0.1461644768714904
-0.1238416656851768,0.6591319441795349,-0.2633741497993469,-0.7664054036140442,-0.1524058133363723,-0.1604553908109665,0.0,0.0,0.8539093732833862,-0.3417552709579468
-0.126415729522705,0.6419720649719238,-0.2503864169120788,-0.7633962035179138,-0.1594218760728836,-0.1403212249279022,0.0,0.0,0.9043819904327391,0.0261610746383667
-0.1288971900939941,0.6255275011062622,-0.2415831536054611,-0.7315902709960938,-0.165976732969284,-0.1310974806547165,0.0,0.0,0.7896052598953247,0.020254373550415
-0.1311889588832855,0.6091783046722412,-0.2238239496946334,-0.7272365093231201,-0.1713363230228424,-0.1071917861700058,0.0,0.0,0.893494725227356,-0.2826298475265503
-0.1335533112287521,0.5930094122886658,-0.2310374528169632,-0.7192507386207581,-0.176749512553215,-0.1082638353109359,0.0,0.0,0.7271251678466797,-0.0225244164466857
-0.1357312202453613,0.5773988366127014,-0.2132970094680786,-0.6943455934524536,-0.1812510341405868,-0.0900303646922111,0.0,0.0,0.735342264175415,-0.1235259771347045
-0.1376954019069671,0.5621480345726013,-0.1930638551712036,-0.6782271862030029,-0.1846212446689605,-0.0674043595790863,0.0,0.0,0.9003375768661499,0.0083668231964111
-0.1394578963518142,0.5476236343383789,-0.1737466007471084,-0.645841658115387,-0.1871296316385269,-0.0501678809523582,0.0,0.0,-0.0046203732490539,-0.1180167198181152
-0.1412768363952636,0.5324528813362122,-0.1798633486032486,-0.6745145916938782,-0.1891704052686691,-0.0408155918121337,0.0,0.0,0.7937500476837158,-0.4402080774307251
-0.1430219709873199,0.5172123312950134,-0.1732077002525329,-0.6775261759757996,-0.190483421087265,-0.026260295882821,0.0,0.0,0.9106158018112184,0.4224691390991211
-0.1447835862636566,0.5025529861450195,-0.1748007237911224,-0.6517040133476257,-0.1918593645095825,-0.0275184605270624,0.0,0.0,0.937497615814209,0.3092410564422607
-0.1463436186313629,0.4880987405776977,-0.1557724177837371,-0.6424400806427002,-0.192089095711708,-0.0045945332385599,0.0,0.0,0.9221761226654052,0.4414591789245605
-0.147796630859375,0.4740401804447174,-0.1456708908081054,-0.6247774362564087,-0.1917133331298828,0.0075152642093598,0.0,0.0,0.9801186323165894,0.2287598848342895
-0.1492047309875488,0.4600398540496826,-0.141706570982933,-0.6221215128898621,-0.190813273191452,0.0180011037737131,0.0,0.0,0.7792044878005981,0.8935153484344482
-0.1506237089633941,0.4463529288768768,-0.1412359625101089,-0.6083948016166687,-0.191471517086029,-0.0131652457639575,0.0,0.0,0.9132816791534424,0.5366101264953613
-0.151841253042221,0.4334653615951538,-0.1205888241529464,-0.572930634021759,-0.1926413625478744,-0.0233969893306493,0.0,0.0,0.7224699258804321,0.8661525249481201
-0.1528967916965484,0.4203231930732727,-0.1033059582114219,-0.5843926668167114,-0.1949118375778198,-0.0454093143343925,0.0,0.0,0.9378645420074464,-0.9519101977348328
-0.1538515985012054,0.4080304503440857,-0.0956689044833183,-0.5463184118270874,-0.1947139948606491,0.0039569963701069,0.0,0.0,0.9155831336975098,0.9397916793823242
-0.1548012793064117,0.3959082961082458,-0.0935653001070022,-0.5389459729194641,-0.1961264014244079,-0.0282477885484695,0.0,0.0,0.9854592084884644,-0.0112442970275878
-0.1557553261518478,0.3843691349029541,-0.0939889401197433,-0.5130429267883301,-0.1975582689046859,-0.0286369826644659,0.0,0.0,0.9106987714767456,0.5881459712982178
-0.1565398275852203,0.3732182383537292,-0.0764434561133384,-0.4958639144897461,-0.1995744407176971,-0.0403236038982868,0.0,0.0,0.8079003095626831,-0.1051700711250305
-0.1573334634304046,0.362821489572525,-0.0772072747349739,-0.4623729586601257,-0.2017495185136795,-0.0435016863048076,0.0,0.0,0.7592372894287109,0.8861780166625977
-0.1579044312238693,0.3526346683502197,-0.0537933707237243,-0.4531982839107513,-0.205066829919815,-0.0663466602563858,0.0,0.0,0.4912205934524536,-0.5331112742424011
-0.158530905842781,0.3423385620117187,-0.060836486518383,-0.4578589498996734,-0.206901416182518,-0.0366918705403804,0.0,0.0,0.8868772983551025,0.0911566019058227
-0.1590585708618164,0.331916868686676,-0.0517938919365406,-0.4633221626281738,-0.2078813165426254,-0.019597889855504,0.0,0.0,0.924588680267334,-0.011343777179718
-0.1595936715602874,0.3214402198791504,-0.0528598017990589,-0.4657181203365326,-0.2085355371236801,-0.0130846668034791,0.0,0.0,0.688489556312561,0.2924374341964721
-0.1600219756364822,0.3115092515945434,-0.0426287949085235,-0.4414049088954925,-0.2087330371141433,-0.0039500533603131,0.0,0.0,0.8345551490783691,0.3516302108764648
-0.1602277755737304,0.3022332489490509,-0.0212830267846584,-0.4121678471565246,-0.2080228626728058,0.0142036210745573,0.0,0.0,0.7767491340637207,0.1833605766296386
-0.1604218482971191,0.2936379611492157,-0.0200527310371398,-0.3819202780723572,-0.2073742449283599,0.0129723949357867,0.0,0.0,-0.1404257416725158,0.438388466835022
-0.1606672257184982,0.2843960523605346,-0.0256754718720912,-0.410591572523117,-0.206228882074356,0.0229072384536266,0.0,0.0,0.1316771507263183,-0.2471214532852172
-0.1608254462480545,0.275294154882431,-0.0175784565508365,-0.4042894244194031,-0.2044590562582016,0.0353967398405075,0.0,0.0,0.4853821992874145,0.1568043231964111
-0.1610179841518402,0.2663332223892212,-0.0210875906050205,-0.3980096876621246,-0.2026142030954361,0.0368970483541488,0.0,0.0,0.5080564022064209,0.2385486364364624
-0.1611846983432769,0.2576500177383423,-0.0187601577490568,-0.3856385052204132,-0.2005047500133514,0.042188923805952,0.0,0.0,0.3668314218521118,0.5696568489074707
-0.1612511575222015,0.2491631358861923,-0.0080748777836561,-0.3770000636577606,-0.1990654170513153,0.0287865847349166,0.0,0.0,0.2849146127700805,-0.4544590711593628
-0.1612098664045334,0.2406749129295349,0.0018948428332805,-0.3769542574882507,-0.1968174278736114,0.0449598357081413,0.0,0.0,0.0741139650344848,0.1997609138488769
-0.161157414317131,0.2318630963563919,0.0024482174776494,-0.3912681341171264,-0.194003939628601,0.0562698766589164,0.0,0.0,0.024072527885437,0.5045727491378784
-0.1610023528337478,0.222738578915596,0.0131090190261602,-0.4052232801914215,-0.1916029900312423,0.0480189397931098,0.0,0.0,0.7452116012573242,0.0425347089767456
-0.1606257408857345,0.2138115465641021,0.0340718515217304,-0.3962979316711426,-0.1879908442497253,0.0722430497407913,0.0,0.0,0.5132993459701538,-0.7163947820663452
-0.1601443290710449,0.2047416120767593,0.0423669070005416,-0.4023874700069427,-0.182195708155632,0.1159028559923172,0.0,0.0,0.4403877258300781,0.3373616933822632
-0.1595929116010666,0.1959932446479797,0.0489008501172065,-0.3880634903907776,-0.1759336739778518,0.1252410560846328,0.0,0.0,0.1456214189529419,0.5805495977401733
-0.1589229553937912,0.1873617470264434,0.061378538608551,-0.3829678893089294,-0.170304998755455,0.1125732213258743,0.0,0.0,-0.0454548001289367,-0.3676785230636596
-0.1582944840192794,0.1780843138694763,0.0567316524684429,-0.4116434156894684,-0.164189726114273,0.1223054751753807,0.0,0.0,0.8451766967773438,0.2755454778671264
-0.1575357466936111,0.1686729788780212,0.0687608942389488,-0.4175113141536712,-0.1570686548948288,0.1424213349819183,0.0,0.0,0.6228834390640259,0.3095808029174804
-0.1567885428667068,0.1593692898750305,0.067337155342102,-0.4127384722232818,-0.1497036665678024,0.1472997218370437,0.0,0.0,0.6487487554550171,0.6196295022964478
-0.1558111160993576,0.1506729274988174,0.090905025601387,-0.3858307898044586,-0.1428772062063217,0.1365291625261306,0.0,0.0,0.3514822721481323,-0.2877928018569946
-0.1548223495483398,0.1420263350009918,0.0916348025202751,-0.3836149573326111,-0.1356609910726547,0.1443247199058532,0.0,0.0,0.6972440481185913,0.5028988122940063
-0.1538526564836502,0.1339728385210037,0.0906402021646499,-0.3573689460754394,-0.1293558180332183,0.1261032074689865,0.0,0.0,0.754077672958374,-0.6527296900749207
-0.1527721434831619,0.1263701021671295,0.0996858030557632,-0.3372014760971069,-0.1210340410470962,0.1664355099201202,0.0,0.0,0.487847089767456,0.2942925691604614
-0.1516892462968826,0.1191369369626045,0.0996796935796737,-0.3207978308200836,-0.1124660298228263,0.1713597327470779,0.0,0.0,0.7799389362335205,0.3713020086288452
-0.150633618235588,0.1124761924147605,0.0968725755810737,-0.295402467250824,-0.1038445383310318,0.1724298596382141,0.0,0.0,-0.1474901437759399,0.405987024307251
-0.1496056616306305,0.1051705703139305,0.0936417430639267,-0.3240844011306762,-0.0947608724236488,0.1816729009151458,0.0,0.0,0.9526033401489258,0.8844186067581177
-0.1486171782016754,0.0982938110828399,0.0913095027208328,-0.3051734566688537,-0.0872779637575149,0.1496581137180328,0.0,0.0,0.909063458442688,-0.3215556144714355
-0.1477726995944976,0.0916990116238594,0.0772517472505569,-0.2926984429359436,-0.0801454558968544,0.1426500827074051,0.0,0.0,0.7772852182388306,0.9463626146316528
-0.1466860771179199,0.0855962336063385,0.1027032881975174,-0.2709298133850097,-0.0742516070604324,0.1178768649697303,0.0,0.0,0.3984639644622803,-0.0864728093147277
-0.1455439627170562,0.0793096423149108,0.1075666323304176,-0.279090404510498,-0.0676731243729591,0.1315698474645614,0.0,0.0,0.5894477367401123,0.7431137561798096
-0.1441570222377777,0.0734604895114898,0.1328004300594329,-0.2597081363201141,-0.0618444643914699,0.1165731698274612,0.0,0.0,0.7108659744262695,0.2293359041213989
-0.1427590399980545,0.0681714639067649,0.1335838288068771,-0.2348240166902542,-0.0556918233633041,0.1230526715517044,0.0,0.0,0.361830472946167,0.7470598220825195
-0.1411435157060623,0.0632848367094993,0.1561980545520782,-0.21699258685112,-0.0504050068557262,0.1057362183928489,0.0,0.0,0.4429574012756347,0.0788390636444091
-0.1394462585449218,0.0585064999759197,0.1636378467082977,-0.2121807485818863,-0.0443889014422893,0.1203225031495094,0.0,0.0,0.287244439125061,-0.2998293042182922
-0.1377342194318771,0.054036721587181,0.1647153496742248,-0.1984781324863433,-0.0379845686256885,0.1280867457389831,0.0,0.0,0.2911983728408813,0.2817471027374267
-0.1359570473432541,0.0498419627547264,0.1706030070781707,-0.1862699538469314,-0.0309540145099163,0.1406112015247345,0.0,0.0,0.2109236717224121,0.2672607898712158
-0.1341135948896408,0.0455035790801048,0.1765487045049667,-0.1926769763231277,-0.0232511907815933,0.1540563404560089,0.0,0.0,0.3829963207244873,-0.2710763216018677
-0.1323611289262771,0.0413002334535121,0.1675214767456054,-0.1867134869098663,-0.0156312528997659,0.1523988842964172,0.0,0.0,0.4910231828689575,-0.1527241468429565
-0.1307157576084137,0.0371518246829509,0.156978040933609,-0.1843154579401016,-0.0081652551889419,0.1493198126554489,0.0,0.0,0.6191086769104004,0.4669504165649414
-0.1290830671787262,0.033187661319971,0.1554321497678756,-0.1761595457792282,-0.0004243960720486,0.154817134141922,0.0,0.0,0.3072417974472046,-0.0991036891937255
-0.1274233758449554,0.0292122699320316,0.1576632559299469,-0.1767057329416275,0.0077739325352013,0.1639667004346847,0.0,0.0,0.5109609365463257,-0.0319310426712036
-0.1256382912397384,0.0250873193144798,0.1692830175161361,-0.1834084391593933,0.0168765150010585,0.1820515990257263,0.0,0.0,0.7904303073883057,0.3725581169128418
-0.1237495392560958,0.0214322190731763,0.178824782371521,-0.1625885814428329,0.0268080998212099,0.1986317038536071,0.0,0.0,0.7072384357452393,0.4178063869476318
-0.1218442916870117,0.0183842275291681,0.1800121515989303,-0.1356838494539261,0.0371877513825893,0.2075933516025543,0.0,0.0,0.2234950065612793,-0.1450027823448181
