x_pos,y_pos,x_vel,y_vel,angle,ang_vel,leg_1,leg_2,main_booster,lat_booster
-0.0015538216102868,1.403125882148743,-0.1571196764707565,-0.3464136123657226,0.0015540649183094,0.0306397434324026,0.0,0.0,-0.8077962531681466,-0.9812884165637346
-0.0032082558609545,1.3948512077331543,-0.1685263663530349,-0.3677707612514496,0.0046059191226959,0.0610436871647834,0.0,0.0,0.6016869366054252,-0.9172835945245676
-0.0048205377534031,1.3866589069366455,-0.1661424338817596,-0.3641272187232971,0.0094574866816401,0.0970405787229538,0.0,0.0,0.6393793712266396,-0.7755468324080098
-0.0066578863188624,1.378706455230713,-0.1896833479404449,-0.3534906506538391,0.01534612942487,0.1177835315465927,0.0,0.0,0.6138344716467539,-0.5780122155939571
-0.0084431646391749,1.3712152242660522,-0.1857733130455017,-0.3330414593219757,0.0225074682384729,0.1432398855686187,0.0,0.0,0.8650712203382969,-0.6542204375772127
-0.0101550100371241,1.3641481399536133,-0.1799611300230026,-0.3142451643943786,0.031181413680315,0.1734954863786697,0.0,0.0,0.1818399539154434,-0.6608455676405993
-0.0119772907346487,1.3571996688842771,-0.1920605599880218,-0.309063047170639,0.0409093387424945,0.1945763975381851,0.0,0.0,0.8095835765145016,0.6648494854073805
-0.0136266704648733,1.3508312702178955,-0.1736639142036438,-0.2832974791526794,0.0495503358542919,0.1728357225656509,0.0,0.0,-0.5883319422657785,-0.777032662437487
-0.0153647419065237,1.3439689874649048,-0.1838981658220291,-0.3053555786609649,0.0595402754843235,0.1998172104358673,0.0,0.0,0.7818143599304248,-0.794926221303486
-0.0172386169433593,1.337781548500061,-0.1988372206687927,-0.2754822373390198,0.07088453322649,0.2269059121608734,0.0,0.0,0.925751578884781,-0.8480997325856876
-0.0191433914005756,1.3321393728256226,-0.2036322057247162,-0.2514461278915405,0.0839316770434379,0.2609668374061584,0.0,0.0,0.458081821869623,-0.5715810957435887
-0.0210887901484966,1.3266990184783936,-0.2087803184986114,-0.2426537126302719,0.0980631783604621,0.28265580534935,0.0,0.0,0.9509822157169674,0.6295880859215014
-0.0229256637394428,1.322029948234558,-0.1968969404697418,-0.2084376513957977,0.1111890748143196,0.2625420689582824,0.0,0.0,0.602477741132819,-0.7965093660533902
-0.0248116496950387,1.3173723220825195,-0.2033127844333648,-0.2081704884767532,0.1258311867713928,0.2928686738014221,0.0,0.0,-0.1833581996127569,-0.7091580538377688
-0.0267630573362112,1.3122177124023438,-0.2106921225786209,-0.2304766476154327,0.1413477957248687,0.3103606104850769,0.0,0.0,-0.1117295506272191,-0.5567126478305744
-0.0287707336246967,1.3065534830093384,-0.2170060575008392,-0.2533689737319946,0.1575761288404464,0.3245962262153625,0.0,0.0,-0.9062621210532388,-0.7136110523864811
-0.0308429710566997,1.300391674041748,-0.224310427904129,-0.2757596373558044,0.1747025996446609,0.3425604104995727,0.0,0.0,0.6911434103440199,-0.5312341930697267
-0.0328892692923545,1.294326663017273,-0.222960352897644,-0.2718219757080078,0.1931338161230087,0.3686581254005432,0.0,0.0,-0.472951222868968,-0.765556069219808
-0.0350056663155555,1.2877594232559204,-0.2309772074222564,-0.2945185005664825,0.2126573324203491,0.3905055522918701,0.0,0.0,0.2645094685776175,-0.8676753402293395
-0.037368107587099,1.2812888622283936,-0.2569978833198547,-0.290702611207962,0.233683556318283,0.420562744140625,0.0,0.0,-0.3112819184185396,0.640955606895661
-0.0396897308528423,1.2743496894836426,-0.2510958313941955,-0.3115187585353851,0.2529588639736175,0.3855410814285278,0.0,0.0,0.9201279101045394,-0.5393262601896271
-0.0421837791800498,1.26764976978302,-0.2691736817359924,-0.3013120889663696,0.2731918692588806,0.4046963155269623,0.0,0.0,-0.0114123137625203,-0.7009503507311766
-0.0447357185184955,1.260437250137329,-0.2757647633552551,-0.3245428800582886,0.2943653762340545,0.4235084056854248,0.0,0.0,0.2684888487100463,-0.9417973996493988
-0.0473822578787803,1.253060221672058,-0.2868087887763977,-0.3325106799602508,0.3173207342624664,0.4591488838195801,0.0,0.0,-0.7711298658055465,-0.9206193157978068
-0.0501297004520893,1.2451512813568115,-0.298788845539093,-0.3569702804088592,0.3424278497695923,0.5021870136260986,0.0,0.0,-0.9778476008163676,-0.5372938970564813
-0.0529370307922363,1.2367072105407717,-0.3057276904582977,-0.3814564943313598,0.3687392771244049,0.5262287855148315,0.0,0.0,0.0698702484369759,0.6876365306341932
-0.0558753982186317,1.2284648418426514,-0.3171074986457824,-0.3725262880325317,0.3934802412986755,0.4948200285434723,0.0,0.0,-0.5456948619585227,0.6390436743091058
-0.0587916374206543,1.2197587490081787,-0.313561737537384,-0.3931866586208343,0.4170305430889129,0.471006691455841,0.0,0.0,0.9073242067271374,-0.5322546234252279
-0.0622671134769916,1.2116683721542358,-0.3697130680084228,-0.3663154542446136,0.441078245639801,0.4809538722038269,0.0,0.0,-0.911422234304238,-0.786353014193632
-0.0658103972673416,1.2030422687530518,-0.377664715051651,-0.3909378349781036,0.4666875898838043,0.5121870636940002,0.0,0.0,-0.2540229328403407,0.9262589627678144
-0.0693005546927452,1.1939836740493774,-0.3701319098472595,-0.4098799526691437,0.4901467263698578,0.4691828787326813,0.0,0.0,-0.8940744996070862,0.9582393169403076
-0.0727407485246658,1.184472680091858,-0.363200694322586,-0.4296925663948059,0.5117287635803223,0.4316409528255462,0.0,0.0,-0.9304291605949402,0.9857956171035768
-0.0761342048645019,1.1745238304138184,-0.3566182553768158,-0.4487618803977966,0.5313739776611328,0.3929044604301452,0.0,0.0,-0.8754681944847107,0.9780467748641968
-0.0794729217886924,1.1641240119934082,-0.3492447137832641,-0.4683489501476288,0.5490577220916748,0.3536754250526428,0.0,0.0,-0.8394019603729248,0.9405914545059204
-0.0827542319893837,1.1532883644104004,-0.341472178697586,-0.4871100485324859,0.5645658373832703,0.3101625740528106,0.0,0.0,-0.9220400452613832,0.9644159078598022
-0.0859778374433517,1.1420238018035889,-0.3336694538593292,-0.505486011505127,0.5778289437294006,0.2652619183063507,0.0,0.0,-0.9117017388343812,0.9863678216934204
-0.0891420394182205,1.1303173303604126,-0.3258520066738128,-0.5244256854057312,0.5889738202095032,0.2228978127241134,0.0,0.0,-0.931219756603241,0.93741774559021
-0.0922476798295974,1.118183135986328,-0.3180376887321472,-0.5426512360572815,0.5978655815124512,0.1778350174427032,0.0,0.0,-0.8749058246612549,0.9950548410415648
-0.0953001976013183,1.1056203842163086,-0.3109072148799896,-0.5609340071678162,0.6046421527862549,0.1355312168598175,0.0,0.0,-0.9301160573959352,0.9686392545700072
-0.0982896834611892,1.092626929283142,-0.3026992678642273,-0.5792248249053955,0.6091407537460327,0.0899721384048461,0.0,0.0,-0.9697073698043824,0.7676479816436768
-0.101242259144783,1.0791815519332886,-0.2977822721004486,-0.598750114440918,0.6121820211410522,0.0608254447579383,0.0,0.0,-0.935960590839386,0.8636317253112793
-0.1041280776262283,1.06530499458313,-0.2891698777675628,-0.6170122623443604,0.6128998398780823,0.01435689907521,0.0,0.0,-0.9809538722038268,0.4916729927062988
-0.1070133224129676,1.0509294271469116,-0.2890557646751404,-0.6391703486442566,0.6135461926460266,0.012927415780723,0.0,0.0,-0.9455034136772156,0.5439808368682861
-0.1098567023873329,1.0360959768295288,-0.2836937308311462,-0.658948540687561,0.6127572655677795,-0.0157781280577182,0.0,0.0,-0.9290534853935242,0.4478867053985595
-0.1126985549926757,1.020763635635376,-0.283484011888504,-0.6811071038246155,0.6119067668914795,-0.0170104596763849,0.0,0.0,-0.971755862236023,0.1454249620437622
-0.115538403391838,1.0049322843551636,-0.2832311987876892,-0.703265905380249,0.6109994053840637,-0.0181472096592187,0.0,0.0,-0.89467853307724,0.3824646472930908
-0.1183757781982421,0.9886020421981812,-0.2829386591911316,-0.7254248857498169,0.6100399494171143,-0.019189354032278,0.0,0.0,-0.971511960029602,-0.0785393714904785
-0.1212101951241493,0.9717724919319152,-0.2826097011566162,-0.7475841641426086,0.6090329885482788,-0.0201393663883209,0.0,0.0,-0.9682623744010924,-0.024023413658142
-0.1240414604544639,0.9544442892074584,-0.28224778175354,-0.7697436809539795,0.6079829931259155,-0.0209999810904264,0.0,0.0,-0.9443094730377196,0.1394863128662109
-0.1268691122531891,0.9366169571876526,-0.2818564772605896,-0.7919033765792847,0.606894314289093,-0.021773125976324,0.0,0.0,-0.9495151042938232,-0.0179675817489624
-0.1296928375959396,0.9182907938957214,-0.2814393639564514,-0.814063310623169,0.6057712435722351,-0.0224613454192876,0.0,0.0,-0.9225691556930542,0.1225943565368652
-0.132512480020523,0.8994657397270203,-0.2810000777244568,-0.8362234234809875,0.6046178936958313,-0.0230672415345907,0.0,0.0,-0.9327526688575744,0.2315670251846313
-0.1353277266025543,0.8801419138908386,-0.2805424332618713,-0.8583837747573853,0.6034381985664368,-0.0235940292477607,0.0,0.0,-0.9376006126403807,-0.1920607686042785
-0.1381383836269378,0.860319197177887,-0.2800702154636383,-0.8805443048477173,0.6022359728813171,-0.0240443311631679,0.0,0.0,-0.9257566332817078,0.1864645481109619
-0.1409444808959961,0.8399979472160339,-0.2795872092247009,-0.9027050137519836,0.6010149121284485,-0.0244213957339525,0.0,0.0,-0.7526143789291382,0.6501367092132568
-0.1437095701694488,0.8192114233970642,-0.2744994759559631,-0.922920286655426,0.5986036062240601,-0.0482261255383491,0.0,0.0,-0.5590283870697021,0.8179521560668945
-0.1464122831821441,0.7979946732521057,-0.2665137648582458,-0.9412696361541748,0.5941290855407715,-0.0894909873604774,0.0,0.0,-0.6872076988220215,0.5875575542449951
-0.1490646302700042,0.7763287425041199,-0.2601545453071594,-0.9606620669364928,0.5880864858627319,-0.1208530515432357,0.0,0.0,-0.3669230937957763,0.969258189201355
-0.1516457498073578,0.7542431950569153,-0.2510132193565368,-0.9784461855888368,0.5796782374382019,-0.1681653559207916,0.0,0.0,-0.0816977620124816,0.9918923377990724
-0.1541694700717926,0.7317225337028503,-0.2436329424381256,-0.997141659259796,0.5693928003311157,-0.2057089358568191,0.0,0.0,0.2285257577896118,0.9808191061019896
-0.1567328423261642,0.7091431617736816,-0.2457286566495895,-0.999058723449707,0.5570181608200073,-0.2474925220012664,0.0,0.0,-0.1275646090507507,0.8540248870849609
-0.1592470109462738,0.6861147880554199,-0.2394161969423294,-1.018567681312561,0.5431183576583862,-0.2779960036277771,0.0,0.0,0.6808570623397827,0.949160099029541
-0.1618451178073883,0.6634306311607361,-0.2460927516222,-1.00275719165802,0.5273728370666504,-0.3149099051952362,0.0,0.0,0.6842904090881348,0.8840277194976807
-0.1646726578474044,0.6411342024803162,-0.2672926783561706,-0.9850531220436096,0.5097941160202026,-0.3515759408473968,0.0,0.0,0.488659143447876,0.8939809799194336
-0.1676040589809417,0.6188674569129944,-0.275866687297821,-0.9833280444145204,0.4903526902198791,-0.3888284265995025,0.0,0.0,0.7977454662322998,0.6639754772186279
-0.1709192246198654,0.596892237663269,-0.3125031590461731,-0.9700641632080078,0.4691879749298095,-0.4232947826385498,0.0,0.0,0.8328936100006104,0.8888452053070068
-0.1745802909135818,0.5757686495780945,-0.345228374004364,-0.9319475889205932,0.4462011158466339,-0.459737479686737,0.0,0.0,0.8714731931686401,0.8617770671844482
-0.1782277077436447,0.5547022819519043,-0.3421663343906402,-0.9292890429496764,0.4216296970844269,-0.4914285242557525,0.0,0.0,0.8925470113754272,0.4781355857849121
-0.1822469681501388,0.5345020294189453,-0.3792501389980316,-0.8912066221237183,0.3972170948982239,-0.4882521033287048,0.0,0.0,0.9224209785461426,0.7678570747375488
-0.186532974243164,0.5145359039306641,-0.4039682447910309,-0.8807216286659241,0.3709796667098999,-0.5247493982315063,0.0,0.0,0.805461049079895,0.7824997901916504
-0.1911340653896331,0.4950915873050689,-0.4335048198699951,-0.8575447797775269,0.3429271876811981,-0.5610502362251282,0.0,0.0,0.5648226737976074,0.659874677658081
-0.1958568543195724,0.4760351777076721,-0.4441642165184021,-0.8405391573905945,0.3136062622070312,-0.5864183306694031,0.0,0.0,0.7293522357940674,0.7886860370635986
-0.200938418507576,0.4577217102050781,-0.4779601693153381,-0.8077122569084167,0.2824079394340515,-0.6239672899246216,0.0,0.0,0.821648120880127,0.074695348739624
-0.2061225920915603,0.4398731291294098,-0.488332986831665,-0.7877504825592041,0.2516046166419983,-0.6160667538642883,0.0,0.0,0.8690332174301147,0.6043522357940674
-0.2114129513502121,0.4221795797348022,-0.4974227547645569,-0.7812879681587219,0.2194963842630386,-0.6421652436256409,0.0,0.0,0.4944016933441162,0.2530806064605713
-0.2167113721370697,0.4044511616230011,-0.4982995390892029,-0.7835509181022644,0.1876934468746185,-0.6360589861869812,0.0,0.0,0.812557578086853,0.7460237741470337
-0.2220621109008789,0.3867855072021484,-0.5017834901809692,-0.7812684178352356,0.1543371826410293,-0.6671261787414551,0.0,0.0,0.672060489654541,0.5707149505615234
-0.2275063544511795,0.3698395788669586,-0.5098114609718323,-0.7499238848686218,0.1198334470391273,-0.6900750994682312,0.0,0.0,0.4500486850738525,0.6032042503356934
-0.2329191267490387,0.353505939245224,-0.5054817199707031,-0.72345370054245,0.0843084529042244,-0.7105003595352173,0.0,0.0,-0.259664237499237,0.0937434434890747
-0.2383381873369217,0.3366903364658355,-0.5060256719589233,-0.7457206845283508,0.0488038025796413,-0.7100934386253357,0.0,0.0,0.4269877672195434,-0.1028984189033508
-0.243889719247818,0.3198136687278747,-0.5187004804611206,-0.7492843270301819,0.012801956385374,-0.7200374603271484,0.0,0.0,0.4764816761016845,-0.3334118723869324
-0.2494215965270996,0.3035157024860382,-0.5169076323509216,-0.7244321703910828,-0.0230143815279006,-0.7163273692131042,0.0,0.0,-0.2069311141967773,-0.4388579130172729
-0.2549614310264587,0.2867361605167389,-0.5177521109580994,-0.7467013001441956,-0.0588129870593547,-0.7159726619720459,0.0,0.0,0.2632871866226196,-0.8439391851425171
-0.2605939507484436,0.2702639698982239,-0.5287562608718872,-0.7338053584098816,-0.0929555520415306,-0.6828514337539673,0.0,0.0,0.2529518604278564,-0.8145630955696106
-0.2662608027458191,0.254114419221878,-0.5339391231536865,-0.7201148867607117,-0.1254682689905166,-0.6502543687820435,0.0,0.0,-0.0712941288948059,-0.5545034408569336
-0.2719751000404358,0.2374868690967559,-0.5397769808769226,-0.7419672608375549,-0.1570212095975875,-0.6310592293739319,0.0,0.0,0.6142388582229614,-0.6819159984588623
-0.2776772379875183,0.2208687663078308,-0.5401381254196167,-0.7420359253883362,-0.1871488392353058,-0.6025529503822327,0.0,0.0,0.6018788814544678,-0.7173796892166138
-0.2832783758640289,0.2043216824531555,-0.5318253636360168,-0.7392459511756897,-0.2156374752521515,-0.5697727203369141,0.0,0.0,0.664090633392334,-0.8383556604385376
-0.2886738181114197,0.188096821308136,-0.5133694410324097,-0.7251443266868591,-0.2421595752239227,-0.5304418802261353,0.0,0.0,0.786895751953125,-0.7548056840896606
-0.2938805222511291,0.1719596534967422,-0.4964867234230041,-0.7213820815086365,-0.2668143212795257,-0.4930950105190277,0.0,0.0,0.8471249341964722,-0.8424738645553589
-0.2989510893821716,0.1565812230110168,-0.4846891462802887,-0.6877252459526062,-0.2897691130638122,-0.4590958952903747,0.0,0.0,0.8716775178909302,-0.845122218132019
-0.3038187026977539,0.1419638246297836,-0.4662818908691406,-0.6538742780685425,-0.3109280169010162,-0.4231778085231781,0.0,0.0,0.947697639465332,-0.7495549321174622
-0.3083682656288147,0.1279328018426895,-0.4364183843135834,-0.6276893615722656,-0.3301974236965179,-0.3853887915611267,0.0,0.0,0.9912420511245728,-0.6046518683433533
-0.3127337396144867,0.1139199361205101,-0.4196381568908691,-0.6267592906951904,-0.3478897213935852,-0.3538460731506347,0.0,0.0,0.995595932006836,-0.4120767116546631
-0.316970020532608,0.1003122627735138,-0.4065375328063965,-0.6090210676193237,-0.3658851087093353,-0.3599076867103576,0.0,0.0,0.9982494115829468,-0.8012855648994446
-0.3208074569702148,0.0876542404294014,-0.3685539960861206,-0.5665423274040222,-0.3819923400878906,-0.3221441507339477,0.0,0.0,0.9986488819122314,-0.7729061245918274
-0.3244964480400085,0.0755097717046737,-0.3552085757255554,-0.543493390083313,-0.3965907096862793,-0.2919671535491943,0.0,0.0,0.997077226638794,-0.7946436405181885
-0.3280448317527771,0.0643368363380432,-0.3424215912818908,-0.5000978708267212,-0.409911960363388,-0.2664248645305633,1.0,0.0,0.998688578605652,-0.9602642059326172
-0.3310383260250091,0.0545321069657802,-0.3035307228565216,-0.4354191124439239,-0.402226984500885,0.158343493938446,1.0,0.0,0.999974012374878,-0.811791181564331
-0.3334175050258636,0.0466962680220603,-0.246903508901596,-0.3456591665744781,-0.3925405144691467,0.1937509924173355,1.0,1.0,0.9160454273223876,0.6420214176177979
-0.3352625370025635,0.0407296754419803,-0.1915040612220764,-0.2632264792919159,-0.3850290477275848,0.1502483040094375,1.0,1.0,0.8713932037353516,0.4447267055511474
-0.3366785943508148,0.0361472479999065,-0.1482442319393158,-0.2018721252679824,-0.3779504001140594,0.1415852159261703,1.0,1.0,0.6665031909942627,0.4675297737121582
-0.3377428948879242,0.0330395326018333,-0.1122132167220115,-0.1365958601236343,-0.3717997670173645,0.1230213269591331,1.0,1.0,0.2886241674423218,0.3677289485931396
-0.3385354876518249,0.0311079118400812,-0.0842216610908508,-0.0845650732517242,-0.3665423989295959,0.1051540225744247,1.0,1.0,0.1520377397537231,0.3838624954223633
-0.3387970328330993,0.0305023770779371,-0.0342072024941444,-0.0248797051608562,-0.3580334484577179,0.170183777809143,1.0,1.0,0.1520377397537231,0.3838624954223633
