x_pos,y_pos,x_vel,y_vel,angle,ang_vel,leg_1,leg_2,main_booster,lat_booster
-0.0014886856079101,1.4031721353530884,-0.1504052579402923,-0.3443555831909179,0.0013737415429204,0.0270694307982921,0.0,0.0,-0.596620500087738,0.44741952419281
-0.0029444694519042,1.394994854927063,-0.1465486884117126,-0.3634326159954071,0.0023388508707284,0.0193045660853385,0.0,0.0,-0.4398210048675537,0.9271242618560792
-0.0042800903320312,1.3863584995269775,-0.1319033652544021,-0.3838427662849426,0.0006931229727342,-0.0329176038503646,0.0,0.0,0.3834022283554077,-0.3197782039642334
-0.0056869508698582,1.377897024154663,-0.1381582915782928,-0.3760643005371094,-0.0017998218536376,-0.0498637817800045,0.0,0.0,0.2412695884704589,0.4343669414520263
-0.0069693564437329,1.3697178363800049,-0.125809296965599,-0.3635236322879791,-0.0041970205493271,-0.0479485765099525,0.0,0.0,-0.2127817869186401,0.375910997390747
-0.0082273483276367,1.361086368560791,-0.1230134516954422,-0.3836327493190765,-0.0069612232036888,-0.0552894659340381,0.0,0.0,-0.0445775985717773,0.2775882482528686
-0.0094636920839548,1.352002739906311,-0.1204679012298584,-0.4037360548973083,-0.0100898314267396,-0.0625776499509811,0.0,0.0,-0.4250314831733703,0.2684166431427002
-0.0106807705014944,1.3424670696258545,-0.1181830763816833,-0.4238412976264953,-0.0135808661580085,-0.0698270350694656,0.0,0.0,-0.0082328915596008,0.7668657302856445
-0.0118221286684274,1.3324863910675049,-0.1087372153997421,-0.4436444342136383,-0.018920162692666,-0.1067958250641822,0.0,0.0,-0.2710639238357544,-0.1116383075714111
-0.0129497526213526,1.3220537900924685,-0.1069979071617126,-0.4637521207332611,-0.0246162116527557,-0.1139315366744995,0.0,0.0,-0.232663869857788,-0.310937762260437
-0.0140664102509617,1.3111695051193235,-0.1055480241775512,-0.4838602244853973,-0.0306672547012567,-0.12103221565485,0.0,0.0,-0.1421374082565307,-0.1293745636940002
-0.0151751516386866,1.2998335361480713,-0.1043959632515907,-0.5039690136909485,-0.0370701104402542,-0.1280688494443893,0.0,0.0,0.0796819925308227,-0.8612417578697205
-0.0162299163639545,1.2887336015701294,-0.1004141941666603,-0.493464857339859,-0.0420794859528541,-0.1001968011260032,0.0,0.0,0.4062396287918091,-0.6861035823822021
-0.0172595027834177,1.2776275873184204,-0.099045842885971,-0.4937162697315216,-0.0459536127746105,-0.0774894952774047,0.0,0.0,-0.8387461304664612,-0.18606036901474
-0.0182905197143554,1.266069412231445,-0.0988437384366989,-0.5138247013092041,-0.0501701682806015,-0.0843387991189956,0.0,0.0,-0.5274995565414429,0.4710545539855957
-0.0193262100219726,1.2540597915649414,-0.0989685803651809,-0.5339321494102478,-0.0547246597707271,-0.0910979434847831,0.0,0.0,0.431687593460083,-0.8326682448387146
-0.0202603340148925,1.2427122592926023,-0.0903283581137657,-0.5044470429420471,-0.0577750205993652,-0.0610128045082092,0.0,0.0,-0.8821619153022766,-0.5618736147880554
-0.0212398525327444,1.2309107780456543,-0.0953931733965873,-0.5246118307113647,-0.0603049956262111,-0.0506040528416633,0.0,0.0,-0.7638481855392456,-0.5440033674240112
-0.0222699157893657,1.218665599822998,-0.1010320633649826,-0.544305682182312,-0.0622524544596672,-0.0389527082443237,0.0,0.0,-0.3878632187843323,-0.527970016002655
-0.0233653075993061,1.205972671508789,-0.1084498390555381,-0.5641784071922302,-0.0633309483528137,-0.0215720050036907,0.0,0.0,-0.5877070426940918,-0.554820716381073
-0.0245166774839162,1.1928348541259766,-0.1146068945527076,-0.5839229226112366,-0.0638549551367759,-0.0104810325428843,0.0,0.0,-0.4993250370025635,-0.3515611886978149
-0.025693129748106,1.1792449951171875,-0.1168053150177002,-0.6040300130844116,-0.0646893978118896,-0.0166903026401996,0.0,0.0,-0.4738380908966064,-0.1856340765953064
-0.026898194104433,1.165203094482422,-0.1193535327911377,-0.6241376399993896,-0.0658281147480011,-0.0227763690054416,0.0,0.0,-0.7400285005569458,-0.2366341352462768
-0.0281352046877145,1.15070903301239,-0.1222512945532798,-0.6442452669143677,-0.0672650784254074,-0.0287417564541101,0.0,0.0,0.3341515064239502,-0.3960788249969482
-0.0294872280210256,1.1365522146224976,-0.1329100281000137,-0.629292905330658,-0.0695254579186439,-0.0452116504311561,0.0,0.0,0.6814959049224854,-0.7121926546096802
-0.0310466773808002,1.1230207681655884,-0.1544685661792755,-0.6014684438705444,-0.0709946602582931,-0.0293840859085321,0.0,0.0,-0.3345504999160766,0.6799569129943848
-0.0325942039489746,1.1090357303619385,-0.1516095697879791,-0.6217067241668701,-0.0741035342216491,-0.0621773786842823,0.0,0.0,-0.3480181097984314,0.2081385850906372
-0.0341872200369834,1.0945988893508911,-0.1558872163295745,-0.6418124437332153,-0.0774833559989929,-0.0675962343811988,0.0,0.0,-0.4290699958801269,0.2623217105865478
-0.0358288772404193,1.0797101259231567,-0.1604984998703003,-0.6619184613227844,-0.0811264589428901,-0.0728620141744613,0.0,0.0,0.2804094552993774,-0.928145706653595
-0.0375842079520225,1.0649421215057373,-0.173445388674736,-0.6564717888832092,-0.0831878334283828,-0.0412273481488227,0.0,0.0,-9.22083854675293e-05,0.4549747705459595
-0.0393945686519146,1.0497221946716309,-0.1787049770355224,-0.6765771508216858,-0.0854959785938263,-0.0461629219353199,0.0,0.0,0.3064999580383301,-0.7854822874069214
-0.0413649566471576,1.0345802307128906,-0.1959609091281891,-0.6730311512947083,-0.0865608602762222,-0.0212978105992078,0.0,0.0,-0.6191286444664001,0.0641850233078002
-0.0433963760733604,1.0189863443374634,-0.2018389701843261,-0.6931363344192505,-0.087854191660881,-0.0258662644773721,0.0,0.0,-0.8332390785217285,-0.4100416898727417
-0.0454917922616004,1.002940654754639,-0.208013579249382,-0.7132413983345032,-0.089366003870964,-0.0302361752837896,0.0,0.0,0.0286672115325927,-0.5577278137207031
-0.0476515777409076,0.987031638622284,-0.2153876572847366,-0.7071006298065186,-0.0899572670459747,-0.01182531286031,0.0,0.0,0.2281324863433838,-0.7950218915939331
-0.0498771667480468,0.9715229868888856,-0.2233811914920807,-0.6892297267913818,-0.0891446471214294,0.0162525754421949,0.0,0.0,0.0626196861267089,-0.0255964398384094
-0.0521655082702636,0.9560018181800842,-0.2293837070465088,-0.6897937059402466,-0.0885954350233078,0.0109841125085949,0.0,0.0,-0.3363072872161865,-0.4963871240615845
-0.0545282363891601,0.940028727054596,-0.2366499602794647,-0.7098983526229858,-0.0882193371653556,0.0075218752026557,0.0,0.0,-0.9036354422569276,-0.3553482294082641
-0.0569676384329795,0.9236032962799072,-0.2441641390323639,-0.7300029397010803,-0.0880034640431404,0.0043174596503376,0.0,0.0,-0.902957320213318,0.0902121067047119
-0.0594861023128032,0.9067257046699524,-0.2519159615039825,-0.7501074075698853,-0.0879342928528785,0.0013836005236953,0.0,0.0,-0.4273844361305237,-0.6001594066619873
-0.0621411316096782,0.889408528804779,-0.2668546140193939,-0.7695770263671875,-0.0865881592035293,0.0269225351512432,0.0,0.0,-0.512149453163147,0.5100264549255371
-0.0648307800292968,0.8716315627098083,-0.2689777612686157,-0.7900843024253845,-0.0865845754742622,7.181944965850562e-05,0.0,0.0,0.3711340427398681,0.2465788125991821
-0.0675027817487716,0.8537809252738953,-0.2674728035926819,-0.7933449149131775,-0.0863101407885551,0.0054884878918528,0.0,0.0,0.4592058658599853,0.0563675165176391
-0.0701339691877365,0.8361644148826599,-0.2637194395065307,-0.7829189896583557,-0.0857160836458206,0.0118813868612051,0.0,0.0,-0.180546760559082,-0.0078774094581604
-0.0728537589311599,0.8180956244468689,-0.2725067138671875,-0.8030228018760681,-0.0851913020014762,0.0104956105351448,0.0,0.0,0.3707901239395141,0.6726975440979004
-0.0755454078316688,0.7999700903892517,-0.2683666050434112,-0.8056280016899109,-0.085986778140068,-0.0159093886613845,0.0,0.0,0.1050115823745727,0.7437402009963989
-0.0781981498003006,0.7818213105201721,-0.2629764080047607,-0.8067474961280823,-0.0882608592510223,-0.0454817563295364,0.0,0.0,-0.3652302026748657,0.8472318649291992
-0.080889031291008,0.7632222175598145,-0.2653985917568207,-0.8268507122993469,-0.0919210612773895,-0.0732039958238601,0.0,0.0,0.2371861934661865,0.3502974510192871
-0.0837190598249435,0.7450661659240723,-0.2788509726524353,-0.8071956038475037,-0.0960379242897033,-0.0823372155427932,0.0,0.0,-0.0817269682884216,0.2148176431655883
-0.086644746363163,0.7264580726623535,-0.2884348034858703,-0.8273001313209534,-0.100132830440998,-0.0818981975317001,0.0,0.0,0.6671197414398193,0.4302185773849487
-0.0894655212759971,0.7082359194755554,-0.2786628007888794,-0.8101012706756592,-0.1035169288516044,-0.0676820650696754,0.0,0.0,0.819509744644165,0.0420262813568115
-0.0923632606863975,0.6907820105552673,-0.286131203174591,-0.7759896516799927,-0.1071336641907692,-0.0723346322774887,0.0,0.0,0.8142044544219971,0.84063720703125
-0.0951104164123535,0.6735673546791077,-0.2697206139564514,-0.7654603123664856,-0.1120978146791458,-0.0992829129099845,0.0,0.0,0.1227393150329589,0.6264417171478271
-0.0978446006774902,0.6567057967185974,-0.267263799905777,-0.7498793005943298,-0.1182064637541771,-0.1221730485558509,0.0,0.0,-0.7371625900268555,0.8118174076080322
-0.1005998626351356,0.6393751502037048,-0.2674777209758758,-0.7709102034568787,-0.1262187063694,-0.1602450162172317,0.0,0.0,-0.0788633227348327,0.6191068887710571
-0.1034158691763877,0.6215822696685791,-0.2726435661315918,-0.7915731072425842,-0.1351343840360641,-0.1783139556646347,0.0,0.0,0.8139662742614746,0.517467737197876
-0.1060663238167762,0.6046130657196045,-0.2555387318134308,-0.7550837993621826,-0.1446090191602707,-0.1894926130771637,0.0,0.0,-0.0863023996353149,0.3176342248916626
-0.1088193878531456,0.5871922373771667,-0.2659903168678283,-0.775192379951477,-0.1539087891578674,-0.1859953105449676,0.0,0.0,0.8256070613861084,0.1145813465118408
-0.1114546805620193,0.5706492066383362,-0.2547948956489563,-0.7361698150634766,-0.1626340299844741,-0.1745045334100723,0.0,0.0,-0.3744615912437439,0.8012261390686035
-0.1141384094953537,0.5536479949951172,-0.2584659457206726,-0.7567201852798462,-0.1725469678640365,-0.1982594132423401,0.0,0.0,0.7708468437194824,0.5317434072494507
-0.1167597770690918,0.5367515087127686,-0.2515801787376404,-0.7522166967391968,-0.1831389963626861,-0.2118406295776367,0.0,0.0,0.4350720643997192,-0.4277462959289551
-0.119460679590702,0.5203260183334351,-0.2593854665756225,-0.731378972530365,-0.1938919723033905,-0.2150595486164093,0.0,0.0,0.1680259704589843,-0.0048460960388183
-0.1221106499433517,0.5039619207382202,-0.2549723982810974,-0.728638231754303,-0.2039840519428253,-0.2018415927886963,0.0,0.0,0.1842314004898071,0.5182626247406006
-0.1247189491987228,0.4877742528915405,-0.2501009702682495,-0.7209688425064087,-0.2148087918758392,-0.2164947986602783,0.0,0.0,-0.3289239406585693,-0.1631629467010498
-0.1274332106113433,0.4711349010467529,-0.261008083820343,-0.7410767078399658,-0.2253488451242447,-0.2108010053634643,0.0,0.0,0.8222055435180664,0.0242539644241333
-0.1302413046360016,0.4550427198410034,-0.2700797021389007,-0.7168866395950317,-0.2362230867147445,-0.2174849510192871,0.0,0.0,0.645733118057251,0.7746129035949707
-0.1328725814819336,0.4397211372852325,-0.2512550950050354,-0.6829105019569397,-0.2483001798391342,-0.2415420264005661,0.0,0.0,0.087519884109497,0.2726839780807495
-0.135511115193367,0.4242080450057983,-0.2525711059570312,-0.6914230585098267,-0.2598069906234741,-0.2301361858844757,0.0,0.0,0.3326519727706909,0.2447036504745483
-0.1380589455366134,0.4092328548431396,-0.2439469844102859,-0.66752028465271,-0.270882248878479,-0.2215052396059036,0.0,0.0,0.6511533260345459,-0.4555290937423706
-0.140678122639656,0.3945271968841553,-0.2510342001914978,-0.6556386351585388,-0.2820523679256439,-0.2234021425247192,0.0,0.0,0.3946529626846313,0.3365371227264404
-0.1433203667402267,0.3802254498004913,-0.2533603012561798,-0.6377727389335632,-0.2932319045066833,-0.2235910445451736,0.0,0.0,0.6328914165496826,0.0545434951782226
-0.1458635330200195,0.36634162068367,-0.243972897529602,-0.6191798448562622,-0.3039135038852691,-0.2136320620775222,0.0,0.0,0.5194933414459229,-0.8443284630775452
-0.1484704911708831,0.3532151877880096,-0.252223253250122,-0.5851894021034241,-0.3126822412014007,-0.175374761223793,0.0,0.0,0.2044402360916137,-0.3991438746452331
-0.1510052680969238,0.3402119874954223,-0.2456273734569549,-0.5796315670013428,-0.3208313882350921,-0.1629835665225982,0.0,0.0,0.8871960639953613,-0.2698675990104675
-0.1535441428422927,0.3274097442626953,-0.2462546378374099,-0.5706961750984192,-0.3287805318832397,-0.1589831858873367,0.0,0.0,0.6439294815063477,-0.8737872242927551
-0.1560829132795334,0.3146015405654907,-0.2484428137540817,-0.5705053806304932,-0.3344590663909912,-0.1135704293847084,0.0,0.0,0.9502887725830078,-0.5290533304214478
-0.1586768180131912,0.301942229270935,-0.255251795053482,-0.563601553440094,-0.3387877941131592,-0.0865750908851623,0.0,0.0,0.9732437133789062,0.1723864078521728
-0.1610742509365081,0.2901742458343506,-0.2359378337860107,-0.5239177346229553,-0.3427683413028717,-0.0796108022332191,0.0,0.0,0.8114793300628662,-0.4055008888244629
-0.163197323679924,0.2791717648506164,-0.2092802077531814,-0.489724725484848,-0.3459438979625702,-0.0635113269090652,0.0,0.0,0.981433629989624,-0.8404010534286499
-0.1652955114841461,0.2692146301269531,-0.208529993891716,-0.4428475499153137,-0.3472862243652344,-0.0268464926630258,0.0,0.0,0.970452070236206,0.3668004274368286
-0.1675132811069488,0.2594393491744995,-0.2202124595642089,-0.4348384141921997,-0.3489353060722351,-0.0329819247126579,0.0,0.0,0.7913293838500977,0.5542279481887817
-0.1694611608982086,0.2503763437271118,-0.1926552653312683,-0.4033173620700836,-0.3511781096458435,-0.0448559932410717,0.0,0.0,0.9608869552612304,-0.0021292567253112
-0.1713960617780685,0.2418833374977111,-0.1912221014499664,-0.378022700548172,-0.3535634577274322,-0.0477072484791278,0.0,0.0,0.7288422584533691,-0.1523618102073669
-0.1732482016086578,0.2339641004800796,-0.1830929517745971,-0.3524918854236603,-0.3557975590229034,-0.0446819029748439,0.0,0.0,0.7227377891540527,-0.3109518885612488
-0.1749670952558517,0.2266223579645156,-0.1701048910617828,-0.3267422616481781,-0.3576700985431671,-0.0374509654939174,0.0,0.0,0.6940001249313354,-0.5233349204063416
-0.1765351295471191,0.2196360975503921,-0.1566930711269378,-0.3105281591415405,-0.3577885329723358,-0.0023689451627433,0.0,0.0,0.905274510383606,-0.2988471984863281
-0.1780481338500976,0.2127357274293899,-0.1517125964164734,-0.3065773844718933,-0.3573567271232605,0.008635913953185,0.0,0.0,0.6904513835906982,-0.774061381816864
-0.1794863641262054,0.205932006239891,-0.1463275402784347,-0.3017668128013611,-0.3547225296497345,0.0526837296783924,0.0,0.0,0.5901076793670654,-0.8128768801689148
-0.1807547509670257,0.1993985027074813,-0.131571888923645,-0.2892202734947204,-0.3497454524040222,0.0995415821671485,0.0,0.0,0.5223617553710938,-0.4116451740264892
-0.1818862855434417,0.1928570568561554,-0.1188646554946899,-0.289349615573883,-0.3437447845935821,0.1200131773948669,0.0,0.0,0.4771322011947632,-0.7864646315574646
-0.1829615533351898,0.1868501305580139,-0.115210972726345,-0.2651639282703399,-0.33570396900177,0.1608161628246307,0.0,0.0,0.4531325101852417,-0.0522433519363403
-0.1838992089033126,0.1813212782144546,-0.1019927114248275,-0.2438346594572067,-0.327104777097702,0.1719837635755539,0.0,0.0,0.2960317134857178,-0.6775490045547485
-0.1847230941057205,0.1760583519935608,-0.0925512835383415,-0.2316401600837707,-0.316519170999527,0.2117113769054412,0.0,0.0,0.315181016921997,-0.7844941020011902
-0.185547262430191,0.1706922799348831,-0.0946910828351974,-0.2358680069446563,-0.3038040697574615,0.2543026208877563,0.0,0.0,0.5827114582061768,-0.4996902346611023
-0.1863801926374435,0.1655950844287872,-0.0958103463053703,-0.2239834517240524,-0.2908856272697449,0.2583688795566559,0.0,0.0,0.7242131233215332,-0.8902881145477295
-0.1870322227478027,0.1613383889198303,-0.0801010429859161,-0.1862866580486297,-0.275556206703186,0.3065881729125976,0.0,0.0,0.7341921329498291,-0.5723271369934082
-0.1876958906650543,0.1575222760438919,-0.0828448757529258,-0.1665891706943512,-0.2586968541145324,0.3371868133544922,0.0,0.0,0.3889360427856445,-0.3582931756973266
-0.1883949339389801,0.1542659401893615,-0.0864027515053749,-0.1419043987989425,-0.2418825775384903,0.3362856805324554,0.0,0.0,0.5790151357650757,-0.6449282169342041
-0.1889998465776443,0.1515201479196548,-0.0789793133735656,-0.1191031113266944,-0.2231274396181106,0.375102698802948,0.0,0.0,0.4873683452606201,-0.0578246116638183
-0.1896066665649414,0.1493294537067413,-0.0794465988874435,-0.0946361050009727,-0.2041551023721695,0.3794467747211456,0.0,0.0,0.1160668134689331,0.2877800464630127
-0.190269187092781,0.1474499106407165,-0.085286907851696,-0.0810198038816452,-0.1850006431341171,0.3830888867378235,0.0,0.0,0.0304257869720459,0.6203699111938477
-0.1909470558166504,0.1455687880516052,-0.0860660523176193,-0.0814278051257133,-0.1666716039180755,0.3665808737277984,0.0,0.0,-0.131665289402008,0.6116137504577637
-0.1916890144348144,0.1432295441627502,-0.0919838175177574,-0.1020675078034401,-0.1488886624574661,0.3556588292121887,0.0,0.0,0.0033873319625854,0.6116302013397217
-0.1925403624773025,0.1409238427877426,-0.1020680218935012,-0.1008699983358383,-0.132005363702774,0.337666243314743,0.0,0.0,0.0204622745513916,0.8128249645233154
-0.1932942420244217,0.138805404305458,-0.0911940336227417,-0.0928271636366844,-0.1162850111722946,0.3144073486328125,0.0,0.0,-0.1156246662139892,0.6735141277313232
-0.1940907537937164,0.1362210363149643,-0.0944360643625259,-0.1137765645980835,-0.1016066372394561,0.2935677170753479,0.0,0.0,-0.0876325964927673,0.4644804000854492
-0.1949869096279144,0.1331867128610611,-0.1048594564199447,-0.133894070982933,-0.0864869281649589,0.3023941814899444,0.0,0.0,-0.219915509223938,0.9161720275878906
-0.1959116905927658,0.1297007650136947,-0.1064184680581092,-0.1541797667741775,-0.0726800635457038,0.276136964559555,0.0,0.0,-0.0353971719741821,0.494842529296875
-0.1969340294599533,0.125764787197113,-0.1166302561759948,-0.1742963194847107,-0.0584326982498168,0.2849473655223846,0.0,0.0,0.259170651435852,0.9244303703308104
-0.1978864669799804,0.1220277845859527,-0.108283020555973,-0.165629580616951,-0.0455495528876781,0.2576628625392914,0.0,0.0,-0.0294505357742309,0.7600464820861816
-0.1988743841648101,0.1178437545895576,-0.110772430896759,-0.1856334954500198,-0.0337201319634914,0.2365886270999908,0.0,0.0,0.2065645456314087,0.93575119972229
-0.1998106986284256,0.1140730008482933,-0.1041904911398887,-0.1673834770917892,-0.0232952944934368,0.2084966897964477,0.0,0.0,-0.163421094417572,0.93742036819458
-0.2007552683353424,0.1098434776067733,-0.10331342369318,-0.1878666281700134,-0.0145473098382353,0.1749598532915115,0.0,0.0,0.6863806247711182,0.974661350250244
-0.2018444985151291,0.1061119884252548,-0.1160791292786598,-0.1657906025648117,-0.0074850250966846,0.1412456482648849,0.0,0.0,-0.0761547088623046,0.9971261024475098
-0.2029604911804199,0.1019254550337791,-0.1176101565361023,-0.1860531419515609,-0.0015479817520827,0.1187408119440078,0.0,0.0,0.382062554359436,0.9905104637145996
-0.2041049897670745,0.0979934781789779,-0.1188943162560463,-0.1747545450925827,0.0028401121962815,0.0877619311213493,0.0,0.0,0.4653229713439941,0.9955174922943116
-0.2052303254604339,0.0943177044391632,-0.1154346838593483,-0.1633757203817367,0.0057018361985683,0.0572344176471233,0.0,0.0,0.481187105178833,0.9884389638900756
-0.2062276899814605,0.090666115283966,-0.1011981964111328,-0.1623009592294693,0.0071438406594097,0.0288400556892156,0.0,0.0,0.4376685619354248,0.9905722141265868
-0.207133486866951,0.0874609798192977,-0.0905528888106346,-0.1424491107463836,0.0071178567595779,-0.0005196508718654,0.0,0.0,-0.1283683776855468,0.9552431106567384
-0.2080380022525787,0.0838136076927185,-0.0888541340827941,-0.1620981097221374,0.0055394126102328,-0.0315688326954841,0.0,0.0,-0.2660017013549804,0.9059619903564452
