x_pos,y_pos,x_vel,y_vel,angle,ang_vel,leg_1,leg_2,main_booster,lat_booster
-0.0015877723926678,1.403076410293579,-0.1604237556457519,-0.3486029207706451,0.0014807165134698,0.0291874948889017,0.0,0.0,-0.0577276945114135,0.7939785718917847
-0.0031739235855638,1.3947043418884275,-0.1580348312854766,-0.3720906376838684,0.0008996232645586,-0.0116224158555269,0.0,0.0,-0.3802822828292846,0.6665397882461548
-0.004763794131577,1.3857791423797607,-0.1564633995294571,-0.3966768383979797,-0.0015943225007504,-0.0498833768069744,0.0,0.0,0.1163760423660278,0.613318920135498
-0.0064639090560376,1.3768105506896973,-0.1658231317996978,-0.3986112773418426,-0.0057351542636752,-0.0828246921300888,0.0,0.0,0.3994830846786499,0.0124754905700683
-0.008121776394546,1.3681219816207886,-0.1618611514568328,-0.3861831128597259,-0.009622604586184,-0.0777561292052269,0.0,0.0,-0.0052686333656311,0.374622106552124
-0.0098511697724461,1.3588855266571045,-0.1687541902065277,-0.4105412662029266,-0.0137631008401513,-0.0828173905611038,0.0,0.0,0.4457576274871826,0.8107781410217285
-0.0116045949980616,1.3498585224151611,-0.1692548394203186,-0.401258647441864,-0.0197761766612529,-0.1202727109193801,0.0,0.0,-0.2487788200378418,0.5230975151062012
-0.0133800506591796,1.3402843475341797,-0.1699449717998504,-0.4256370961666107,-0.0272938720881938,-0.1503676623106002,0.0,0.0,-0.3993070125579834,0.6255581378936768
-0.0151814464479684,1.3301682472229004,-0.1711215525865554,-0.4497990906238556,-0.0362172424793243,-0.1784839332103729,0.0,0.0,-0.2856029272079468,0.4337397813796997
-0.0170580856502056,1.319505214691162,-0.178464651107788,-0.4741578698158264,-0.0453104227781295,-0.1818801313638687,0.0,0.0,-0.4630100727081299,0.8308206796646118
-0.0189356803894042,1.3082913160324097,-0.1765256524085998,-0.4987745583057403,-0.0564335472881794,-0.2224832028150558,0.0,0.0,-0.0442599654197692,0.6853301525115967
-0.0208294875919818,1.2965248823165894,-0.1764943301677703,-0.5234846472740173,-0.069198228418827,-0.2553169727325439,0.0,0.0,0.0957570075988769,0.8461490869522095
-0.0226007457822561,1.2848944664001465,-0.1625041216611862,-0.5176531672477722,-0.0836940333247184,-0.2899428606033325,0.0,0.0,0.2635272741317749,0.0778073072433471
-0.0243740081787109,1.273118019104004,-0.1628953665494918,-0.5242653489112854,-0.0980132818222045,-0.2864111363887787,0.0,0.0,0.3451950550079345,0.8165993690490723
-0.0259653087705373,1.2617785930633545,-0.1432041227817535,-0.5050928592681885,-0.1138396114110946,-0.3165555000305176,0.0,0.0,0.0610822439193725,-0.0563752055168151
-0.0275429729372262,1.2501670122146606,-0.1421816349029541,-0.5173360109329224,-0.1293545365333557,-0.3103269338607788,0.0,0.0,-0.2695901989936828,-0.672644317150116
-0.0292388908565044,1.238026142120361,-0.1550820916891098,-0.540921151638031,-0.1438256055116653,-0.2894475162029266,0.0,0.0,-0.2754233479499817,-0.6810740828514099
-0.0310545917600393,0.0,-0.1681678742170334,-0.5650553107261658,-0.1572284251451492,-0.2680806219577789,0.0,0.0,0.30287766456604,-0.8196293115615845
-0.0328272804617881,1.2130534648895264,-0.165682166814804,-0.5474531054496765,-0.1688341349363327,-0.2321351766586303,0.0,0.0,-0.2781460285186767,-0.156180202960968
-0.0346792228519916,1.2002177238464355,-0.1737240403890609,-0.5718262195587158,-0.1803528070449829,-0.2303944081068039,0.0,0.0,0.3597228527069092,-0.6996793746948242
-0.0364386551082134,1.187736749649048,-0.1661833524703979,-0.555921733379364,-0.1901582330465316,-0.1961263120174408,0.0,0.0,0.3859834671020508,-0.3182231187820434
-0.0381978973746299,1.1752525568008425,-0.1663800179958343,-0.5561084747314453,-0.1997771710157394,-0.1923960894346237,0.0,0.0,-0.2733594179153442,-0.1242009401321411
-0.0400370582938194,1.1622209548950195,-0.1745500862598419,-0.5804698467254639,-0.2092276215553283,-0.1890256553888321,0.0,0.0,0.6868478059768677,-0.8386717438697815
-0.0418787971138954,1.1490962505340576,-0.1768116056919098,-0.5843709111213684,-0.2166691124439239,-0.1488427817821502,0.0,0.0,0.9239215850830078,-0.6393607258796692
-0.0438616760075092,1.1365966796875,-0.1919771134853363,-0.5564741492271423,-0.2230674773454666,-0.1279782950878143,0.0,0.0,0.8390754461288452,-0.7262921333312988
-0.0459818840026855,1.124755620956421,-0.2069930136203766,-0.5270365476608276,-0.228152722120285,-0.1017047613859176,0.0,0.0,0.117491602897644,-0.1290947198867797
-0.0480689033865928,1.1130832433700562,-0.2039589583873748,-0.5195127129554749,-0.2329600751399994,-0.0961473733186721,0.0,0.0,0.8316773176193237,-0.7804676294326782
-0.0502377524971962,1.1022818088531494,-0.2136709243059158,-0.4805813431739807,-0.2362274825572967,-0.0653485730290412,0.0,0.0,0.3472189903259277,0.1284488439559936
-0.0524428375065326,1.0918899774551392,-0.2171159237623214,-0.4624048769474029,-0.239677608013153,-0.0690023750066757,0.0,0.0,-0.0562875866889953,0.0101649761199951
-0.0547286048531532,1.0809494256973269,-0.2255056351423263,-0.486749917268753,-0.2427979558706283,-0.0624069385230541,0.0,0.0,0.6035301685333252,0.288898229598999
-0.0568798072636127,1.0706498622894287,-0.2124759405851364,-0.4581970870494842,-0.245485320687294,-0.053747572004795,0.0,0.0,0.0489153861999511,-0.3051546812057495
-0.0590919479727745,1.0602242946624756,-0.2187061756849289,-0.4637856781482696,-0.2480340898036956,-0.0509753450751304,0.0,0.0,0.7526965141296387,0.8808243274688721
-0.0612012855708599,1.050504207611084,-0.2069074362516403,-0.4326827228069305,-0.2521323263645172,-0.0819656178355217,0.0,0.0,0.0873202085494995,0.8160197734832764
-0.063318058848381,1.04056715965271,-0.2064173221588134,-0.4425617754459381,-0.2575059533119201,-0.1074724793434143,0.0,0.0,-0.3361664414405823,0.2671892642974853
-0.0655155181884765,1.030081272125244,-0.2148867547512054,-0.4669058620929718,-0.2624646127223968,-0.0991739779710769,0.0,0.0,0.2997786998748779,0.1886569261550903
-0.0676253288984298,1.019902586936951,-0.2066098004579544,-0.4531747996807098,-0.2669283747673034,-0.0892750993371009,0.0,0.0,0.3461488485336303,0.565946102142334
-0.0696976631879806,1.0097001791000366,-0.2021432369947433,-0.4543728828430176,-0.2721483409404754,-0.104398563504219,0.0,0.0,-0.2318578362464904,0.7209789752960205
-0.0717913657426834,0.9989299178123474,-0.2032084017992019,-0.4798423945903778,-0.278463065624237,-0.1262945085763931,0.0,0.0,-0.502228319644928,-0.8489617705345154
-0.0740322098135948,0.9876487255096436,-0.2201822251081466,-0.5021358132362366,-0.2824698686599731,-0.0801363065838813,0.0,0.0,0.6930744647979736,-0.7537435293197632
-0.0762062072753906,0.9767277836799622,-0.2155146896839141,-0.4857397079467773,-0.2844093441963196,-0.0387895815074443,0.0,0.0,0.2687034606933594,0.8207333087921143
-0.0783191695809364,0.966136872768402,-0.2081865072250366,-0.4713173806667328,-0.2876080870628357,-0.0639745891094207,0.0,0.0,0.6925163269042969,-0.2608156204223633
-0.0802391022443771,0.9557138681411744,-0.1899369806051254,-0.4636520147323608,-0.289729356765747,-0.0424252972006797,0.0,0.0,-0.0152919292449951,-0.2164685130119323
-0.0822394341230392,0.9447411298751832,-0.1984605938196182,-0.4879909753799438,-0.2913500964641571,-0.0324150137603282,0.0,0.0,0.2789769172668457,0.0651636123657226
-0.0841289535164833,0.9337735176086426,-0.1882124692201614,-0.487600713968277,-0.2921075224876404,-0.0151487085968256,0.0,0.0,-0.3456274271011352,-0.5388060808181763
-0.0861432999372482,0.9222695231437684,-0.2023324072360992,-0.5111140608787537,-0.2911880910396576,0.0183889251202344,0.0,0.0,0.500507116317749,-0.1706857681274414
-0.088110826909542,0.9106335639953612,-0.1983345746994018,-0.5168329477310181,-0.2895550727844238,0.0326601676642894,0.0,0.0,0.0068230628967285,-0.3748310804367065
-0.0900450721383094,0.8988234400749207,-0.1956859230995178,-0.5244458317756653,-0.2872239351272583,0.0466229431331157,0.0,0.0,-0.7556696534156799,-0.8221496939659119
-0.0921312347054481,0.8865048289299011,-0.2133367508649826,-0.5465772151947021,-0.2823716700077057,0.0970452576875686,0.0,0.0,-0.6170268654823303,0.1540497541427612
-0.0942973122000694,0.8736365437507629,-0.2218553274869918,-0.5709171295166016,-0.276983380317688,0.107765756547451,0.0,0.0,0.0155209302902221,0.517704963684082
-0.096432588994503,0.8606576323509216,-0.2182652056217193,-0.5759519338607788,-0.2721293270587921,0.0970812961459159,0.0,0.0,-0.2380828261375427,0.2153517007827758
-0.098647691309452,0.8471291661262512,-0.2267730236053466,-0.6002920866012573,-0.2667309641838074,0.1079671531915664,0.0,0.0,0.3916084766387939,0.1194645166397094
-0.1008255034685134,0.833968460559845,-0.2233752459287643,-0.5839154124259949,-0.2610090672969818,0.1144381165504455,0.0,0.0,0.3754031658172607,-0.0697839856147766
-0.1028992682695388,0.8207594156265259,-0.2139349281787872,-0.5859111547470093,-0.2543150186538696,0.1338811516761779,0.0,0.0,-0.1728143095970153,0.3634053468704223
-0.1050522774457931,0.8070012927055359,-0.2224179059267044,-0.610253632068634,-0.2470667958259582,0.1449645310640335,0.0,0.0,-0.3147048950195312,0.3514540195465088
-0.1072845458984375,0.7926943302154541,-0.2308898270130157,-0.63459712266922,-0.2392616719007492,0.1561025083065033,0.0,0.0,0.6912133693695068,0.3038357496261596
-0.1095763221383094,0.7785761952400208,-0.2369741648435592,-0.6262286305427551,-0.2313495874404907,0.158241406083107,0.0,0.0,0.5579919815063477,-0.0808194279670715
-0.1116883307695388,0.7649762034416199,-0.2199583351612091,-0.6030954122543335,-0.2224657237529754,0.177677184343338,0.0,0.0,0.3589293956756592,0.3641043901443481
-0.1136455535888671,0.7516017556190491,-0.2055932283401489,-0.592961847782135,-0.2124930769205093,0.1994526386260986,0.0,0.0,0.2195112705230713,0.2720750570297241
-0.1154990196228027,0.7385529279708862,-0.1960473656654358,-0.578445315361023,-0.2016997635364532,0.2158661633729934,0.0,0.0,-0.7764750123023987,0.6512014865875244
-0.1173857674002647,0.7249483466148376,-0.1988286077976226,-0.6033029556274414,-0.1914784163236618,0.2044270038604736,0.0,0.0,0.2021273374557495,0.668163537979126
-0.119207002222538,0.7111597657203674,-0.1915883719921112,-0.6116355061531067,-0.1819753944873809,0.1900607049465179,0.0,0.0,0.695981502532959,0.6223925352096558
-0.1210362464189529,0.6979050636291504,-0.1914432942867279,-0.5880715250968933,-0.1734168380498886,0.1711710691452026,0.0,0.0,-0.8878477215766907,0.8104283809661865
-0.1228669136762619,0.6840800642967224,-0.1902297437191009,-0.6136253476142883,-0.1662456542253494,0.1434235423803329,0.0,0.0,0.0870712995529174,0.8091013431549072
-0.1246269196271896,0.6702839136123657,-0.1821357309818267,-0.6124874949455261,-0.1601137220859527,0.122638501226902,0.0,0.0,0.1035866737365722,0.4115452766418457
-0.1264159232378006,0.6563345789909363,-0.1856283694505691,-0.6192643046379089,-0.1533843576908111,0.1345873028039932,0.0,0.0,-0.1201338768005371,0.4197080135345459
-0.1282812058925628,0.6418367624282837,-0.1938464939594268,-0.6436111927032471,-0.1460809707641601,0.1460679024457931,0.0,0.0,0.4712294340133667,0.809544563293457
-0.1300260573625564,0.6279122829437256,-0.1807978898286819,-0.618263840675354,-0.1397861689329147,0.1258956491947174,0.0,0.0,0.5776554346084595,0.7746000289916992
-0.1316618919372558,0.6138140559196472,-0.1690721809864044,-0.6260883808135986,-0.1343175023794174,0.1093729957938194,0.0,0.0,0.5219833850860596,0.7453171014785767
-0.1331810057163238,0.60032719373703,-0.156532272696495,-0.5990011692047119,-0.1297099292278289,0.0921511799097061,0.0,0.0,-0.5844719409942627,0.6942751407623291
-0.1347289979457855,0.5862798094749451,-0.1588243693113327,-0.6239824295043945,-0.1256978958845138,0.0802403390407562,0.0,0.0,-0.2981619834899902,0.4894179105758667
-0.1363508254289627,0.5716838836669922,-0.1668015420436859,-0.6483281850814819,-0.1211098060011863,0.091761864721775,0.0,0.0,0.4923324584960937,0.9004393815994263
-0.1378761231899261,0.5573593974113464,-0.1559496819972992,-0.636367917060852,-0.1177056655287742,0.0680828541517257,0.0,0.0,0.7192319631576538,0.6475533246994019
-0.13946333527565,0.5438191294670105,-0.1610837578773498,-0.6016063094139099,-0.1153584197163581,0.0469448305666446,0.0,0.0,-0.1033072471618652,0.772140383720398
-0.1410543471574783,0.529718279838562,-0.1603071540594101,-0.6266119480133057,-0.1141641065478324,0.0238863863050937,0.0,0.0,0.0372011661529541,0.906446933746338
-0.1426428854465484,0.515419602394104,-0.1588119268417358,-0.6355001926422119,-0.1142023801803588,-0.0007655718363821,0.0,0.0,0.1593790054321289,0.6888872385025024
-0.1441684663295745,0.5008863210678101,-0.1517804563045501,-0.6459825038909912,-0.1149774640798568,-0.0155014861375093,0.0,0.0,0.3649117946624756,0.2054333686828613
-0.1457570046186447,0.4862266480922699,-0.158531829714775,-0.6515661478042603,-0.1152985170483589,-0.0064210295677185,0.0,0.0,0.7027010917663574,0.7595999240875244
-0.1472687721252441,0.472234308719635,-0.1498889476060867,-0.6219794750213623,-0.1165772825479507,-0.0255752317607402,0.0,0.0,0.2937455177307129,0.9502009153366088
-0.1486255675554275,0.4586286544799804,-0.1331032216548919,-0.6048996448516846,-0.119137167930603,-0.0511978082358837,0.0,0.0,-0.0044034719467163,0.8709700107574463
-0.1499916017055511,0.4444730281829834,-0.1331885606050491,-0.6294164061546326,-0.1225353702902793,-0.0679640471935272,0.0,0.0,-0.1267747282981872,0.8059449195861816
-0.1513729989528656,0.4297513961791992,-0.1340205371379852,-0.6546410322189331,-0.1266290545463562,-0.0818737372756004,0.0,0.0,0.0315675735473632,-0.3090699315071106
-0.152729794383049,0.4152106940746307,-0.1322524100542068,-0.6465477347373962,-0.1300358921289444,-0.0681371539831161,0.0,0.0,0.0879664421081543,0.8936212062835693
-0.1541063338518142,0.400686502456665,-0.1330065727233886,-0.6459323763847351,-0.134667083621025,-0.0926233828067779,0.0,0.0,-0.1676702499389648,0.2228399515151977
-0.155542179942131,0.3856136798858642,-0.1395076811313629,-0.6702783107757568,-0.1387307047843933,-0.08127211779356,0.0,0.0,0.6903150081634521,-0.1145442724227905
-0.1569485664367675,0.3710574507713318,-0.1370721161365509,-0.6472793221473694,-0.1422849744558334,-0.0710853040218353,0.0,0.0,0.7732359170913696,0.898303747177124
-0.1581484824419021,0.3568427562713623,-0.1153662055730819,-0.6322168707847595,-0.1468979865312576,-0.0922603160142898,0.0,0.0,0.4650934934616089,0.3698321580886841
-0.1593360900878906,0.3425249755382538,-0.1148044317960739,-0.6367391347885132,-0.1508515775203704,-0.0790718644857406,0.0,0.0,0.9155318737030028,0.033725619316101
-0.1603978127241134,0.3283264935016632,-0.1032697111368179,-0.6313421726226807,-0.1537475883960724,-0.0579204484820365,0.0,0.0,0.8985850811004639,-0.4309516549110412
-0.161239817738533,0.3145128488540649,-0.0826458483934402,-0.6140991449356079,-0.155303806066513,-0.0311242789030075,0.0,0.0,0.9766343832015992,-0.544960081577301
-0.1619224548339843,0.3008143901824951,-0.0688620954751968,-0.6087585091590881,-0.1546975672245025,0.0121246995404362,0.0,0.0,0.9843298196792604,0.0506656169891357
-0.1625147759914398,0.287905752658844,-0.0603653863072395,-0.5735992193222046,-0.153570294380188,0.0225450955331325,0.0,0.0,0.995979905128479,-0.4263263940811157
-0.162969022989273,0.2757980525493622,-0.0472705066204071,-0.5379307866096497,-0.1517205089330673,0.036995742470026,0.0,0.0,0.8404288291931152,0.7807950973510742
-0.1631354391574859,0.2641977369785309,-0.017793696373701,-0.5154508948326111,-0.1505660265684127,0.0230896733701229,0.0,0.0,0.9913158416748048,0.3764506578445434
-0.1631546914577484,0.2526047229766845,-0.0041855238378047,-0.5150200128555298,-0.1483061015605926,0.0451981164515018,0.0,0.0,0.9897512197494508,0.0833328962326049
-0.1631741523742675,0.241386666893959,-0.0044616051018238,-0.4983324408531189,-0.1457993388175964,0.0501348748803138,0.0,0.0,0.9866516590118408,0.8653680086135864
-0.1628884375095367,0.2311303913593292,0.0270271953195333,-0.455680102109909,-0.1442543566226959,0.0308996941894292,0.0,0.0,0.8827295303344727,0.6543477773666382
-0.1625069677829742,0.2212828248739242,0.037451047450304,-0.4376017451286316,-0.1435582935810089,0.0139211509376764,0.0,0.0,0.8376705646514893,0.3493115901947021
-0.1621520072221756,0.2122296839952469,0.0349016562104225,-0.4023053348064422,-0.1429749280214309,0.0116672432050108,0.0,0.0,-0.3056734800338745,-0.3091952800750732
-0.1618091613054275,0.2026277333498001,0.0331799760460853,-0.4266496896743774,-0.1418684273958206,0.0221296865493059,0.0,0.0,0.8356277942657471,-0.1095970869064331
-0.1614148169755935,0.1937273144721985,0.0380771830677986,-0.395445168018341,-0.1405185908079147,0.0269967410713434,0.0,0.0,0.6897473335266113,-0.2966294288635254
-0.1610001623630523,0.185433343052864,0.0399901196360588,-0.368484228849411,-0.1390465199947357,0.0294411815702915,0.0,0.0,0.6472688913345337,-0.3706716299057007
-0.160539910197258,0.1773332208395004,0.0441556647419929,-0.3598299026489258,-0.1371806412935257,0.0373174324631691,0.0,0.0,0.5815612077713013,0.3952057361602783
-0.1601057052612304,0.1695627570152282,0.0415646955370903,-0.3451844751834869,-0.1353281289339065,0.0370502360165119,0.0,0.0,0.3932244777679443,0.3203489780426025
-0.1597271859645843,0.1619256883859634,0.0360740683972835,-0.339266300201416,-0.1335648745298385,0.035265527665615,0.0,0.0,0.5999071598052979,0.6710200309753418
-0.159077450633049,0.1547453701496124,0.0638193041086196,-0.3190206885337829,-0.1324096620082855,0.0231045056134462,0.0,0.0,0.1250832080841064,-0.7840118408203125
-0.1583896577358245,0.1473859697580337,0.0655225664377212,-0.3267984092235565,-0.129171684384346,0.0647597014904022,0.0,0.0,0.1974837779998779,-0.6693655848503113
-0.1575422286987304,0.1402932703495025,0.0794903934001922,-0.3147850632667541,-0.1239501759409904,0.104430042207241,0.0,0.0,0.1862165927886963,-0.3922997713088989
-0.1566145867109298,0.1334847509860992,0.0871166884899139,-0.302143931388855,-0.118331030011177,0.1123828515410423,0.0,0.0,-0.1671188473701477,-0.2701408863067627
-0.1556551903486251,0.1261279881000518,0.0898181200027465,-0.3264925181865692,-0.112244889140129,0.1217228174209594,0.0,0.0,0.3142746686935425,0.0901007652282714
-0.154548168182373,0.118900328874588,0.1038310378789901,-0.3207286596298218,-0.1054178923368454,0.1365399211645126,0.0,0.0,0.6652576923370361,-0.1759036779403686
-0.1533223092555999,0.1123535260558128,0.115283727645874,-0.2904712259769439,-0.0981715619564056,0.1449266374111175,0.0,0.0,0.4342167377471924,-0.1396507024765014
-0.1519340574741363,0.1062719225883483,0.1308256685733795,-0.2697908580303192,-0.0902361273765564,0.1587086021900177,0.0,0.0,-0.1083409786224365,-0.2315381169319152
-0.1504993438720703,0.0996427163481712,0.1350144445896148,-0.294143408536911,-0.081863023340702,0.167461946606636,0.0,0.0,0.5119878053665161,-0.4915019273757934
-0.1490804702043533,0.0933257937431335,0.1335256248712539,-0.2803178131580353,-0.0735782012343406,0.1656963527202606,0.0,0.0,0.3425335884094238,-0.0101534128189086
-0.1476822793483734,0.0870987772941589,0.1315110176801681,-0.2763732373714447,-0.0653549879789352,0.1644642502069473,0.0,0.0,0.5356638431549072,-0.2547856569290161
-0.146214485168457,0.081110656261444,0.1381449997425079,-0.2657864987850189,-0.0568125434219837,0.1708488911390304,0.0,0.0,0.503920316696167,0.8281116485595703
-0.1445693075656891,0.0752929747104644,0.1570966988801956,-0.2582985758781433,-0.0494780540466308,0.1466896384954452,0.0,0.0,0.4394474029541015,0.1969984769821167
-0.1427346169948578,0.0693889707326889,0.1751177012920379,-0.2621482908725738,-0.041225079447031,0.1650594472885131,0.0,0.0,-0.188031792640686,-0.1112615466117858
-0.1408372819423675,0.0629377961158752,0.1809916198253631,-0.286503255367279,-0.0325906462967395,0.1726884096860885,0.0,0.0,0.5835555791854858,0.7759169340133667
-0.1387619972229004,0.0571016632020473,0.1999316066503524,-0.2592360377311706,-0.0250818096101284,0.1501765996217727,0.0,0.0,0.4294029474258423,-0.5605976581573486
