x_pos,y_pos,x_vel,y_vel,angle,ang_vel,leg_1,leg_2,main_booster,lat_booster
-0.0015092849498614,1.4035348892211914,-0.1528347730636596,-0.3282271921634674,0.0017022014362737,0.0335731990635395,0.0,0.0,-0.042436888184216,-0.8473136576329563
-0.0030653954017907,1.396079182624817,-0.1587699949741363,-0.3313687145709991,0.0048293690197169,0.0625500977039337,0.0,0.0,-0.1716190278743901,0.696386297892059
-0.004540538880974,1.3885290622711182,-0.148903876543045,-0.3355675637722015,0.0062077734619379,0.0275706611573696,0.0,0.0,-0.2391853286229217,-0.8027067390171043
-0.006077098660171,1.3808860778808594,-0.1569072753190994,-0.3397038578987121,0.0094203054904937,0.0642564222216606,0.0,0.0,-0.0844360098627843,-0.8300667172067573
-0.0076513290405273,1.37315571308136,-0.1618921607732772,-0.3436063528060913,0.01385232899338,0.0886484161019325,0.0,0.0,0.153213899442028,0.8579585334165769
-0.0090382574126124,1.3659069538116455,-0.1414646357297897,-0.3221888244152069,0.0165848098695278,0.0546544007956981,0.0,0.0,-0.9311229187558584,0.5791530139546659
-0.0103677753359079,1.358569860458374,-0.1345267593860626,-0.326109915971756,0.018139062449336,0.031088063493371,0.0,0.0,0.971267903157053,-0.5284337717775733
-0.0115509983152151,1.352306842803955,-0.1214626282453537,-0.2784043550491333,0.0212529357522726,0.062283169478178,0.0,0.0,-0.6903810352035302,-0.6982334191563497
-0.0127771375700831,1.3459599018096924,-0.1271062791347503,-0.2821538150310516,0.0256959609687328,0.0888682976365089,0.0,0.0,-0.0898286718723635,-0.6288230372549475
-0.0140398982912302,1.3395260572433472,-0.131953552365303,-0.2860600650310516,0.0313040800392627,0.112172819674015,0.0,0.0,0.5138330873200079,-0.7756347792663196
-0.0152804376557469,1.3338217735290527,-0.1313526779413223,-0.2536990046501159,0.03852004930377,0.1443330198526382,0.0,0.0,0.7849073909742286,0.573231757643918
-0.0164037700742483,1.3288898468017578,-0.1186171323060989,-0.2193708568811416,0.0447413250803947,0.1244368329644203,0.0,0.0,0.694854435916872,0.7472170612475366
-0.0173419006168842,1.3249616622924805,-0.0988303571939468,-0.1747470647096634,0.0497044026851654,0.0992708280682563,0.0,0.0,-0.1133944768091004,0.9595431795302594
-0.0181835182011127,1.3209413290023804,-0.0869439095258712,-0.1787778288125991,0.0524581521749496,0.0550798252224922,0.0,0.0,-0.8419495734096907,-0.8101252147375249
-0.0190626140683889,1.3168359994888306,-0.0918392986059188,-0.1825938522815704,0.0563526339828968,0.0778968185186386,0.0,0.0,0.206314012833821,0.9171860691753588
-0.019776726141572,1.3129698038101196,-0.0734614580869674,-0.1719139963388443,0.0583807192742824,0.0405655428767204,0.0,0.0,0.9477684834994262,0.6494118737626678
-0.0203137397766113,1.310551404953003,-0.0548286028206348,-0.1075283735990524,0.0594933182001113,0.0222543012350797,0.0,0.0,-0.0154962255061137,-0.5116035019416976
-0.0208704955875873,1.3080360889434814,-0.057501096278429,-0.1118624433875083,0.0612890645861625,0.0359185151755809,0.0,0.0,0.4074632585934667,0.5356619613401817
-0.0213274955749511,1.3064725399017334,-0.0465564094483852,-0.0695307254791259,0.0621395632624626,0.0170115791261196,0.0,0.0,-0.0890883378272211,0.5677477016230822
-0.0217357631772756,1.3048224449157717,-0.0405960269272327,-0.0733261033892631,0.0619172491133213,-0.0044469819404184,0.0,0.0,0.6919401049637359,-0.573159450836005
-0.0220874790102243,1.3042486906051636,-0.036369577050209,-0.0255492273718118,0.0631058886647224,0.0237747803330421,0.0,0.0,-0.3058115312417329,-0.7691339590309458
-0.0224894527345895,1.3035752773284912,-0.0428170412778854,-0.0300429128110408,0.0656973272562027,0.0518336482346057,0.0,0.0,0.7675682472458207,0.8777580272504106
-0.0226984024047851,1.303705096244812,-0.0219234526157379,0.005723281763494,0.0667142122983932,0.0203394163399934,0.0,0.0,-0.4335035677707042,-0.85028447534592
-0.0229582786560058,1.303729772567749,-0.0284311175346374,0.0009886906482279,0.069132000207901,0.048360425978899,0.0,0.0,0.0490899343092792,-0.9236213126775348
-0.0234193801879882,1.3042607307434082,-0.0503158494830131,0.0233900062739849,0.0733043849468231,0.0834551900625228,0.0,0.0,0.584200365364461,0.8402836056296082
-0.0240114219486713,1.3056851625442505,-0.0613906793296337,0.063201867043972,0.0754625797271728,0.0431639701128006,0.0,0.0,0.5947916132637185,0.9633937469797208
-0.0245704650878906,1.3080841302871704,-0.0560475103557109,0.1066112667322158,0.0756075382232666,0.0028992665465921,0.0,0.0,0.6240200617072076,0.61671024828975
-0.025275707244873,1.31160306930542,-0.0689940080046653,0.1564741879701614,0.0740973129868507,-0.0302046053111553,0.0,0.0,-0.880118370964607,0.8750563113666612
-0.0259224884212017,1.315045714378357,-0.061675913631916,0.1531557440757751,0.0711230561137199,-0.0594851002097129,0.0,0.0,0.3783233461204907,0.5314886973173677
-0.0265711788088083,1.319008231163025,-0.0606507435441017,0.176303431391716,0.0669503957033157,-0.0834532156586647,0.0,0.0,0.158448260011959,0.7058489886338768
-0.0271862037479877,1.3237850666046145,-0.0557848624885082,0.2125462144613266,0.0612917728722095,-0.1131723746657371,0.0,0.0,-0.6688644289970398,-0.9442163705825806
-0.0278828628361225,1.32845938205719,-0.065997302532196,0.207892045378685,0.0576617531478405,-0.0726004168391227,0.0,0.0,-0.5636171698570251,-0.8003035187721252
-0.0286501888185739,1.3330456018447876,-0.0747971311211586,0.2039025276899337,0.0557474680244922,-0.0382856056094169,0.0,0.0,-0.4402400255203247,-0.6070743799209595
-0.0294695850461721,1.3375322818756104,-0.0812662690877914,0.1994350552558899,0.0550776645541191,-0.0133960712701082,0.0,0.0,-0.534822404384613,-0.5348290801048279
-0.0303302761167287,1.3419270515441897,-0.0863478928804397,0.1953200697898864,0.0553518496453762,0.00548374094069,0.0,0.0,-0.1998414993286132,-0.1971560716629028
-0.0311920158565044,1.3462324142456057,-0.0863512083888053,0.1913452893495559,0.0555361211299896,0.0036851055920124,0.0,0.0,-0.5600188374519348,0.3894631862640381
-0.032055377960205,1.350448489189148,-0.0864394307136535,0.1873705238103866,0.0556320361793041,0.0019180600065737,0.0,0.0,-0.3179636597633362,-0.3500626683235168
-0.0329214110970497,1.3545749187469482,-0.0866119712591171,0.1833957135677337,0.0556413047015666,0.0001854000292951,0.0,0.0,-0.209115982055664,-0.6801440715789795
-0.033848475664854,1.3586145639419556,-0.0940790548920631,0.1794894635677337,0.0570062696933746,0.0272990576922893,0.0,0.0,-0.4789133071899414,0.3123869895935058
-0.0347796455025672,1.3625648021697998,-0.0944165587425232,0.1755144894123077,0.0582884475588798,0.0256435368210077,0.0,0.0,-0.2978006601333618,-0.0173231363296508
-0.0357157699763774,1.3664255142211914,-0.0948338061571121,0.1715395599603653,0.0594899877905845,0.0240306667983531,0.0,0.0,-0.334859549999237,-0.0031737685203552
-0.0366577133536338,1.37019681930542,-0.095328465104103,0.167564645409584,0.0606131628155708,0.0224632993340492,0.0,0.0,-0.1601815223693847,0.26248300075531
-0.0376061424612998,1.3738784790039062,-0.0958978533744812,0.1635897308588028,0.0616603717207908,0.0209440849721431,0.0,0.0,-0.3510032892227173,0.0947935581207275
-0.0385617241263389,1.3774707317352295,-0.0965390056371688,0.1596148163080215,0.0626341700553894,0.0194758381694555,0.0,0.0,-0.38551926612854,-0.0087837576866149
-0.039525032043457,1.3809734582901,-0.097248762845993,0.1556399166584015,0.0635372251272201,0.0180613808333873,0.0,0.0,-0.5266579389572144,0.1686327457427978
-0.0404969230294227,1.3843867778778076,-0.0980237573385238,0.1516650170087814,0.0643724128603935,0.0167034938931465,0.0,0.0,-0.3844277858734131,0.0670657157897949
-0.0414776802062988,1.3877105712890625,-0.0988605767488479,0.1476901322603225,0.0651426687836647,0.0154050905257463,0.0,0.0,-0.4854404926300049,0.2098479270935058
-0.0424680709838867,1.3909448385238647,-0.0997557118535041,0.1437152326107025,0.0658511221408844,0.0141690419986844,0.0,0.0,-0.3723551034927368,0.1102590560913086
-0.0434685721993446,1.394089698791504,-0.1007056683301925,0.1397403329610824,0.0665010511875152,0.0129982810467481,0.0,0.0,-0.5363730192184448,0.0140620470046997
-0.0444796569645404,1.3971449136734009,-0.1017069816589355,0.1357654184103012,0.0670958384871482,0.0118957366794347,0.0,0.0,-0.3189119100570678,0.1637629270553589
-0.045501708984375,1.4001108407974243,-0.1027562618255615,0.1317904889583587,0.06763906031847,0.0108645288273692,0.0,0.0,-0.5178411602973938,-0.017160415649414
-0.0465352050960063,1.4029871225357056,-0.1038502007722854,0.1278155595064163,0.0681344270706176,0.0099076135084033,0.0,0.0,-0.284180998802185,0.0246056318283081
-0.0475805290043354,1.4057738780975342,-0.1049856171011924,0.1238406002521514,0.0685858353972435,0.0090280240401625,0.0,0.0,-0.494637668132782,0.0882589817047119
-0.0486379638314247,1.4084713459014893,-0.1061595231294632,0.119865633547306,0.068997286260128,0.0082289706915616,0.0,0.0,-0.3860871791839599,-0.3471130132675171
-0.0497078895568847,1.4110792875289917,-0.1073690205812454,0.1158906444907188,0.0693729445338249,0.0075134509243071,0.0,0.0,-0.4107708930969238,0.1686985492706298
-0.050790499895811,1.413597822189331,-0.1086113825440406,0.1119156330823898,0.069717176258564,0.0068845311179757,0.0,0.0,-0.2905977964401245,0.3830931186676025
-0.0518860816955566,1.4160268306732178,-0.1098840609192848,0.1079405918717384,0.0700344368815422,0.0063453912734985,0.0,0.0,-0.2914105653762817,0.1983647346496582
-0.0529950149357318,1.418366312980652,-0.1111846715211868,0.1039655357599258,0.0703293979167938,0.0058989110402762,0.0,0.0,-0.439162015914917,0.3514313697814941
-0.0541173927485942,1.4206163883209229,-0.1125109568238258,0.0999904498457908,0.0706067979335784,0.005548071116209,0.0,0.0,-0.4540810585021972,-0.1555268168449401
-0.0552533157169818,1.4227769374847412,-0.1138608679175376,0.0960153341293335,0.0708716064691543,0.0052958554588258,0.0,0.0,-0.4031399488449096,0.0158765316009521
-0.0564029701054096,1.424848198890686,-0.1152325123548507,0.0920401886105537,0.0711288675665855,0.005145032890141,0.0,0.0,-0.3934479355812073,0.1612375974655151
-0.0575666427612304,1.4268299341201782,-0.1166240945458412,0.0880650207400322,0.0713837966322898,0.005098377354443,0.0,0.0,-0.4154171943664551,0.7770742177963257
-0.0586704239249229,1.4287282228469849,-0.1087493896484375,0.0844449549913406,0.0697775110602378,-0.032125599682331,0.0,0.0,-0.0613158345222473,-0.5501579642295837
-0.0598299987614154,1.430533528327942,-0.1154160350561142,0.0802617445588111,0.0692319869995117,-0.0109104411676526,0.0,0.0,-0.4342678785324096,-0.1895966529846191
-0.0610039718449115,1.4322494268417358,-0.1168581694364547,0.076286457479,0.0687004849314689,-0.0106299594044685,0.0,0.0,-0.2521003484725952,0.1632990837097168
-0.0621922500431537,1.4338760375976562,-0.1183144897222518,0.072311133146286,0.0681886672973632,-0.0102360919117927,0.0,0.0,-0.1779796481132507,-0.1613258123397827
-0.0633950233459472,1.4354130029678345,-0.1197838187217712,0.0683357864618301,0.0677023157477378,-0.0097269294783473,0.0,0.0,-0.255018413066864,0.0631181001663208
-0.064612291753292,0.0,-0.1212651133537292,0.0643604099750518,0.0672472864389419,-0.0091008553281426,0.0,0.0,-0.3403537273406982,0.0737286806106567
-0.0658440589904785,1.4382189512252808,-0.1227573901414871,0.0603849999606609,0.0668294504284858,-0.0083565739914774,0.0,0.0,-0.4512568712234497,0.185550570487976
-0.0670905113220214,1.4394876956939695,-0.1242597475647926,0.0564095601439476,0.0664548203349113,-0.0074930628761649,0.0,0.0,-0.172197937965393,0.251889705657959
-0.068351462483406,1.4406671524047852,-0.1257713884115219,0.0524340905249118,0.0661293566226959,-0.0065093347802758,0.0,0.0,-0.2237565517425537,-0.1299127340316772
-0.0696270912885665,1.4417572021484375,-0.1272915601730346,0.0484585911035537,0.0658591017127037,-0.005404929164797,0.0,0.0,-0.3121962547302246,0.2320135831832885
-0.0709174126386642,1.4427579641342163,-0.1288195550441742,0.0444830618798732,0.0656501278281211,-0.0041796099394559,0.0,0.0,-0.1509879231452942,0.0078215599060058
-0.072222426533699,1.4436691999435425,-0.1303547620773315,0.04050749912858,0.0655084624886512,-0.0028334949165582,0.0,0.0,-0.3988001942634582,0.3156801462173462
-0.073542021214962,1.4444910287857056,-0.1318966001272201,0.0365319103002548,0.0654401108622551,-0.0013669535983353,0.0,0.0,-0.5575320720672607,-0.4489102363586426
-0.0748764052987098,1.4452235698699951,-0.1334445178508758,0.0325562879443168,0.0654510855674743,0.0002193448599427,0.0,0.0,-0.329742431640625,-0.0245689749717712
-0.0762254744768142,1.4458667039871216,-0.1349980384111404,0.0285806376487016,0.0655473172664642,0.0019244911381974,0.0,0.0,-0.3394157886505127,0.1230006217956543
-0.0775891318917274,1.446420431137085,-0.1365566849708557,0.0246049501001834,0.0657346844673156,0.0037471421528607,0.0,0.0,-0.361978530883789,0.004646897315979
-0.0789674744009971,1.4468849897384644,-0.1381200402975082,0.0206292271614074,0.0660189688205719,0.0056857042945921,0.0,0.0,-0.4504022598266601,0.6910130977630615
-0.080316349864006,1.4472713470458984,-0.1341469436883926,0.0172070506960153,0.0652848482131958,-0.0146825704723596,0.0,0.0,-0.5629114508628845,0.0306620597839355
-0.0816798210144043,1.447568416595459,-0.1357185542583465,0.0132312271744012,0.0646589696407318,-0.0125177893787622,0.0,0.0,-0.3080353736877441,0.2332292795181274
-0.0830578804016113,1.447776198387146,-0.1372937858104705,0.0092553915455937,0.0641468092799186,-0.0102432444691658,0.0,0.0,-0.2496111989021301,0.6033642292022705
-0.0844109505414962,1.447898507118225,-0.1338989734649658,0.0054903114214539,0.0627546980977058,-0.0278422087430953,0.0,0.0,-0.3116134405136108,0.5617527961730957
-0.0857383757829666,1.4479374885559082,-0.1304297149181366,0.0018310868181288,0.0604698993265628,-0.0456960424780845,0.0,0.0,-0.3800420761108398,-0.3703749775886535
-0.0870803818106651,1.447887301445007,-0.1320138275623321,-0.0021451923530548,0.0583145022392272,-0.0431079864501953,0.0,0.0,-0.6655174493789673,0.007475733757019
-0.0884367972612381,1.447747826576233,-0.1336003839969635,-0.0061214240267872,0.0562934502959251,-0.0404212586581707,0.0,0.0,-0.5923542380332947,0.3127787113189697
-0.0898077934980392,1.447519063949585,-0.1351890861988067,-0.0100976079702377,0.0544115006923675,-0.0376390404999256,0.0,0.0,-0.462376594543457,-0.1264845132827758
-0.091193102300167,1.4472010135650637,-0.1367796808481216,-0.0140737481415271,0.0526732578873634,-0.0347645916044712,0.0,0.0,-0.440333604812622,-0.0610435009002685
-0.0925929099321365,1.446793556213379,-0.1383719444274902,-0.0180498417466878,0.0510831996798515,-0.0318012461066246,0.0,0.0,-0.7104856371879578,-0.3074154853820801
-0.0940070152282714,1.4462970495224,-0.1399656236171722,-0.0220258943736553,0.0496455691754817,-0.0287523716688156,0.0,0.0,-0.5847287774085999,0.3731560707092285
-0.095435619354248,1.4457108974456787,-0.1415605247020721,-0.0260019060224294,0.0483645051717758,-0.0256213787943124,0.0,0.0,-0.4889702796936035,-0.0582914352416992
-0.0968785285949707,1.4450355768203735,-0.1431563943624496,-0.0299778822809457,0.0472439154982566,-0.0224117152392864,0.0,0.0,-0.8196925520896912,0.3497530221939087
-0.0983357429504394,1.4442709684371948,-0.1447530388832092,-0.0339538268744945,0.0462875664234161,-0.0191268548369407,0.0,0.0,-0.8032475113868713,0.5899927616119385
-0.0997526198625564,1.4434146881103516,-0.1394989043474197,-0.0379942879080772,0.0441296063363552,-0.0431592874228954,0.0,0.0,-0.8825917840003967,0.325271725654602
-0.1011836975812912,1.4424691200256348,-0.1410964280366897,-0.0419704988598823,0.0421428941190242,-0.0397341139614582,0.0,0.0,-0.9197734594345092,-0.1088873147964477
-0.1026289910078048,1.4414341449737549,-0.1426940560340881,-0.0459466353058815,0.0403307080268859,-0.0362438187003135,0.0,0.0,-0.949976921081543,-0.3102011680603027
-0.1040884032845497,1.4403098821640017,-0.1442916244268417,-0.0499226972460746,0.0386961326003074,-0.0326916724443435,0.0,0.0,-0.9104562401771544,0.0772053003311157
-0.10556211322546,1.439096212387085,-0.1458888947963714,-0.0538986884057521,0.0372421033680439,-0.0290807969868183,0.0,0.0,-0.9700309038162231,0.6498839855194092
-0.106991097331047,1.437800049781799,-0.1401128023862838,-0.0575456768274307,0.0344912484288215,-0.0550170354545116,0.0,0.0,-0.977750837802887,-0.5795763731002808
-0.1084841713309288,1.4364160299301147,-0.1479809284210205,-0.061479739844799,0.0331811271607875,-0.0262023564428091,0.0,0.0,-0.744278609752655,0.5836737155914307
-0.1099514961242675,1.4349489212036133,-0.1445882618427276,-0.0651588812470436,0.0310573931783437,-0.0424746349453926,0.0,0.0,-0.979465901851654,0.3109084367752075
-0.1114329323172569,1.4333925247192385,-0.1461820751428604,-0.0691349357366561,0.0291244313120841,-0.0386591628193855,0.0,0.0,-0.7953413724899292,0.0420267581939697
-0.1129281967878341,0.0,-0.1477744281291961,-0.0731109082698822,0.0273844338953495,-0.0347996205091476,0.0,0.0,-0.9961008429527284,-0.3529753684997558
-0.1144374832510948,1.4300116300582886,-0.149365097284317,-0.077086791396141,0.0258395094424486,-0.0308985859155654,0.0,0.0,-0.9961475729942322,0.5558478832244873
-0.1159090995788574,1.4281926155090332,-0.1444711983203888,-0.0808047354221344,0.0231912527233362,-0.0529650077223777,0.0,0.0,-0.9855542778968812,0.3068013191223144
-0.1173944473266601,1.4262843132019043,-0.1460576206445694,-0.0847809016704559,0.0207418389618396,-0.048988439142704,0.0,0.0,-0.9461061954498292,-0.3957817554473877
-0.1188936233520507,1.4242866039276123,-0.147641509771347,-0.0887569338083267,0.0184929445385932,-0.0449776276946067,0.0,0.0,-0.997455358505249,0.1738159656524658
-0.1204065307974815,1.4221994876861572,-0.1492225229740142,-0.0927328616380691,0.016446191817522,-0.0409348458051681,0.0,0.0,-0.9977682828903198,0.1730885505676269
-0.1219332665205001,1.4200230836868286,-0.150800347328186,-0.0967086777091026,0.0146031025797128,-0.0368621721863746,0.0,0.0,-0.9991517663002014,-0.2162583470344543
-0.1234736442565918,1.417757511138916,-0.1523746103048324,-0.1006844043731689,0.0129650151357054,-0.0327616184949874,0.0,0.0,-0.9753217101097108,0.1754240989685058
-0.1250275671482086,1.4154022932052612,-0.1539449542760849,-0.1046600490808487,0.0115332603454589,-0.0286351628601551,0.0,0.0,-0.996597945690155,0.3591986894607544
-0.1265951097011566,1.4129576683044434,-0.1555109769105911,-0.1086356192827224,0.010309032164514,-0.0244846306741237,0.0,0.0,-0.9932028651237488,-0.1895940899848938
-0.1281761229038238,1.410423755645752,-0.1570722162723541,-0.1126111075282096,0.0092934472486376,-0.0203118324279785,0.0,0.0,-0.9521936178207396,-0.160923957824707
-0.1297704726457595,1.4078006744384766,-0.158628225326538,-0.1165865510702133,0.0084875226020812,-0.0161183942109346,0.0,0.0,-0.9933938384056092,-0.2491215467453003
-0.1313783675432205,1.4050878286361694,-0.1601784974336624,-0.1205619573593139,0.0078922193497419,-0.0119059504941105,0.0,0.0,-0.9912760853767396,-0.0756785869598388
-0.1329994201660156,1.4022858142852783,-0.1617224961519241,-0.124537318944931,0.0075084222480654,-0.0076760598458349,0.0,0.0,-0.9737394452095032,0.0531013011932373
-0.1346338242292404,1.3993942737579346,-0.1632596552371978,,0.0073369075544178,-0.0034301846753805,0.0,0.0,-0.9980735182762146,-0.4013396501541137
-0.136281207203865,1.3964132070541382,-0.1647893488407135,-0.1324879825115203,0.0073783989064395,0.0008301132475025,0.0,0.0,-0.9658673405647278,0.361329436302185
-0.1379417479038238,1.3933427333831787,-0.1663108766078949,-0.136463314294815,0.0076335999183356,0.0051037245430052,0.0,0.0,-0.985075056552887,0.457960844039917
-0.1396152526140213,1.3901829719543457,-0.1678235232830047,-0.1404386162757873,0.0081030614674091,0.0093890614807605,0.0,0.0,-0.998506724834442,0.7877280712127686
-0.1412326842546463,1.3869258165359497,-0.1606732904911041,-0.1447567492723465,0.0070554865524172,-0.0209514982998371,0.0,0.0,-0.983665406703949,0.0990335941314697
