x_pos,y_pos,x_vel,y_vel,angle,ang_vel,leg_1,leg_2,main_booster,lat_booster
-0.0015758514637127,1.4034417867660522,-0.1596846431493759,-0.3323739171028137,0.0018727598944678,0.0369503498077392,0.0,0.0,-0.504334568977356,0.7802057266235352
-0.0031366348266601,1.3958001136779783,-0.1562977582216262,-0.3396283090114593,0.0020925814751535,0.0043973783031105,0.0,0.0,-0.0255646705627441,0.8383877277374268
-0.00466670980677,1.3879693746566772,-0.1512542217969894,-0.348031610250473,0.0003613365406636,-0.0346280261874198,0.0,0.0,0.3087726831436157,0.448233962059021
-0.0063395500183105,1.380549430847168,-0.1651583611965179,-0.3297743797302246,-0.0017443093238398,-0.0421171113848686,0.0,0.0,-0.4703325033187866,0.8340580463409424
-0.0079796789214015,1.3729491233825684,-0.1599367707967758,-0.3377984762191772,-0.0057708057574927,-0.0805373862385749,0.0,0.0,-0.0947338342666626,0.2504259347915649
-0.0096650123596191,1.365166425704956,-0.1645530760288238,-0.3459204733371734,-0.0097102057188749,-0.0787951424717903,0.0,0.0,-0.437970757484436,0.3398878574371338
-0.0113941188901662,1.357201099395752,-0.1690234988927841,-0.354044646024704,-0.0135594047605991,-0.076990894973278,0.0,0.0,-0.3521532416343689,0.338982343673706
-0.0131655689328908,1.3490532636642456,-0.1733450293540954,-0.3621691167354584,-0.0173137430101633,-0.0750936493277549,0.0,0.0,-0.2316240072250366,0.8518306016921997
-0.0149118425324559,1.3407304286956787,-0.1692595183849334,-0.3699774444103241,-0.0226219277828931,-0.1061733812093734,0.0,0.0,-0.1939729452133178,0.6859432458877563
-0.0166432373225688,1.33222758769989,-0.1664981544017791,-0.3780149817466736,-0.0291827358305454,-0.1312284171581268,0.0,0.0,-0.4786880016326904,0.6274042129516602
-0.0183555595576763,1.3235408067703247,-0.1632679253816604,-0.3862596452236175,-0.0370564050972461,-0.1574878990650177,0.0,0.0,-0.3477617502212524,0.299325942993164
-0.0201035495847463,1.314671754837036,-0.1669641286134719,-0.3943877518177032,-0.0448172837495803,-0.1552316397428512,0.0,0.0,-0.3402952551841736,0.3421615362167358
-0.021885871887207,1.3056209087371826,-0.1705042123794555,-0.4025157690048218,-0.0524617657065391,-0.152903750538826,0.0,0.0,-0.1411734819412231,0.3929812908172607
-0.0237007141113281,1.2963879108428955,-0.1738872677087783,-0.4106439054012298,-0.0599854104220867,-0.1504866182804107,0.0,0.0,-0.5198001861572266,0.7449690103530884
-0.0254738815128803,1.2869738340377808,-0.1680011004209518,-0.418793648481369,-0.069207526743412,-0.184458926320076,0.0,0.0,-0.3199101686477661,0.1467784643173217
-0.0272762291133403,1.2773780822753906,-0.1710646003484726,-0.4269241690635681,-0.0782995671033859,-0.1818571984767913,0.0,0.0,-0.5307498574256897,0.6045413017272949
-0.0290474891662597,1.2676010131835938,-0.1666024625301361,-0.4351261854171753,-0.0887329801917076,-0.2086875438690185,0.0,0.0,-0.463584303855896,0.2582851648330688
-0.0308445934206247,1.2576420307159424,-0.1693491637706756,-0.443259060382843,-0.0990283042192459,-0.2059250622987747,0.0,0.0,0.1075501441955566,0.521817684173584
-0.0325001701712608,1.248293161392212,-0.1544391810894012,-0.4162785112857818,-0.1100822240114212,-0.2210983484983444,0.0,0.0,-0.81827712059021,0.1063364744186401
-0.0341785438358783,1.2387627363204956,-0.1568759083747863,-0.4244192838668823,-0.1209905743598938,-0.2181868255138397,0.0,0.0,-0.8015881776809692,-0.0137925148010253
-0.0358780845999717,1.229050874710083,-0.1591594368219375,-0.4325509369373321,-0.1317500919103622,-0.2152093350887298,0.0,0.0,-0.4016610383987427,0.23974609375
-0.0375972762703895,1.2191572189331057,-0.1612932384014129,-0.4406842291355133,-0.1423569768667221,-0.2121568471193313,0.0,0.0,-0.7275320887565613,0.1219745874404907
-0.0393345840275287,1.2090821266174316,-0.1632789820432663,-0.448818027973175,-0.1528076827526092,-0.2090328484773636,0.0,0.0,0.225189208984375,-0.3917027711868286
-0.0410021767020225,1.199156403541565,-0.1567152291536331,-0.4421996474266052,-0.1628582924604416,-0.2010302245616912,0.0,0.0,-0.6041633486747742,0.0281721353530883
-0.0426849350333213,1.1890488862991333,-0.1584149748086929,-0.4503350555896759,-0.172746255993843,-0.1977764368057251,0.0,0.0,-0.6289036273956299,-0.477518081665039
-0.0443840995430946,1.178738355636597,-0.1602196991443634,-0.4594060182571411,-0.1824688017368316,-0.1944510340690612,0.0,0.0,-0.1839327216148376,-0.0585189461708068
-0.046095848083496,1.168245792388916,-0.1616699397563934,-0.4675329923629761,-0.1920235753059387,-0.1910953670740127,0.0,0.0,-0.6351674795150757,-0.3352181315422058
-0.0478189475834369,1.1575713157653809,-0.1629871726036071,-0.4756594896316528,-0.2014075815677642,-0.1876798123121261,0.0,0.0,-0.482889175415039,-0.4656453132629394
-0.0495520606637001,1.146714687347412,-0.1641752868890762,-0.4837855398654938,-0.2106178700923919,-0.1842059791088104,0.0,0.0,-0.4284617900848388,-0.8259734511375427
-0.0513603202998638,1.135693907737732,-0.1735836863517761,-0.490863174200058,-0.2179345786571502,-0.1463342607021331,0.0,0.0,-0.3594158887863159,-0.0691503882408142
-0.0531761161983013,1.1244906187057495,-0.1745254099369049,-0.4989860653877258,-0.2250720411539077,-0.1427491307258606,0.0,0.0,-0.7105048298835754,-0.646030604839325
-0.0550549514591693,1.113120198249817,-0.1824696958065033,-0.5061939358711243,-0.2305608540773391,-0.1097763925790786,0.0,0.0,0.7800111770629883,0.0693920850753784
-0.056828211992979,1.1028584241867063,-0.1716985404491424,-0.4569689631462097,-0.2362767308950424,-0.1143176332116127,0.0,0.0,-0.4179292321205139,0.261721134185791
-0.0586057677865028,1.0924137830734253,-0.172305941581726,-0.4650897681713104,-0.2418056428432464,-0.110578253865242,0.0,0.0,0.002232551574707,0.2526233196258545
-0.0602856650948524,1.0823369026184082,-0.1627864986658096,-0.4487324059009552,-0.2470995634794235,-0.105878509581089,0.0,0.0,-0.3986044526100158,0.1284773349761963
-0.06196765974164,1.0720767974853516,-0.1631962656974792,-0.456852525472641,-0.2522018551826477,-0.1020449995994567,0.0,0.0,0.011978268623352,-0.0015425086021423
-0.0635969191789627,1.0620448589324951,-0.158038705587387,-0.4467133581638336,-0.2571845650672912,-0.0996543914079666,0.0,0.0,-0.6615517139434814,-0.4347102642059326
-0.0652265548706054,1.051829814910889,-0.1582721769809723,-0.4548329412937164,-0.2619712352752685,-0.0957335159182548,0.0,0.0,-0.2538509368896484,0.148442268371582
-0.0668556243181228,1.041431546211243,-0.158425748348236,-0.4629522562026977,-0.2665598094463348,-0.0917715728282928,0.0,0.0,-0.5733717083930969,0.4881751537322998
-0.0684835463762283,1.030850172042847,-0.1585050374269485,-0.4710713028907776,-0.2709483504295349,-0.0877701565623283,0.0,0.0,-0.1213866472244262,0.0924814939498901
-0.0701095610857009,1.0200855731964111,-0.1585157215595245,-0.4791900515556335,-0.2751348614692688,-0.0837309807538986,0.0,0.0,-0.2137056589126587,-0.7117831110954285
-0.071776196360588,1.009154200553894,-0.1639028191566467,-0.4863593280315399,-0.2779719233512878,-0.0567411184310913,0.0,0.0,0.4061415195465088,-0.2286560535430908
-0.0732869133353233,0.9983904361724854,-0.1488890349864959,-0.4788074493408203,-0.2802209854125976,-0.044981263577938,0.0,0.0,0.1309902667999267,-0.7513540387153625
-0.074676513671875,0.9879557490348816,-0.1385117769241333,-0.4638518989086151,-0.2806770205497741,-0.0091207232326269,0.0,0.0,0.2024890184402465,-0.7128605246543884
-0.0760902389883995,0.9776754975318908,-0.1424960196018219,-0.4566830098628998,-0.2795254290103912,0.0230318829417228,0.0,0.0,-0.4696621894836426,-0.0728785395622253
-0.0774994865059852,0.9672117233276368,-0.1422505676746368,-0.4647999703884125,-0.2781636118888855,0.0272365324199199,0.0,0.0,-0.2025994658470153,-0.5126329660415649
-0.0789393410086631,0.9565768837928772,-0.1464235484600067,-0.4721991419792175,-0.2756583988666534,0.0501035824418067,0.0,0.0,0.4000545740127563,-0.7494808435440063
-0.0803392380475997,0.9468536972999572,-0.143975630402565,-0.4313964247703552,-0.2715700268745422,0.0817672982811927,0.0,0.0,0.2473772764205932,-0.4535411596298218
-0.0816705673933029,0.9378473162651062,-0.1368818432092666,-0.3995911478996277,-0.2677307426929474,0.0767854899168014,0.0,0.0,0.120908498764038,-0.6030988097190857
-0.082966610789299,0.9291805624961852,-0.1347392052412033,-0.3842628300189972,-0.2624796032905578,0.1050226911902427,0.0,0.0,-0.789800763130188,-0.2258124351501464
-0.0842568427324295,0.9203307032585144,-0.1343863606452942,-0.3923821151256561,-0.2570118010044098,0.1093562692403793,0.0,0.0,-0.8636987209320068,0.8041304349899292
-0.085485078394413,0.911280870437622,-0.1269518882036209,-0.4014951884746551,-0.2527923882007599,0.0843884050846099,0.0,0.0,-0.8739030361175537,-0.5097525715827942
-0.0867397338151931,0.9020575284957886,-0.1306560784578323,-0.4090450406074524,-0.2475132942199707,0.1055817455053329,0.0,0.0,-0.9337145090103148,0.1217018365859985
-0.0879888534545898,0.8926512002944946,-0.1303084045648574,-0.417164534330368,-0.2420144379138946,0.1099771037697792,0.0,0.0,-0.9614384174346924,0.4353574514389038
-0.089232251048088,0.8830617666244507,-0.1299740076065063,-0.4252843260765075,-0.2362949103116989,0.1143905892968177,0.0,0.0,-0.9403767585754396,0.6798856258392334
-0.0904269218444824,0.8732703328132629,-0.1241813451051712,-0.4344219863414764,-0.2315103560686111,0.0956911891698837,0.0,0.0,-0.9715697169303894,-0.2515125274658203
-0.0916164368391037,0.8632957935333252,-0.1238899677991867,-0.4425413310527801,-0.2265034914016723,0.1001373305916786,0.0,0.0,-0.9988880157470704,0.1639890670776367
-0.092800997197628,0.8531383275985718,-0.123628631234169,-0.4506609737873077,-0.2212736159563064,0.1045979261398315,0.0,0.0,-0.99279123544693,0.2886515855789184
-0.0939811691641807,0.8427976965904236,-0.123402714729309,-0.4587808549404144,-0.2158200144767761,0.1090718284249305,0.0,0.0,-0.996188461780548,0.413381814956665
-0.0951570495963096,0.832274317741394,-0.1232175976037979,-0.4669009745121002,-0.2101421356201172,0.1135577782988548,0.0,0.0,-0.9997211694717408,0.1213977336883544
-0.0963293090462684,0.821567952632904,-0.1230785250663757,-0.4750214219093323,-0.2042394131422042,0.1180545836687088,0.0,0.0,-0.997574508190155,0.3141490221023559
-0.0974985137581825,0.8106786012649536,-0.1229906231164932,-0.483142226934433,-0.198111355304718,0.122560940682888,0.0,0.0,-0.9970624446868896,-0.2210865616798401
-0.0986648574471473,0.799606442451477,-0.1229589357972145,-0.4912633299827575,-0.1917575746774673,0.1270756274461746,0.0,0.0,-0.9699439406394958,-0.4094064235687256
-0.0998292937874794,0.7883515954017639,-0.1229883804917335,-0.4993847906589508,-0.1851777285337448,0.1315972954034805,0.0,0.0,-0.992624044418335,0.6116241216659546
-0.1009448021650314,0.7768959403038025,-0.117090605199337,-0.508459746837616,-0.1796175837516784,0.1112029403448104,0.0,0.0,-0.9692509770393372,-0.6616918444633484
-0.1021215468645095,0.765274703502655,-0.1250466853380203,-0.5156206488609314,-0.172230988740921,0.1477321088314056,0.0,0.0,-0.9203550219535828,-0.402881383895874
-0.1032983809709549,0.7534711360931396,-0.1252878010272979,-0.5237436890602112,-0.1646176725625991,0.1522662341594696,0.0,0.0,-0.9901098012924194,0.654712438583374
-0.1044190376996994,0.7414627075195312,-0.1184045299887657,-0.5330172181129456,-0.1582720726728439,0.1269116103649139,0.0,0.0,-0.9977968335151672,-0.2307650446891784
-0.1055413261055946,0.7292717695236206,-0.1188082247972488,-0.5411392450332642,-0.1516997367143631,0.1314468085765838,0.0,0.0,-0.9895251989364624,0.5676639080047607
-0.1066290885210037,0.7168869376182556,-0.1146222576498985,-0.5498496890068054,-0.1458602845668792,0.1167890280485153,0.0,0.0,-0.98906147480011,0.6638667583465576
-0.1076760292053222,0.7043125033378601,-0.1096496134996414,-0.5583910346031189,-0.1409180462360382,0.0988445356488227,0.0,0.0,-0.9958449602127076,-0.1398557424545288
-0.1087274551391601,0.6915550231933594,-0.1103269010782241,-0.5665121674537659,-0.1357496529817581,0.1033679246902465,0.0,0.0,-0.9892876148223876,-0.4722457528114319
-0.1097843199968338,0.6786149144172668,-0.1111026406288147,-0.5746335983276367,-0.1303554624319076,0.1078833565115928,0.0,0.0,-0.9264091849327089,0.6801735162734985
-0.1107878684997558,0.6654800772666931,-0.1044653803110122,-0.5834120512008667,-0.1262604594230651,0.0819004625082016,0.0,0.0,-0.9761728644371032,0.7745436429977417
-0.111742116510868,0.6521455645561218,-0.0982942283153534,-0.5924091339111328,-0.1234036311507225,0.0571366250514984,0.0,0.0,-0.9944114089012146,-0.7209001183509827
-0.1127557754516601,0.6386298537254333,-0.1057475209236145,-0.6003445982933044,-0.1190495491027832,0.0870818570256233,0.0,0.0,-0.9256038665771484,0.2206728458404541
-0.1137791648507118,0.624931275844574,-0.1069466471672058,-0.6084657311439514,-0.1144724339246749,0.0915423035621643,0.0,0.0,-0.9782699942588806,0.3883233070373535
-0.1148134246468544,0.6110498309135437,-0.1082579866051673,-0.6165870428085327,-0.1096733137965202,0.0959823727607727,0.0,0.0,-0.9710314869880676,0.5134520530700684
-0.1158135384321212,0.5969831943511963,-0.1039044111967086,-0.6249037384986877,-0.1058117747306823,0.0772306844592094,0.0,0.0,-0.9281197786331176,0.8352150917053223
-0.1167728453874588,0.5827334523200989,-0.0986761301755905,-0.6331289410591125,-0.1030829772353172,0.0545760281383991,0.0,0.0,-0.6892673373222351,0.0172988176345825
-0.1177465468645095,0.5683007836341858,-0.1003349795937538,-0.6412493586540222,-0.1001361683011055,0.0589360482990741,0.0,0.0,-0.7683102488517761,0.3677574396133423
-0.1187356933951377,0.5536852478981018,-0.102112628519535,-0.649370014667511,-0.0969730615615844,0.0632623136043548,0.0,0.0,-0.3379503488540649,0.7622284889221191
-0.1196918487548828,0.5388794541358948,-0.0977443233132362,-0.6579000353813171,-0.0948594063520431,0.042273323982954,0.0,0.0,0.5199506282806396,0.7119473218917847
-0.1206059455871582,0.5248246192932129,-0.0922227054834365,-0.6246049404144287,-0.09405567497015,0.0160746295005083,0.0,0.0,-0.7158104777336121,0.5193254947662354
-0.1214990615844726,0.5105838179588318,-0.0893125757575035,-0.6329243183135986,-0.094055600464344,1.5202482472886911e-06,0.0,0.0,0.1653594970703125,0.5954271554946899
-0.1222591400146484,0.4967567920684814,-0.0751405581831932,-0.6145927309989929,-0.0949221849441528,-0.0173317082226276,0.0,0.0,-0.1110138893127441,0.2901804447174072
-0.1230410560965538,0.4827466309070587,-0.0775215327739715,-0.6227128505706787,-0.0955840647220611,-0.0132377445697784,0.0,0.0,0.6450769901275635,-0.1732566952705383
-0.1237157806754112,0.4691389799118042,-0.067431516945362,-0.6047869324684143,-0.0956170335412025,-0.0006593479774892,0.0,0.0,0.2874016761779785,0.385267972946167
-0.1242579445242881,0.4559963643550873,-0.0549260377883911,-0.5840728878974915,-0.0949214100837707,0.0139128342270851,0.0,0.0,-0.1047373414039611,0.3328032493591308
-0.1248256713151931,0.4426707029342651,-0.0576672255992889,-0.5921931862831116,-0.0940310731530189,0.0178067665547132,0.0,0.0,-0.0578829646110534,0.7521324157714844
-0.1253610551357269,0.4291592538356781,-0.0531265027821064,-0.6005342602729797,-0.0944331735372543,-0.0080422600731253,0.0,0.0,0.6068878173828125,0.7212443351745605
-0.1257645636796951,0.4165593087673187,-0.0387570671737194,-0.5601003170013428,-0.0960192456841468,-0.0317216143012046,0.0,0.0,-0.0706525444984436,0.6015830039978027
-0.1261399239301681,0.4037704467773437,-0.0346581749618053,-0.5685817003250122,-0.0988698005676269,-0.0570111945271492,0.0,0.0,0.4200977087020874,-0.6899654269218445
-0.1264772415161132,0.3912042081356048,-0.0325939729809761,-0.5585775971412659,-0.0999997556209564,-0.022599134594202,0.0,0.0,0.2866276502609253,0.0976710319519043
-0.1268470734357834,0.3790529370307922,-0.0358312055468559,-0.5401321649551392,-0.1011472642421722,-0.022949993610382,0.0,0.0,-0.457564115524292,0.5448194742202759
-0.1272002160549163,0.3667178452014923,-0.0330745615065097,-0.5483800172805786,-0.1033653244376182,-0.0443610325455665,0.0,0.0,-0.551220715045929,-0.4355452060699463
-0.1275870352983474,0.3541998863220215,-0.0366077534854412,-0.5565007925033569,-0.1054232642054557,-0.0411589853465557,0.0,0.0,-0.8701446652412415,-0.2196055054664611
-0.1280086487531662,0.3414989411830902,-0.0402453243732452,-0.5646215677261353,-0.1073275133967399,-0.0380850806832313,0.0,0.0,-0.3104176521301269,-0.6431409120559692
-0.1285092383623123,0.3286253213882446,-0.0493932962417602,-0.5722087621688843,-0.1079863011837005,-0.013175556436181,0.0,0.0,0.4442534446716308,-0.1253487467765808
-0.1290225982666015,0.3165543973445892,-0.0505949668586254,-0.5365391373634338,-0.1087218821048736,-0.0147117543965578,0.0,0.0,-0.2214846611022949,0.3620262145996094
-0.1295739114284515,0.3043005466461181,-0.0545284636318683,-0.5446597337722778,-0.1093253418803215,-0.0120694013312459,0.0,0.0,0.7899906635284424,0.3247836828231811
-0.1301321983337402,0.2926726341247558,-0.0552192814648151,-0.5168401002883911,-0.1099293455481529,-0.0120802335441112,0.0,0.0,-0.1324715614318847,0.9332334995269777
-0.1306712180376052,0.2808530330657959,-0.0519002564251422,-0.5254660248756409,-0.1119182929396629,-0.0397789478302001,0.0,0.0,-0.0055669546127319,-0.5466700792312622
-0.1313050240278244,0.2688583433628082,-0.0628524795174598,-0.5331363081932068,-0.1124375313520431,-0.0103849116712808,0.0,0.0,0.5263450145721436,0.6406683921813965
-0.1317493468523025,0.2576475739479065,-0.0429528355598449,-0.4983666539192199,-0.1139078140258789,-0.0294055305421352,0.0,0.0,-0.29737389087677,-0.3211116194725036
-0.1322363913059234,0.2462540417909622,-0.047313667833805,-0.5064877271652222,-0.1152896136045456,-0.0276360101997852,0.0,0.0,0.0839836597442627,0.0785481929779052
-0.1326148062944412,0.2354070544242859,-0.0369782261550426,-0.482155442237854,-0.1161525249481201,-0.0172580312937498,0.0,0.0,-0.5996326804161072,0.4665006399154663
-0.133037656545639,0.224377229809761,-0.0414841435849666,-0.4902766346931457,-0.1169468015432357,-0.0158856250345706,0.0,0.0,0.613472580909729,0.3896942138671875
-0.1332697868347168,0.2143833935260772,-0.0231256503611803,-0.444177508354187,-0.1170382797718048,-0.0018295220797881,0.0,0.0,-0.4991329908370971,-0.2693784236907959
-0.1335478723049163,0.2042067348957061,-0.0277607943862676,-0.4522987902164459,-0.1170820444822311,-0.0008755808812566,0.0,0.0,0.1409571170806884,0.5410661697387695
-0.1337691247463226,0.1946861147880554,-0.0210227780044078,-0.4232246577739715,-0.1181766465306282,-0.0218916945159435,0.0,0.0,-0.8952999114990234,0.6005243062973022
-0.1339851319789886,0.1849787980318069,-0.0192107409238815,-0.4316288530826568,-0.1205623596906662,-0.0477141216397285,0.0,0.0,-0.0363078713417053,0.3381571769714355
-0.1342491209506988,0.1750887483358383,-0.0240088328719139,-0.4397509694099426,-0.1229331269860267,-0.0474154874682426,0.0,0.0,0.2678349018096924,0.1771509647369384
-0.1345963478088379,0.1657397150993347,-0.0319118723273277,-0.4157482981681824,-0.1257342994213104,-0.0560236163437366,0.0,0.0,-0.0219569206237792,0.4910811185836792
-0.1349925100803375,0.1562079936265945,-0.0367971844971179,-0.4238707721233368,-0.1285428404808044,-0.056170642375946,0.0,0.0,0.3450813293457031,-0.0130344629287719
-0.1353966742753982,0.147179827094078,-0.0374921150505542,-0.4015060663223266,-0.1314509809017181,-0.0581629052758216,0.0,0.0,0.8121119737625122,0.415454626083374
-0.1357456147670745,0.1388335824012756,-0.032084722071886,-0.3711959421634674,-0.1342569887638092,-0.0561201870441436,0.0,0.0,0.6713961362838745,-0.4617243409156799
-0.1359652578830719,0.1308189928531646,-0.0197174437344074,-0.3564082980155945,-0.1364923864603042,-0.0447080954909324,0.0,0.0,0.807225227355957,0.4764940738677978
-0.1360280066728592,0.1237115710973739,-0.004476168192923,-0.31605264544487,-0.1382859647274017,-0.0358716957271099,0.0,0.0,0.3577556610107422,-0.4677550196647644
-0.1360298097133636,0.117402084171772,0.0015831136843189,-0.2805839478969574,-0.1400462388992309,-0.0352054163813591,0.0,0.0,-0.4361456632614136,-0.3613872528076172
