x_pos,y_pos,x_vel,y_vel,angle,ang_vel,leg_1,leg_2,main_booster,lat_booster
-0.0015769958263263,1.4035258293151855,-0.1598072052001953,-0.3286334574222564,0.0018793497001752,0.037080593407154,0.0,0.0,-0.1053187179732899,0.6811093125466194
-0.0031508444808423,1.3960530757904053,-0.1578378826379776,-0.3321272134780884,0.0023272724356502,0.008960192091763,0.0,0.0,0.5240518429486156,-0.771582287236007
-0.0047050477005541,1.3890347480773926,-0.1577700078487396,-0.3119285404682159,0.0046407543122768,0.0462740920484066,0.0,0.0,-0.572793599630256,0.7211756970483781
-0.0062702177092432,1.381915807723999,-0.157793790102005,-0.3164067566394806,0.0058998013846576,0.0251832846552133,0.0,0.0,0.2503129999981608,0.8472765059833989
-0.0077169416472315,1.375442624092102,-0.1444623619318008,-0.2876936793327331,0.0056916261091828,-0.0041637509129941,0.0,0.0,0.3754493406974817,-0.6914074293358363
-0.0091517446562647,1.3695486783981323,-0.1449986696243286,-0.261962741613388,0.0071932966820895,0.0300364438444376,0.0,0.0,0.1912770881505985,-0.9282535158884102
-0.0107399942353367,1.3641798496246338,-0.1623090654611587,-0.2386427521705627,0.0106347650289535,0.0688358470797538,0.0,0.0,0.8019242638409718,0.771003221206316
-0.0121561046689748,1.359776735305786,-0.1440698802471161,-0.1957126557826995,0.0130664678290486,0.0486384518444538,0.0,0.0,-0.6495003916629805,0.9149337735559542
-0.0135611537843942,1.3552861213684082,-0.1412958949804306,-0.1995832473039627,0.0138476472347974,0.0156249850988388,0.0,0.0,0.3798237574856498,0.7378678286897148
-0.0149770732969045,1.35161292552948,-0.1410423368215561,-0.1632506549358368,0.0132979378104209,-0.0109951570630073,0.0,0.0,-0.5599034440359301,-0.7074911560017598
-0.0165010448545217,1.3478403091430664,-0.1532019674777984,-0.1676720529794693,0.0140882274135947,0.0158074982464313,0.0,0.0,-0.9199273320947146,-0.7856684628031085
-0.018140411004424,1.343966722488403,-0.1662708222866058,-0.1721881777048111,0.0163963045924901,0.046165831387043,0.0,0.0,-0.6767522401375003,0.6903471952107193
-0.0197747237980365,1.3399995565414429,-0.1642291992902755,-0.176324263215065,0.0171888209879398,0.0158517584204673,0.0,0.0,-0.6772329242655761,0.9960625435613624
-0.0213826186954975,1.33592689037323,-0.159524992108345,-0.180994227528572,0.0159365609288215,-0.0250473376363515,0.0,0.0,-0.1982065388009113,-0.9498385719591552
-0.0231096260249614,1.3317641019821167,-0.1730510592460632,-0.1850174069404602,0.0162884388118982,0.0070382403209805,0.0,0.0,-0.3949574327126135,0.9993790035571504
-0.0248050689697265,1.3274933099746704,-0.1676982939243316,-0.1897954493761062,0.0144623462110757,-0.0365251377224922,0.0,0.0,-0.7470462764910342,0.7683293068275574
-0.026487922295928,1.3231345415115356,-0.16473089158535,-0.1936911046504974,0.0109348138794302,-0.0705569759011268,0.0,0.0,-0.2400163433515898,-0.7812496071350217
-0.0282802581787109,1.3186699151992798,-0.1770280301570892,-0.1984136551618576,0.0087682791054248,-0.0433346256613731,0.0,0.0,0.3135812859185336,0.7921860984248178
-0.0299904830753803,1.3150734901428225,-0.1675382554531097,-0.1598206460475921,0.0053161862306296,-0.0690481662750244,0.0,0.0,0.4771781431151345,-0.9437866132083086
-0.0319226272404193,1.3121358156204224,-0.1917194426059723,-0.1305589377880096,0.0038379535544663,-0.0295671559870243,0.0,0.0,0.8201677064582993,-0.6874790055009954
-0.0338229164481163,1.3103476762771606,-0.1904778778553009,-0.0794774144887924,0.0042800181545317,0.0088420007377862,0.0,0.0,0.7888496223107941,0.6524451642049779
-0.0357229225337505,1.309175968170166,-0.189360037446022,-0.0520707629621028,0.0036517120897769,-0.0125674735754728,0.0,0.0,0.8255372884961178,-0.8001940717424517
-0.0375942215323448,1.308807611465454,-0.188632994890213,-0.0163782462477684,0.0051356712356209,0.0296817906200885,0.0,0.0,-0.3863761998796371,-0.9201509031124732
-0.0395931228995323,1.3083298206329346,-0.2032196968793869,-0.0212485566735267,0.008435484021902,0.0660021901130676,0.0,0.0,-0.7828241422302475,-0.830567186752359
-0.0417365059256553,1.3077551126480105,-0.2199450731277465,-0.0255847331136465,0.0139793027192354,0.1108861193060875,0.0,0.0,-0.3751098113351663,-0.7415994886895108
-0.0440159812569618,1.307063341140747,-0.2356274425983429,-0.0308351553976535,0.0215613152831792,0.1516405344009399,0.0,0.0,-0.3430240166654181,-0.6537607577599522
-0.0464102737605571,1.306276559829712,-0.2486308366060257,-0.0351329557597637,0.0306446533650159,0.181666761636734,0.0,0.0,0.2188115388889524,0.6209215605412202
-0.0489446632564067,1.3063087463378906,-0.2614246010780334,0.0012456226395443,0.0385264419019222,0.1576359570026397,0.0,0.0,-0.6824934811454151,-0.8348606280408851
-0.0516232475638389,1.3062456846237185,-0.2780869305133819,-0.0030942580197006,0.0486425049602985,0.202320858836174,0.0,0.0,-0.2885249234422988,0.8827203770766687
-0.0542978271842002,1.3060871362686155,-0.2762000262737274,-0.007358266506344,0.0572806820273399,0.1727636754512787,0.0,0.0,0.8108982855284048,0.694234159481874
-0.0570125579833984,1.3072351217269895,-0.2790715098381042,0.0507113561034202,0.0648062005639076,0.1505104303359985,0.0,0.0,0.9448240973571966,0.7516561542260347
-0.0598636642098426,1.309049129486084,-0.2912018895149231,0.0803528875112533,0.0708267614245414,0.1204113215208053,0.0,0.0,0.1654495655641294,-0.8609594989127948
-0.0629543289542198,1.3116053342819214,-0.3170644640922546,0.1132095083594322,0.0787476748228073,0.1584179848432541,0.0,0.0,0.9301810648129638,0.7527806296741026
-0.0661625862121582,1.3146846294403076,-0.3273497521877289,0.1365013569593429,0.0852095261216163,0.1292372494935989,0.0,0.0,0.306048647360414,-0.6363743325350453
-0.0695128440856933,1.3184043169021606,-0.3430778980255127,0.1648302376270294,0.0931898206472396,0.1596058160066604,0.0,0.0,0.5471713866913994,-0.6014076806996859
-0.0730219855904579,1.323084831237793,-0.3604444563388824,0.2073974460363388,0.1026369556784629,0.1889426708221435,0.0,0.0,0.9046944874714706,0.9785090659029068
-0.0766048431396484,1.3284528255462646,-0.3660118579864502,0.2380328774452209,0.1103082746267318,0.1534266024827957,0.0,0.0,-0.8049641063785409,0.6413486537176526
-0.0801981911063194,1.3337372541427612,-0.3659200370311737,0.234359785914421,0.1168470680713653,0.1307761818170547,0.0,0.0,0.923013275662073,0.7880666912552505
-0.0839579552412033,1.34039568901062,-0.3810924887657165,0.2955262959003448,0.1219311654567718,0.1016821041703224,0.0,0.0,-0.2397758730153547,0.7654201933198366
-0.0877185836434364,1.3469688892364502,-0.3798047006130218,0.291828840970993,0.125647097826004,0.0743186771869659,0.0,0.0,-0.989222959725556,0.7556791919809107
-0.0914947539567947,1.3534595966339111,-0.3803346455097198,0.2882407903671264,0.1283517330884933,0.0540926344692707,0.0,0.0,-0.9895872473716736,-0.4310258626937866
-0.0953345298767089,1.3598520755767822,-0.3869356215000152,0.283856451511383,0.1312903016805648,0.0587713904678821,0.0,0.0,-0.9986885190010072,0.7290992736816406
-0.0991709679365158,1.3661518096923828,-0.3851280212402344,0.2798506319522857,0.1327760368585586,0.0297147240489721,0.0,0.0,-0.999044954776764,-0.2873978614807129
-0.103070929646492,1.372353196144104,-0.3917236924171448,0.2754666209220886,0.1344973295927047,0.0344258025288581,0.0,0.0,-0.9897251129150392,-0.3508224487304687
-0.1070344001054763,1.3784565925598145,-0.3983156085014343,0.2710825502872467,0.1364548653364181,0.0391510501503944,0.0,0.0,-0.995436429977417,-0.3450768589973449
-0.1110613793134689,1.3844618797302246,-0.4049029946327209,0.2666983604431152,0.1386493146419525,0.0438889823853969,0.0,0.0,-0.9579254388809204,-0.2783889770507812
-0.1151517853140831,1.3903690576553345,-0.411484956741333,0.2623139917850494,0.141081228852272,0.0486384592950344,0.0,0.0,-0.9934810996055604,-0.6458175182342529
-0.1193662658333778,1.3961725234985352,-0.4256598949432373,0.2575213313102722,0.1452794671058654,0.0839646011590957,0.0,0.0,-0.9938575625419616,0.9187343120574952
-0.1235888451337814,1.4018981456756592,-0.4252668917179107,0.2541791200637817,0.1482795029878616,0.0600005462765693,0.0,0.0,-0.998198926448822,0.3910670280456543
-0.1278746575117111,1.407525897026062,-0.4318274855613708,0.2497942298650741,0.1515183597803115,0.0647770538926124,0.0,0.0,-0.996115267276764,-0.3998351097106933
-0.1322236061096191,1.413055658340454,-0.4383791983127594,0.245409145951271,0.1549963653087616,0.0695603266358375,0.0,0.0,-0.9897456765174866,0.3791797161102295
-0.1366355866193771,1.418487548828125,-0.4449206888675689,0.2410238236188888,0.1587138324975967,0.0743492692708969,0.0,0.0,-0.9994943737983704,0.410811185836792
-0.1411105096340179,1.4238215684890747,-0.4514509737491607,0.2366383075714111,0.1626709699630737,0.0791428834199905,0.0,0.0,-0.9836264848709106,0.8121328353881836
-0.1455854475498199,1.4290807247161863,-0.4500475525856018,0.2334567904472351,0.1652287691831588,0.0511560030281543,0.0,0.0,-0.9946646690368652,0.0288999080657959
-0.1501230299472808,1.4342420101165771,-0.4565517008304596,0.2290717512369156,0.1680265665054321,0.0559560172259807,0.0,0.0,-0.9931879043579102,0.7249146699905396
-0.1546750962734222,1.4393140077590942,-0.4570329785346985,0.2252203971147537,0.1698445677757263,0.0363603346049785,0.0,0.0,-0.9943081140518188,-0.4437389373779297
-0.1592896431684494,1.4442880153656006,-0.4635053277015686,0.2208355218172073,0.1719027459621429,0.0411632731556892,0.0,0.0,-0.9979768991470336,0.3681291341781616
-0.1639662683010101,1.4491641521453855,-0.4699592590332031,0.2164505124092102,0.174201026558876,0.0459658615291118,0.0,0.0,-0.9811212420463562,-0.4034963250160217
-0.1687048971652984,1.4539425373077393,-0.4763929843902588,0.2120653986930847,0.1767394095659256,0.0507672801613807,0.0,0.0,-0.9739640951156616,0.258475661277771
-0.1735052168369293,1.458622694015503,-0.4828044474124908,0.2076801210641861,0.1795177310705185,0.0555664300918579,0.0,0.0,-0.9951722621917723,0.3464864492416382
-0.1783670485019683,1.463205099105835,-0.489191472530365,0.2032946944236755,0.1825358271598816,0.0603622607886791,0.0,0.0,-0.9706810116767884,0.953315019607544
-0.1832290589809417,1.4677114486694336,-0.4878506064414978,0.2000806182622909,0.1841963976621627,0.0332116894423961,0.0,0.0,-0.9934467673301696,-0.3248686790466308
-0.1881519258022308,1.472119927406311,-0.4941817224025726,0.1956955343484878,0.1860962957143783,0.0379979088902473,0.0,0.0,-0.9350691437721252,-0.7583655118942261
-0.1931921988725662,1.4764156341552734,-0.5076064467430115,0.1904668509960174,0.1896965205669403,0.072004422545433,0.0,0.0,-0.9898339509963988,0.6074466705322266
-0.1982443779706955,1.4806228876113892,-0.507811963558197,0.1866528242826461,0.19230318069458,0.0521332435309886,0.0,0.0,-0.9771463871002196,0.8050897121429443
-0.2033069133758545,1.4847471714019775,-0.5078075528144836,0.1830966025590896,0.1938634663820266,0.0312056541442871,0.0,0.0,-0.9609110951423644,-0.0586675405502319
-0.2084289491176605,1.4887734651565552,-0.5139907598495483,0.1787113696336746,0.1956613659858703,0.0359579436480999,0.0,0.0,-0.9901625514030457,0.3975027799606323
-0.2136100232601165,1.492701768875122,-0.5201278924942017,0.1743260324001312,0.1976962834596634,0.0406982488930225,0.0,0.0,-0.9508094191551208,0.5280262231826782
-0.2188077419996261,1.4965510368347168,-0.5209208130836487,0.170924574136734,0.1988549530506134,0.0231730453670024,0.0,0.0,-0.9072608947753906,0.405708909034729
-0.2240633964538574,1.5003023147583008,-0.5269523859024048,0.1665393561124801,0.2002492398023605,0.0278857611119747,0.0,0.0,-0.9351384043693542,0.7175312042236328
-0.2293298244476318,1.5039730072021484,-0.5270437598228455,0.1630856096744537,0.2006542384624481,0.0081003466621041,0.0,0.0,-0.9542347192764282,0.8727805614471436
-0.2345822304487228,1.5075689554214478,-0.5240420699119568,0.1599827110767364,0.1994485855102539,-0.0241132639348506,0.0,0.0,-0.8094272017478943,0.2231823205947876
-0.2398906648159027,1.5110669136047363,-0.5298758149147034,0.155597522854805,0.1984758377075195,-0.0194548293948173,0.0,0.0,-0.9169573783874512,0.5581732988357544
-0.2452058345079422,1.514481544494629,-0.5295328497886658,0.1520301252603531,0.1964767128229141,-0.0399824231863021,0.0,0.0,-0.9801324009895324,0.7108323574066162
-0.2505227029323578,1.517808437347412,-0.5285941958427429,0.1482701599597931,0.193364217877388,-0.0622494742274284,0.0,0.0,-0.9424306750297546,0.5992887020111084
-0.255840539932251,1.52104651927948,-0.5275892019271851,0.1444565951824188,0.1891461759805679,-0.0843608230352401,0.0,0.0,-0.9857959151268004,-0.604752779006958
-0.2612594664096832,1.5241668224334717,-0.5391977429389954,0.1390145421028137,0.1864375919103622,-0.0541716814041137,0.0,0.0,-0.9055145382881165,0.7730100154876709
-0.2666715681552887,1.527212619781494,-0.5372089743614197,0.1358700543642044,0.1824211031198501,-0.0803297162055969,0.0,0.0,-0.9415323734283448,0.0723271369934082
-0.2721339166164398,1.5301607847213743,-0.542454719543457,0.1314841210842132,0.1786292642354965,-0.0758367404341697,0.0,0.0,-0.9753380417823792,0.7087202072143555
-0.2776013016700744,1.5330302715301514,-0.5420187711715698,0.1280884891748428,0.1738993525505066,-0.0945982411503791,0.0,0.0,-0.8595632314682007,-0.3059597611427307
-0.2831162512302398,1.535801887512207,-0.5469951033592224,0.1237022578716278,0.1693902015686035,-0.0901832953095436,0.0,0.0,-0.9987247586250304,-0.4099640846252441
-0.288677304983139,1.5384756326675415,-0.5518206357955933,0.1193163022398948,0.165099561214447,-0.0858126953244209,0.0,0.0,-0.9735427498817444,0.6463983058929443
-0.2942409515380859,1.5410621166229248,-0.551216185092926,0.1155133247375488,0.1599482893943786,-0.1030253767967224,0.0,0.0,-0.9250236749649048,0.1992177963256836
-0.2998474240303039,1.5435506105422974,-0.5557044744491577,0.1111271008849144,0.1550105512142181,-0.0987551361322403,0.0,0.0,-0.9669645428657532,0.8075346946716309
-0.305433452129364,1.5459601879119873,-0.5522814989089966,0.1077312678098678,0.1486973017454147,-0.1262651085853576,0.0,0.0,-0.9584051966667176,0.1873755455017089
-0.3110584318637848,1.5482720136642456,-0.5563828349113464,0.1033441945910453,0.1425916850566864,-0.1221123784780502,0.0,0.0,-0.9782357811927797,0.2845914363861084
-0.3167203366756439,1.5504862070083618,-0.5602715611457825,0.0989574939012527,0.1366903930902481,-0.1180256977677345,0.0,0.0,-0.9238913655281068,0.9886693954467772
-0.3223268389701843,1.5526137351989746,-0.5526440739631653,0.0952815264463424,0.1287133991718292,-0.1595402210950851,0.0,0.0,-0.9390318393707277,0.5673884153366089
-0.3279103636741638,1.5546550750732422,-0.549113392829895,0.0914861857891082,0.1195233464241027,-0.1838009357452392,0.0,0.0,-0.9985563158988952,0.2847579717636108
-0.3335238099098205,1.5565990209579468,-0.5522857308387756,0.0870960503816604,0.1105261892080307,-0.1799431890249252,0.0,0.0,-0.8845922946929932,0.7452607154846191
-0.3391068577766418,1.5584609508514404,-0.5479477643966675,0.0834852531552314,0.1002425402402877,-0.2056729346513748,0.0,0.0,-0.9817532896995544,0.1729705333709716
-0.3447145521640777,1.5602259635925293,-0.5505812168121338,0.0790937095880508,0.0901426896452903,-0.2019969522953033,0.0,0.0,-0.9636943340301514,0.709726095199585
-0.3502766191959381,1.561906099319458,-0.5444737672805786,0.0753310918807983,0.078513853251934,-0.2325767278671264,0.0,0.0,-0.981340229511261,0.5766758918762207
-0.3558042049407959,1.56348979473114,-0.5398286581039429,0.071018286049366,0.0657192021608352,-0.2558931112289428,0.0,0.0,-0.9613036513328552,0.9513208866119384
-0.3612789511680603,1.5649816989898682,-0.5329595804214478,0.0668793767690658,0.0513642877340316,-0.2870981991291046,0.0,0.0,-0.9101952314376832,0.5543909072875977
-0.3667168021202087,1.5663883686065674,-0.5281459093093872,0.0629893764853477,0.0359116643667221,-0.3090525269508362,0.0,0.0,-0.9844725131988524,0.9002089500427246
-0.3720958828926086,1.5677034854888916,-0.5206742286682129,0.0587794594466686,0.0188931226730346,-0.3403710424900055,0.0,0.0,-0.9837427735328674,0.4894965887069702
-0.377481460571289,1.5689239501953125,-0.5214686393737793,0.054373774677515,0.0020233616232872,-0.3373951911926269,0.0,0.0,-0.8496811389923096,0.3669273853302002
-0.3828702867031097,1.5700494050979614,-0.5219386219978333,0.0499687232077121,-0.0147047359496355,-0.3345620036125183,0.0,0.0,-0.973640501499176,-0.099955141544342
-0.3882592320442199,1.571080207824707,-0.5220831632614136,0.0455642491579055,-0.0312986746430397,-0.3318788409233093,0.0,0.0,-0.9480489492416382,0.9647321701049804
-0.3935789465904236,1.5720200538635254,-0.5136289596557617,0.0412955954670906,-0.0494209118187427,-0.3624447286128998,0.0,0.0,-0.9621502757072448,0.8528251647949219
-0.3988277316093445,1.5728586912155151,-0.5050274729728699,0.0364939123392105,-0.0690524205565452,-0.392630398273468,0.0,0.0,-0.9339228868484496,-0.2162586450576782
-0.4040669798851013,1.5736035108566284,-0.5042081475257874,0.0320811159908771,-0.0885742753744125,-0.3904370367527008,0.0,0.0,-0.9586291313171388,0.785149097442627
-0.4092472493648529,1.574247121810913,-0.4972613453865051,0.0272456835955381,-0.1091696098446846,-0.4119068086147308,0.0,0.0,-0.9336569905281068,0.1914983987808227
-0.4144117832183838,1.574797749519348,-0.4958256781101227,0.0228299498558044,-0.1296734511852264,-0.4100769162178039,0.0,0.0,-0.9336624145507812,0.5319782495498657
-0.4195120930671692,1.5752415657043457,-0.4883610606193542,0.0177079904824495,-0.1512683779001236,-0.4318992495536804,0.0,0.0,-0.9316238164901732,0.5578715801239014
-0.4245361387729645,1.5755853652954102,-0.4795030951499939,0.0127888554707169,-0.174173891544342,-0.4581102728843689,0.0,0.0,-0.8084481358528137,-0.1481868028640747
-0.4295356869697571,1.575837254524231,-0.4772097468376159,0.0083651589229702,-0.1970175206661224,-0.4568728506565094,0.0,0.0,-0.7747777104377747,-0.2303137779235839
-0.4345081746578216,1.575997233390808,-0.4746513366699219,0.0039418106898665,-0.21980981528759,-0.4558460712432861,0.0,0.0,-0.7875829935073853,-0.3319695591926574
-0.4394509792327881,1.5760650634765625,-0.47183957695961,-0.0004812584375031,-0.2425615638494491,-0.4550349712371826,0.0,0.0,-0.844892680644989,-0.1982619762420654
-0.4443617463111877,1.5760412216186523,-0.4687865376472473,-0.0049041076563298,-0.2652837634086609,-0.4544436931610107,0.0,0.0,-0.8196554183959961,-0.7159159779548645
-0.4492860436439514,1.5759508609771729,-0.4715665876865387,-0.0079385889694094,-0.2866783142089844,-0.4278912544250488,0.0,0.0,-0.7921261191368103,-0.7135762572288513
-0.4542213976383209,1.5757848024368286,-0.4740225672721863,-0.0113507928326725,-0.3068143129348755,-0.4027199149131775,0.0,0.0,-0.6846447587013245,-0.9222621321678162
-0.4592016339302063,1.5755654573440552,-0.4807932376861572,-0.0134780965745449,-0.3246935606002807,-0.3575843870639801,0.0,0.0,-0.5184559226036072,-0.5303168892860413
-0.4641901850700378,1.5752744674682615,-0.4829781651496887,-0.0165844447910785,-0.3412766754627228,-0.3316624462604522,0.0,0.0,0.0752520561218261,-0.3084879517555237
-0.4690276980400085,1.5754142999649048,-0.4678707122802734,0.002358125988394,-0.3579523265361786,-0.3335132002830505,0.0,0.0,-0.6523888111114502,-0.7383421063423157
-0.473874419927597,1.575486660003662,-0.4702230393886566,-0.0004630567273125,-0.3732181489467621,-0.3053164482116699,0.0,0.0,-0.2302091121673584,-0.5917012691497803
-0.4787119030952453,1.575478196144104,-0.4702261984348297,-0.0039684418588876,-0.3875871300697326,-0.2873805165290832,0.0,0.0,-0.1945915222167968,-0.0739444494247436
-0.4835034906864166,1.5753742456436155,-0.4656616151332855,-0.0083676632493734,-0.402017742395401,-0.2886119484901428,0.0,0.0,-0.3298527002334595,-0.6919907927513123
-0.4882940351963043,1.5752108097076416,-0.4668534398078918,-0.0107758808881044,-0.4151399731636047,-0.2624445557594299,0.0,0.0,-0.0012683272361755,-0.4956616163253784
-0.4930363297462463,1.574951410293579,-0.4620216786861419,-0.0151731381192803,-0.4283453524112701,-0.2641076743602752,0.0,0.0,-0.3171364068984985,-0.6141113638877869
