x_pos,y_pos,x_vel,y_vel,angle,ang_vel,leg_1,leg_2,main_booster,lat_booster
-0.0015582084888592,1.4033232927322388,-0.1579204499721527,-0.3376365005970001,0.0018723831744864,0.0369428768754005,0.0,0.0,-0.2396754622459411,0.84932541847229
-0.0030805587302893,1.3954445123672483,-0.1523176431655883,-0.3501675426959991,0.00195988942869,0.0017509937752038,0.0,0.0,-0.6914594769477844,0.5090993642807007
-0.0045916559174656,1.3872605562210083,-0.1500521600246429,-0.3637333512306213,0.0009133340790867,-0.0209329687058925,0.0,0.0,0.2416011095046997,0.6112575531005859
-0.0061931610107421,1.3793364763259888,-0.1577800959348678,-0.3521817922592163,-0.0014282697811722,-0.0468362458050251,0.0,0.0,-0.2801836133003235,0.5862118005752563
-0.0077790259383618,1.3711129426956177,-0.154919147491455,-0.3654979765415191,-0.0050620911642909,-0.0726832598447799,0.0,0.0,-0.2881448864936828,0.1673909425735473
-0.0094066616147756,1.3625885248184204,-0.1592209190130233,-0.3788824677467346,-0.0085706915706396,-0.0701785832643508,0.0,0.0,0.0505497455596923,0.367571473121643
-0.0110886571928858,1.354313850402832,-0.1647184193134308,-0.3677819669246673,-0.0120130572468042,-0.0688537657260894,0.0,0.0,-0.1695817708969116,0.5685725212097168
-0.0127591136842966,1.3457388877868652,-0.1622990369796753,-0.381155788898468,-0.0167145039886236,-0.0940373167395591,0.0,0.0,-0.1788840293884277,0.80524742603302
-0.0144130708649754,1.3368703126907349,-0.1592144072055816,-0.394239217042923,-0.0228220056742429,-0.1221613138914108,0.0,0.0,0.0803126096725463,0.6246440410614014
-0.0160542484372854,1.3284157514572144,-0.1568593084812164,-0.3758910298347473,-0.030000727623701,-0.1435877084732055,0.0,0.0,-0.1285199522972107,-0.0600565075874328
-0.0177434924989938,1.3196603059768677,-0.1618356555700302,-0.3892862498760223,-0.0370019078254699,-0.1400367021560669,0.0,0.0,-0.1117410659790039,0.6368083953857422
-0.0194257739931345,1.3106001615524292,-0.1599110066890716,-0.4029050767421722,-0.0452263168990612,-0.1645035296678543,0.0,0.0,-0.3187896609306335,0.6817126274108887
-0.0210926048457622,1.301238775253296,-0.1569295078516006,-0.416388601064682,-0.0548952408134937,-0.1933960765600204,0.0,0.0,-0.4057047963142395,0.3660328388214111
-0.0228107459843158,1.2915771007537842,-0.1622622907161712,-0.4297817349433899,-0.0643542259931564,-0.1891968548297882,0.0,0.0,-0.5730871558189392,-0.1612089276313781
-0.0245810505002737,1.281615138053894,-0.1677083522081375,-0.4431746304035187,-0.0735934600234031,-0.1848011910915374,0.0,0.0,-0.1861822605133056,0.511094331741333
-0.0263572689145803,1.2713419198989868,-0.1673282533884048,-0.4571263492107391,-0.0838037431240081,-0.2042243927717209,0.0,0.0,-0.1040146350860595,0.5335447788238525
-0.0281355865299701,1.2607682943344116,-0.1664788722991943,-0.4706070125102997,-0.0950736030936241,-0.2254179716110229,0.0,0.0,-0.2022563219070434,0.5001970529556274
-0.029920483008027,1.2498838901519775,-0.1661563217639923,-0.4845797419548034,-0.1073232367634773,-0.245014876127243,0.0,0.0,-0.1332829594612121,0.5229905843734741
-0.03171281889081,1.2386972904205322,-0.1659773588180542,-0.4981888234615326,-0.1205178126692771,-0.2639154195785522,0.0,0.0,-0.3239219188690185,0.1729995012283325
-0.0335615165531635,1.227211356163025,-0.1719016432762146,-0.5115892291069031,-0.1334395110607147,-0.2584572434425354,0.0,0.0,-0.2784854173660278,0.1714048385620117
-0.0354672446846962,1.2154256105422974,-0.1779089272022247,-0.5249889492988586,-0.1460788697004318,-0.2528097629547119,0.0,0.0,0.5275299549102783,0.0947842597961425
-0.03736038133502,1.2039449214935305,-0.1770164966583252,-0.511505663394928,-0.1583754867315292,-0.2459544390439987,0.0,0.0,-0.0732630491256713,0.3791282176971435
-0.0393117889761924,1.192164182662964,-0.1831741333007812,-0.524908721446991,-0.1703701913356781,-0.239915519952774,0.0,0.0,0.2006769180297851,0.5035476684570312
-0.0411904342472553,1.180389165878296,-0.1753462255001068,-0.5248215198516846,-0.1829468309879303,-0.2515550255775451,0.0,0.0,-0.1068581342697143,0.1698215007781982
-0.043128490447998,1.168313980102539,-0.1816276907920837,-0.5382229089736938,-0.1952025443315506,-0.245135948061943,0.0,0.0,0.3758630752563476,-0.6496477127075195
-0.0451966300606727,1.1568375825881958,-0.1960321068763733,-0.5115253925323486,-0.2060685604810714,-0.2173198014497757,0.0,0.0,-0.5618985295295715,-0.5361301302909851
-0.0473660454154014,1.1450766324996948,-0.2075809985399246,-0.5240463614463806,-0.2155249267816543,-0.1891273111104965,0.0,0.0,-0.393612802028656,0.2875478267669678
-0.0495965965092182,1.133014678955078,-0.2140363156795501,-0.537432074546814,-0.2246370762586593,-0.1822430491447448,0.0,0.0,-0.36687833070755,0.6250832080841064
-0.0518497452139854,1.1206438541412354,-0.2157085388898849,-0.551315188407898,-0.2343795746564865,-0.1948504745960235,0.0,0.0,0.4661880731582641,-0.555797815322876
-0.0541265495121479,1.1086233854293823,-0.2194940149784088,-0.5355733633041382,-0.2426903545856475,-0.1662157475948333,0.0,0.0,0.6541897058486938,-0.7939807772636414
-0.0563004501163959,1.0975592136383057,-0.2112019956111908,-0.4927755296230316,-0.248986929655075,-0.1259315013885498,0.0,0.0,0.4524151086807251,-0.4521330595016479
-0.0585074424743652,1.0867784023284912,-0.214579775929451,-0.4801928102970123,-0.2552259564399719,-0.1247803792357444,0.0,0.0,0.0285691022872924,-0.9341274499893188
-0.0607795715332031,1.07647967338562,-0.2233462035655975,-0.4584014117717743,-0.2591665685176849,-0.0788122937083244,0.0,0.0,0.1196986436843872,0.6394062042236328
-0.0630499869585037,1.0662267208099363,-0.2222359925508499,-0.4565437138080597,-0.264081746339798,-0.0983035191893577,0.0,0.0,-0.3989510536193847,0.2683181762695312
-0.0653821006417274,1.0556716918945312,-0.2287979871034622,-0.4699214696884155,-0.2686035335063934,-0.0904357284307479,0.0,0.0,0.6823564767837524,-0.2673377990722656
-0.0675536170601844,1.0459206104278564,-0.21320541203022,-0.43410724401474,-0.2726403772830963,-0.0807371288537979,0.0,0.0,0.6017215251922607,-0.7787396311759949
-0.0697544068098068,1.0365371704101562,-0.2180321961641311,-0.4174298346042633,-0.2747467756271362,-0.0421277806162834,0.0,0.0,0.6719876527786255,0.111279010772705
-0.0717701911926269,1.0279475450515747,-0.2001032084226608,-0.3820395767688751,-0.2762646973133087,-0.0303581599146127,0.0,0.0,0.5786342620849609,0.4420933723449707
-0.0736633315682411,1.0202324390411377,-0.1880629807710647,-0.3431244492530823,-0.2775411605834961,-0.0255295597016811,0.0,0.0,0.7813903093338013,0.3685946464538574
-0.0754076987504959,1.0131478309631348,-0.1737448126077652,-0.315007209777832,-0.2782565355300903,-0.014307739213109,0.0,0.0,0.7517366409301758,0.4601954221725464
-0.0770938843488693,1.00699782371521,-0.1678294241428375,-0.2734858095645904,-0.2790709435939789,-0.0162878986448049,0.0,0.0,0.9177093505859376,0.1373227834701538
-0.0785341262817382,1.001361846923828,-0.1442956179380417,-0.2504256665706634,-0.2787937223911285,0.0055443169549107,0.0,0.0,0.716073751449585,-0.0459648966789245
-0.0798460990190506,0.9958515763282776,-0.1323529928922653,-0.2446867674589157,-0.277616798877716,0.023538626730442,0.0,0.0,0.9115519523620604,0.0721285343170166
-0.0809377655386924,0.9908736944198608,-0.1112580299377441,-0.2208482772111892,-0.2754718959331512,0.0428979992866516,0.0,0.0,0.6207998991012573,0.412124752998352
-0.082046128809452,0.9860262274742126,-0.1131768375635147,-0.2149997353553772,-0.2730714678764343,0.0480092801153659,0.0,0.0,0.1334290504455566,-0.6195412874221802
-0.0831628814339637,0.9812068343162536,-0.1157215684652328,-0.2134467810392379,-0.2689281404018402,0.0828669220209121,0.0,0.0,0.4018610715866089,0.6011689901351929
-0.0841342955827713,0.9765886068344116,-0.1005436331033706,-0.2046320438385009,-0.2654435038566589,0.0696921497583389,0.0,0.0,0.2929432392120361,0.039318561553955
-0.0850732773542404,0.972646951675415,-0.0973465889692306,-0.174564853310585,-0.2619171440601349,0.0705278739333152,0.0,0.0,0.5279467105865479,0.3935236930847168
-0.0859947204589843,0.9695062637329102,-0.0954855307936668,-0.1389859765768051,-0.2585073411464691,0.0681960731744766,0.0,0.0,0.1545578241348266,-0.3539707064628601
-0.0868910774588584,0.9665844440460204,-0.0933559387922287,-0.1292124390602111,-0.2547128200531006,0.0758902430534362,0.0,0.0,0.530219316482544,0.5154929161071777
-0.0875270813703537,0.9640584588050842,-0.0671015903353691,-0.1116639673709869,-0.2511395215988159,0.071465790271759,0.0,0.0,0.4672775268554687,0.6852294206619263
-0.0880505591630935,0.962185800075531,-0.0548434443771839,-0.0828062370419502,-0.2485948503017425,0.0508935377001762,0.0,0.0,-0.0626128315925598,0.8506121635437012
-0.0885451287031173,0.959976613521576,-0.0504116714000701,-0.0980234667658805,-0.2476270496845245,0.0193559732288122,0.0,0.0,0.0066183805465698,0.3787391185760498
-0.0889642685651779,0.9581710696220398,-0.0433228611946105,-0.0800162404775619,-0.2461914420127868,0.0287121087312698,0.0,0.0,0.4317277669906616,0.7682845592498779
-0.089126206934452,0.9565996527671814,-0.0167337395250797,-0.0697439089417457,-0.2456372231245041,0.0110844187438488,0.0,0.0,0.0403423309326171,0.6951810121536255
-0.0892720222473144,0.9551595449447632,-0.0141439735889434,-0.0640778318047523,-0.2460851669311523,-0.0089588034898042,0.0,0.0,-0.1863628625869751,-0.9056972861289978
-0.0895149260759353,0.953446924686432,-0.0258281789720058,-0.075860746204853,-0.2445220202207565,0.0312630459666252,0.0,0.0,0.0667845010757446,0.3507091999053955
-0.0896039009094238,0.95203298330307,-0.0112943155691027,-0.0624381899833679,-0.2420863360166549,0.0487138144671916,0.0,0.0,-0.7393341064453125,0.2111399173736572
-0.0897287353873252,0.950316846370697,-0.0153303621336817,-0.0758138671517372,-0.2391905188560485,0.0579164512455463,0.0,0.0,0.1678555011749267,0.4779800176620483
-0.0898077934980392,0.949126660823822,-0.010964173823595,-0.0524035096168518,-0.2360840737819671,0.0621286742389202,0.0,0.0,-0.071723461151123,0.25290048122406
-0.0899180397391319,0.9476340413093568,-0.0145369516685605,-0.0657797306776046,-0.2325186878442764,0.0713073387742042,0.0,0.0,0.3051953315734863,0.0380910634994506
-0.0900063514709472,0.9466753005981444,-0.01243850402534,-0.0420487262308597,-0.2288618087768554,0.073137417435646,0.0,0.0,-0.2413291931152343,0.7760767936706543
-0.0900491699576377,0.9453870058059692,-0.0064859264530241,-0.0569155104458332,-0.2266349196434021,0.0445378497242927,0.0,0.0,-0.1658632159233093,0.4170751571655273
-0.0901155471801757,0.9437963962554932,-0.0092815132811665,-0.0702917724847793,-0.2239527553319931,0.0536432079970836,0.0,0.0,-0.4091826677322387,0.6624464988708496
-0.0901515930891037,0.9418808221817015,-0.005369646474719,-0.0848677456378936,-0.2221727520227432,0.0356000997126102,0.0,0.0,-0.1934581995010376,0.0253064632415771
-0.0902054756879806,0.9396629333496094,-0.0075936345383524,-0.0982440933585167,-0.219941183924675,0.0446315184235572,0.0,0.0,-0.8014659285545349,0.3604773283004761
-0.0902741402387619,0.9371426701545716,-0.0095164962112903,-0.1116207093000412,-0.217260256409645,0.0536184832453727,0.0,0.0,-0.8470500111579895,0.648029088973999
-0.0902989357709884,0.9342936873435974,-0.0040967748500406,-0.1263847053050995,-0.2156206518411636,0.0327919013798236,0.0,0.0,-0.089512288570404,0.8095687627792358
-0.0902655571699142,0.9311299324035645,0.0029524874407798,-0.1405529379844665,-0.2152323871850967,0.0077654123306274,0.0,0.0,-0.6278882622718811,-0.0823302865028381
-0.0902374237775802,0.927663803100586,0.0019905739463865,-0.1539294868707656,-0.2144029438495636,0.0165888201445341,0.0,0.0,-0.835038959980011,-0.070398211479187
-0.090211197733879,0.923895299434662,0.0013663850259035,-0.1673061698675155,-0.2131355553865432,0.0253476090729236,0.0,0.0,-0.8641244769096375,0.0791376829147338
-0.0901834517717361,0.919824481010437,0.0010876395972445,-0.1806830018758773,-0.2114337235689163,0.034036673605442,0.0,0.0,-0.9816356301307678,-0.8186598420143127
-0.0902260765433311,0.915485143661499,-0.008361829444766,-0.1922810226678848,-0.2072952538728714,0.0827695056796073,0.0,0.0,-0.9664739370346068,-0.5957302451133728
-0.0903005599975586,0.9108566045761108,-0.0130133954808115,-0.2049467712640762,-0.2016783654689788,0.1123376041650772,0.0,0.0,-0.989726722240448,-0.4205894470214844
-0.0903627425432205,0.9059260487556458,-0.0122175840660929,-0.2183267027139663,-0.1956390738487243,0.1207861080765724,0.0,0.0,-0.9997665882110596,0.130385160446167
-0.0904090851545333,0.900693953037262,-0.0110532371327281,-0.2317073345184326,-0.1891818642616272,0.1291437894105911,0.0,0.0,-0.9993694424629213,-0.1258901357650756
-0.0904358848929405,0.8951601386070251,-0.0095167905092239,-0.2450886666774749,-0.1823116242885589,0.137405127286911,0.0,0.0,-0.996874988079071,0.6020218133926392
-0.0903925895690918,0.8893173933029175,-0.0017417455092072,-0.2589455544948578,-0.1762207001447677,0.1218182817101478,0.0,0.0,-0.9974655508995056,0.6663169860839844
-0.0902627930045127,0.8831637501716614,0.008004555478692,-0.2729121148586273,-0.1712364256381988,0.0996856465935707,0.0,0.0,-0.9996086359024048,0.7501890659332275
-0.0900540351867675,0.8767035603523254,0.0167283155024051,-0.2866513133049011,-0.1670738160610199,0.0832525938749313,0.0,0.0,-0.9995869994163512,0.6862785816192627
-0.089769646525383,0.8699237704277039,0.0249685961753129,-0.3009354174137115,-0.163603737950325,0.0694016069173812,0.0,0.0,-0.984973967075348,-0.0342762470245361
-0.0894473046064376,0.8628422021865845,0.0283847842365503,-0.3143155872821808,-0.1597489118576049,0.0770966708660125,0.0,0.0,-0.9880957007408142,0.5783601999282837
-0.0890457183122634,0.8554498553276062,0.0368891768157482,-0.3282049298286438,-0.1564789414405822,0.0653996244072914,0.0,0.0,-0.9948280453681946,-0.4098873138427734
-0.0885988250374794,0.8477556109428406,0.041045818477869,-0.3415853381156921,-0.15283764898777,0.0728257670998573,0.0,0.0,-0.992282211780548,0.201514720916748
-0.0881030112504959,0.8397597670555115,0.0455661155283451,-0.3549662232398987,-0.1488322615623474,0.0801074728369712,0.0,0.0,-0.9974727034568788,0.0383216142654418
-0.087554931640625,0.8314622044563293,0.0504444651305675,-0.368347555398941,-0.1444703638553619,0.0872377157211303,0.0,0.0,-0.9987618923187256,-0.5063223242759705
-0.0869894027709961,0.822866678237915,0.0508468933403492,-0.3814852833747864,-0.1387899816036224,0.1136076226830482,0.0,0.0,-0.998802363872528,0.8502612113952637
-0.0862885490059852,0.813947319984436,0.0660147815942764,-0.3960413336753845,-0.134733572602272,0.0811278074979782,0.0,0.0,-0.9885863661766052,-0.3642370700836181
-0.0855252295732498,0.8047265410423279,0.0719252750277519,-0.4094233214855194,-0.1303456574678421,0.0877587348222732,0.0,0.0,-0.9989088177680968,-0.1987407207489013
-0.0846962928771972,0.7952041625976562,0.0781632512807846,-0.4228058457374573,-0.1256353110074997,0.09420707821846,0.0,0.0,-0.996251344680786,-0.5682730078697205
-0.0838432312011718,0.7853932976722717,0.0791024640202522,-0.4355305731296539,-0.1194648742675781,0.1234084516763687,0.0,0.0,-0.9952963590621948,-0.1166238188743591
-0.0829184502363205,0.7752813100814819,0.0859667435288429,-0.4489150941371918,-0.1129916384816169,0.1294644773006439,0.0,0.0,-0.9886329770088196,0.4425286054611206
-0.0819190964102745,0.7648681998252869,0.0931291431188583,-0.4623002409934997,-0.1062261313199997,0.135310098528862,0.0,0.0,-0.9964997172355652,0.0367212295532226
-0.080842301249504,0.7541543841362,0.1005791202187538,-0.4756859540939331,-0.0991793721914291,0.1409352272748947,0.0,0.0,-0.9884782433509828,0.5966408252716064
-0.0796427726745605,0.7431313991546631,0.1136760264635086,-0.4895046651363373,-0.0929492861032486,0.1246018186211586,0.0,0.0,-0.9948148727416992,-0.1905080080032348
-0.0783605575561523,0.7318076491355896,0.1216686815023422,-0.5028903484344482,-0.0864615812897682,0.129753977060318,0.0,0.0,-0.9856409430503844,0.1529579162597656
-0.0769933685660362,0.7201828360557556,0.1299160569906234,-0.5162765383720398,-0.0797289535403251,0.1346526741981506,0.0,0.0,-0.9974939227104188,0.5950132608413696
-0.0755014419555664,0.7082582712173462,0.1431086361408233,-0.5296712517738342,-0.0737034305930137,0.1205103397369384,0.0,0.0,-0.9960792660713196,-0.2395349740982055
-0.0739200562238693,0.696032702922821,0.1518323123455047,-0.543057382106781,-0.0674600824713707,0.1248668432235717,0.0,0.0,-0.9769286513328552,-0.1278759241104126
-0.07224702835083,0.683506429195404,0.1607775688171386,-0.5564439296722412,-0.0610134787857532,0.1289322525262832,0.0,0.0,-0.967483937740326,-0.3070904016494751
-0.0704806298017501,0.6706794500350952,0.1699336916208267,-0.5698308944702148,-0.0543787516653537,0.1326943933963775,0.0,0.0,-0.9815619587898254,-0.5888870358467102
-0.0686673149466514,0.6575539112091064,0.1732031404972076,-0.5830846428871155,-0.0463518425822258,0.1605384051799774,0.0,0.0,-0.9679257273674012,-0.4860717058181762
-0.0667570084333419,0.6441280245780945,0.1827493011951446,-0.5964739322662354,-0.0381691455841064,0.1636539697647094,0.0,0.0,-0.9799063801765442,-0.4200214743614197
-0.0647479072213172,0.6304017901420593,0.1924753487110138,-0.6098635792732239,-0.0298478323966264,0.1664264053106308,0.0,0.0,-0.9815242886543274,-0.4116894006729126
-0.0626387596130371,0.6163753867149353,0.2023715078830719,-0.623253583908081,-0.0214056931436061,0.1688424795866012,0.0,0.0,-0.9708588123321532,-0.6762278079986572
-0.0604760162532329,0.6020445227622986,0.2063909024000167,-0.636820375919342,-0.0116538498550653,0.1950368285179138,0.0,0.0,-0.958469569683075,-0.1772360205650329
-0.0582103729248046,0.5874136090278625,0.2165993750095367,-0.6502127051353455,-0.0018187970854341,0.1967012584209442,0.0,0.0,-0.938690185546875,-0.2688570022583008
-0.0558405891060829,0.5724827647209167,0.2269507646560669,-0.663605272769928,0.0080797858536243,0.1979718059301376,0.0,0.0,-0.8974348306655884,-0.4015491008758545
-0.0533655174076557,0.5572521686553955,0.2374366521835327,-0.6769980192184448,0.0180216468870639,0.1988370716571808,0.0,0.0,-0.8813802599906921,-0.1371172070503235
-0.0507840141654014,0.541721761226654,0.2480490952730178,-0.6903907656669617,0.0279859732836484,0.1992866694927215,0.0,0.0,-0.8888290524482727,-0.422481894493103
-0.0480953231453895,0.5258914828300476,0.2587804198265075,-0.7037834525108337,0.0379515402019023,0.199311152100563,0.0,0.0,-0.845242977142334,-0.7204039692878723
-0.0453498847782611,0.5097649693489075,0.2631796002388,-0.7170572876930237,0.0491844378411769,0.2246580570936203,0.0,0.0,-0.625525176525116,-0.4599558115005493
-0.0424954406917095,0.4933390617370605,0.2741272747516632,-0.7304521799087524,0.0603748597204685,0.2238084077835083,0.0,0.0,-0.1122993826866149,-0.4589536190032959
-0.0395312309265136,0.4766134619712829,0.2851729989051819,-0.7438467741012573,0.0715005248785018,0.2225132286548614,0.0,0.0,0.1901108026504516,-0.6735265851020813
-0.0366397872567176,0.4601247310638428,0.2767873406410217,-0.7334682941436768,0.0837386697530746,0.244762971997261,0.0,0.0,0.0495796203613281,-0.1828387975692749
-0.0336808189749717,0.4438702762126922,0.2837171256542206,-0.7231457233428955,0.0958037003874778,0.2413004338741302,0.0,0.0,0.2100547552108764,-0.5803892612457275
-0.0306724552065134,0.4278953075408935,0.2876065671443939,-0.7108970284461975,0.1089316681027412,0.2625593841075897,0.0,0.0,0.6926267147064209,0.07300865650177
-0.0274591445922851,0.4121925234794616,0.3076586127281189,-0.6989548802375793,0.1225235983729362,0.271838515996933,0.0,0.0,0.5455648899078369,-0.046846330165863
-0.0241209976375103,0.3971598446369171,0.3199173212051391,-0.6693196892738342,0.1363600045442581,0.276728093624115,0.0,0.0,0.4839335680007934,-0.3436994552612304
-0.0207461360841989,0.3829093873500824,0.3237102329730987,-0.6346704363822937,0.1501011550426483,0.2748225927352905,0.0,0.0,0.460655927658081,-0.2745602130889892
-0.0172435753047466,0.368781566619873,0.3364657461643219,-0.6293520331382751,0.163881629705429,0.2756091952323913,0.0,0.0,0.4564908742904663,-0.3053687810897827
