x_pos,y_pos,x_vel,y_vel,angle,ang_vel,leg_1,leg_2,main_booster,lat_booster
-0.0015230178833007,1.4033987522125244,-0.154853269457817,-0.3342889249324798,0.0022921464405953,0.0452538393437862,0.0,0.0,0.4641547925193758,-0.569392322710291
-0.0030411719344556,1.396285057067871,-0.1558811962604522,-0.3161717057228088,0.0063054631464183,0.0802748426795005,0.0,0.0,-0.9894067983761036,-0.7918196716514592
-0.0046072960831224,1.3889391422271729,-0.1624398529529571,-0.3265217840671539,0.0120725641027092,0.1153526082634925,0.0,0.0,-0.1827139275651124,-0.7331792687603386
-0.006241702940315,1.381364345550537,-0.1715861707925796,-0.3367400169372558,0.0201194193214178,0.1609520316123962,0.0,0.0,-0.7131148169098833,-0.7720956185178749
-0.0079234121367335,1.373565912246704,-0.1780788004398346,-0.3467566668987274,0.0299181602895259,0.195993110537529,0.0,0.0,-0.7049033972579444,-0.5503992482420509
-0.0096379276365041,1.3655411005020142,-0.182774931192398,-0.3569218516349792,0.0411171726882457,0.2240010499954223,0.0,0.0,-0.6305551827708933,-0.8090206080644363
-0.0114178657531738,1.357288837432861,-0.1915527880191803,-0.3671981692314148,0.0545437596738338,0.2685564756393432,0.0,0.0,-0.017650441793342,0.7247815851096935
-0.01312599144876,1.3488211631774902,-0.1831373125314712,-0.376833975315094,0.066749669611454,0.2441408187150955,0.0,0.0,0.7881849977020652,-0.8833057866142966
-0.0149777410551905,1.3414872884750366,-0.1998155862092971,-0.3266643285751343,0.081257440149784,0.2901820540428161,0.0,0.0,0.0485800540187302,0.8328457558168121
-0.0168013572692871,1.3346329927444458,-0.1958995163440704,-0.3054277002811432,0.0946941003203392,0.2687580585479736,0.0,0.0,0.1395698755166343,-0.8324828080456739
-0.0186590198427438,1.328169822692871,-0.2015980780124664,-0.2883332073688507,0.1104214638471603,0.3145762085914612,0.0,0.0,-0.9564586805319376,-0.6149677807303356
-0.0205574985593557,1.321476697921753,-0.2073353976011276,-0.2988496422767639,0.1278232932090759,0.3480685651302337,0.0,0.0,-0.1573477106133793,-0.802203056293441
-0.0225038528442382,1.3145582675933838,-0.2139226645231247,-0.3092647790908813,0.1470758467912674,0.3850867748260498,0.0,0.0,0.1793191388430293,-0.6891937091691329
-0.0244833938777446,1.3077902793884275,-0.2192543745040893,-0.3030367791652679,0.1683859825134277,0.4262416362762451,0.0,0.0,0.5233168061417848,-0.7807108552919857
-0.0265074726194143,1.301957607269287,-0.2260164469480514,-0.2620908319950104,0.1921073496341705,0.4744709432125091,0.0,0.0,0.5773540172516072,-0.969084082746806
-0.0285405162721872,1.2963272333145142,-0.2294819355010986,-0.253849595785141,0.2185285836458206,0.5284726619720459,0.0,0.0,-0.2747340337002508,-0.8994671127859897
-0.0306263919919729,1.2904748916625977,-0.2365695983171463,-0.2644977867603302,0.2469505369663238,0.5684911012649536,0.0,0.0,0.8640940954993024,-0.6453759532195986
-0.0326942428946495,1.2850643396377563,-0.2368791997432708,-0.2458274662494659,0.2777424454689026,0.6158941388130188,0.0,0.0,-0.8495999418847797,-0.8398011298238437
-0.0348147377371788,1.2794275283813477,-0.243857055902481,-0.2569077312946319,0.3105728328227997,0.6566675305366516,0.0,0.0,0.065843584856017,-0.8120103070776705
-0.0371633544564247,1.2740459442138672,-0.2684791982173919,-0.2467670440673828,0.3456564843654632,0.7017368078231812,0.0,0.0,0.1479325170833698,0.5062326912991757
-0.0395593643188476,1.2692664861679075,-0.2725757658481598,-0.2207342237234115,0.3805175125598907,0.6972835659980774,0.0,0.0,0.769493254156653,0.6201654605736017
-0.0420703887939453,1.264969825744629,-0.2830671668052673,-0.1998708248138427,0.4147659540176391,0.6850302219390869,0.0,0.0,0.1564923080747582,0.6720075491701206
-0.0445901863276958,1.261080026626587,-0.2828920483589172,-0.1823225915431976,0.4483737349510193,0.6722161769866943,0.0,0.0,-0.1625908344794315,-0.5039533806583665
-0.0471368804574012,1.2569539546966553,-0.2864846587181091,-0.1940001100301742,0.483549416065216,0.703576922416687,0.0,0.0,0.6748551060254602,0.5073089473314781
-0.0500848777592182,1.2534078359603882,-0.3252846598625183,-0.1686771661043167,0.5178709626197815,0.6864933371543884,0.0,0.0,0.50215907877789,0.8443435186756825
-0.0534115806221962,1.250411033630371,-0.361454963684082,-0.1445038169622421,0.550853431224823,0.6596492528915405,0.0,0.0,0.1467045228545658,0.7258131922479095
-0.0569475181400775,0.0,-0.3810343146324157,-0.1232094094157219,0.5829213857650757,0.6413591504096985,0.0,0.0,-0.9231656075120244,0.5383522075940117
-0.0604521743953228,1.2452106475830078,-0.3770942687988281,-0.1316016614437103,0.614713728427887,0.6358472108840942,0.0,0.0,0.5856112011424659,0.5737510058682493
-0.064454361796379,1.2431474924087524,-0.4255172610282898,-0.1039484962821006,0.645585834980011,0.6174424290657043,0.0,0.0,0.2759356466677554,0.8887794837548211
-0.0686338394880294,1.2413673400878906,-0.4416405260562897,-0.09134491533041,0.6751592755317688,0.5914692878723145,0.0,0.0,-0.6139044686259703,-0.5140521328455765
-0.0728376358747482,1.239344835281372,-0.4448546469211578,-0.1033379361033439,0.7064550518989563,0.6259156465530396,0.0,0.0,-0.9924121499061584,0.9972817897796632
-0.0769792571663856,1.2371721267700195,-0.4370287954807281,-0.1099279075860977,0.7364805936813354,0.6005111932754517,0.0,0.0,-0.9962038397789,0.999026656150818
-0.0810661315917968,1.2348617315292358,-0.4300032556056976,-0.1159030050039291,0.7652086615562439,0.5745611190795898,0.0,0.0,-0.9761916399002076,0.9848873615264891
-0.0850892066955566,1.232402801513672,-0.4220942854881286,-0.1222643330693245,0.7926169633865356,0.5481654405593872,0.0,0.0,-0.9951645135879515,0.999199151992798
-0.0890460982918739,1.2298165559768677,-0.413757860660553,-0.1274643838405609,0.8183433413505554,0.5145273208618164,0.0,0.0,-0.9967960119247437,0.9850475788116456
-0.0929401367902755,1.2271063327789309,-0.4058611392974853,-0.1324319392442703,0.8423887491226196,0.4809094071388244,0.0,0.0,-0.9983007311820984,0.9980258941650392
-0.0967684760689735,1.224259853363037,-0.3978448510169983,-0.1379600167274475,0.8648988604545593,0.4502028524875641,0.0,0.0,-0.9950547218322754,0.995785355567932
-0.100532628595829,1.2212949991226196,-0.3898692429065704,-0.1424886882305145,0.8855984210968018,0.413992702960968,0.0,0.0,-0.9949028491973876,0.96746563911438
-0.1042418479919433,1.218200922012329,-0.3831143677234649,-0.147632285952568,0.9048243761062622,0.3845190107822418,0.0,0.0,-0.9929974675178528,0.9975855350494384
-0.1078845039010047,1.2149851322174072,-0.3750564754009247,-0.1522358506917953,0.9222574830055236,0.3486625254154205,0.0,0.0,-0.998930037021637,0.9948898553848268
-0.1114745140075683,1.2116317749023438,-0.3687942326068878,-0.1577672213315963,0.9383977055549622,0.3228045105934143,0.0,0.0,-0.9908795952796936,0.9177093505859376
-0.1149932891130447,1.2081619501113892,-0.3603003919124603,-0.1619835197925567,0.952583372592926,0.2837136387825012,0.0,0.0,-0.8401756286621094,0.994781732559204
-0.118433378636837,1.204575538635254,-0.3510771989822387,-0.1660969853401184,0.964702308177948,0.2423789203166961,0.0,0.0,-0.9986709356307985,0.9938315153121948
-0.1217994689941406,1.200878024101257,-0.3423549234867096,-0.1699076443910598,0.974722146987915,0.2003972977399826,0.0,0.0,-0.9991350769996644,0.933828353881836
-0.1250984221696853,1.197038173675537,-0.3347523510456085,-0.1754766553640365,0.983321487903595,0.1719873547554016,0.0,0.0,-0.9994645714759828,0.917670965194702
-0.1283256560564041,1.193068265914917,-0.3265725374221802,-0.1803231984376907,0.9902133941650392,0.1378378123044967,0.0,0.0,-0.9998160600662231,0.8397860527038574
-0.1314859390258789,1.188965082168579,-0.3189727663993835,-0.1853733956813812,0.995528757572174,0.1063071712851524,0.0,0.0,-0.9993871450424194,0.8626501560211182
-0.1345959603786468,1.184714436531067,-0.3133165240287781,-0.1913122087717056,0.99976247549057,0.0846741273999214,0.0,0.0,-0.9947229027748108,0.7595473527908325
-0.1376579254865646,1.180305004119873,-0.3080525994300842,-0.1979150474071502,1.0031689405441284,0.068129613995552,0.0,0.0,-0.933327853679657,0.6148415803909302
-0.1406662911176681,1.1757322549819946,-0.30224609375,-0.2047086805105209,1.005751371383667,0.0516497492790222,0.0,0.0,-0.9980099201202391,0.5419455766677856
-0.1436183899641037,1.171004295349121,-0.2960507273674011,-0.2110198885202407,1.0073145627975464,0.0312643758952617,0.0,0.0,-0.9995565414428712,0.5080299377441406
-0.1465239524841308,1.1661027669906616,-0.2911153733730316,-0.2184319794178009,1.0083439350128174,0.0205878093838691,0.0,0.0,-0.9989691376686096,0.5396343469619751
-0.1493716239929199,1.161041498184204,-0.2848032414913177,-0.2249917685985565,1.0084192752838137,0.0015056245028972,0.0,0.0,-0.9875936508178712,0.3535947799682617
-0.1521881073713302,1.1557602882385254,-0.281981885433197,-0.2350670546293258,1.0090336799621582,0.0122880609706044,0.0,0.0,-0.999407172203064,0.5508384704589844
-0.1549439430236816,1.1503243446350098,-0.2753231823444366,-0.2413227260112762,1.0085545778274536,-0.0095819253474473,0.0,0.0,-0.9996599555015564,0.2599890232086181
-0.1576674431562423,1.1446685791015625,-0.2723675072193146,-0.2513964772224426,1.00859272480011,0.0007626549340784,0.0,0.0,-0.9976428747177124,-0.1743832230567932
-0.1603579521179199,1.1387923955917358,-0.2693487405776977,-0.261469304561615,1.0091359615325928,0.0108653921633958,0.0,0.0,-0.9914978742599488,0.0092931985855102
-0.1630150824785232,1.1326960325241089,-0.2662695050239563,-0.2715412676334381,1.0101715326309204,0.0207106582820415,0.0,0.0,-0.9996083974838256,0.1127067804336547
-0.1656381636857986,1.126379132270813,-0.2631325721740722,-0.2816123366355896,1.0116856098175049,0.0302818715572357,0.0,0.0,-0.999865472316742,-0.3185646533966064
-0.1682270020246505,1.119841694831848,-0.2599408030509949,-0.2916824221611023,1.013663649559021,0.0395617745816707,0.0,0.0,-0.987157940864563,-0.1021563410758972
-0.1707810461521148,1.1130837202072144,-0.2566970884799957,-0.3017515540122986,1.0160902738571167,0.0485325381159782,0.0,0.0,-0.9996638298034668,0.2348108291625976
-0.1732998788356781,1.106104850769043,-0.2534044682979584,-0.3118196427822113,1.018949031829834,0.0571753680706024,0.0,0.0,-0.999817967414856,0.2213693857192993
-0.1757831573486328,1.098904728889465,-0.2500659823417663,-0.3218866288661957,1.022222638130188,0.0654711574316024,0.0,0.0,-0.9966382384300232,0.0810631513595581
-0.1782306730747223,1.0914833545684814,-0.2466847896575927,-0.3319524824619293,1.0258926153182983,0.0734001398086547,0.0,0.0,-0.9900436997413636,0.22800874710083
-0.1806421279907226,1.0838406085968018,-0.2432641088962555,-0.3420171439647674,1.0299397706985474,0.0809421613812446,0.0,0.0,-0.9983558654785156,0.3211359977722168
-0.1830173432826995,1.0759763717651367,-0.2398072034120559,-0.3520804941654205,1.0343436002731323,0.0880765169858932,0.0,0.0,-0.9993722438812256,0.2554569244384765
-0.1853561401367187,1.067890167236328,-0.236317366361618,-0.3621425628662109,1.0390827655792236,0.0947823822498321,0.0,0.0,-0.9992917776107788,0.5078897476196289
-0.1876325607299804,1.0596351623535156,-0.2295300662517547,-0.3690311014652252,1.0427709817886353,0.0737652331590652,0.0,0.0,-0.9821624755859376,-0.1548631191253662
-0.189872071146965,1.0511579513549805,-0.225986048579216,-0.3790896236896515,1.0467485189437866,0.0795506462454795,0.0,0.0,-0.996997594833374,0.2333983182907104
-0.1920748651027679,1.0424580574035645,-0.2224195748567581,-0.3891465365886688,1.0509907007217407,0.0848441794514656,0.0,0.0,-0.9866464734077454,0.3444008827209472
-0.1942407637834549,1.0335352420806885,-0.21883425116539,-0.3992017209529876,1.0554720163345337,0.0896254330873489,0.0,0.0,-0.9983799457550048,0.3334566354751587
-0.1963698416948318,1.024389147758484,-0.2152337282896042,-0.4092550575733185,1.0601657629013062,0.0938745364546775,0.0,0.0,-0.996773362159729,0.4019184112548828
-0.1984619200229644,1.0150195360183716,-0.2116217166185379,-0.4193064868450165,1.065044403076172,0.097572460770607,0.0,0.0,-0.9876232743263244,0.333807110786438
-0.2005173712968826,1.0054261684417725,-0.2080019414424896,-0.4293559491634369,1.0700794458389282,0.100701130926609,0.0,0.0,-0.996720254421234,0.5064071416854858
-0.2025164067745208,0.995654046535492,-0.2018568217754364,-0.4366976022720337,1.074103593826294,0.0804794505238533,0.0,0.0,-0.9995198845863342,0.4053453207015991
-0.2044789344072342,0.9856573343276978,-0.198234423995018,-0.4467424154281616,1.0782246589660645,0.0824205428361892,0.0,0.0,-0.9964243173599244,0.1949126720428466
-0.2064051181077957,0.9754359126091005,-0.1946161240339279,-0.4567849934101105,1.0824120044708252,0.08374635130167,0.0,0.0,-0.9870983362197876,0.2591363191604614
-0.2082951962947845,0.9649890065193176,-0.1910060048103332,-0.4668252170085907,1.0866342782974243,0.084445372223854,0.0,0.0,-0.9963855147361756,0.7409582138061523
-0.2101242989301681,0.9544039368629456,-0.1839437335729599,-0.4717649221420288,1.088833212852478,0.0439793728291988,0.0,0.0,-0.9990421533584596,0.4421939849853515
-0.2119177877902984,0.9435925483703612,-0.1803639382123947,-0.4817999005317688,1.0910030603408811,0.0433977842330932,0.0,0.0,-0.9949373602867126,0.4998829364776611
-0.2136759757995605,0.9325547218322754,-0.1768050342798233,-0.4918324649333954,1.0931113958358765,0.0421671643853187,0.0,0.0,-0.9924524426460266,0.3337658643722534
-0.2153993546962738,0.9212900400161744,-0.1732713878154754,-0.501862645149231,1.095125675201416,0.0402854159474372,0.0,0.0,-0.9894731640815736,0.6827409267425537
-0.2170686274766922,0.9098552465438844,-0.1671682596206665,-0.5085317492485046,1.095647931098938,0.0104460716247558,0.0,0.0,-0.9925073385238647,0.5632578134536743
-0.2186876833438873,0.8982450366020203,-0.1615011692047119,-0.5154784917831421,1.0947765111923218,-0.0174283422529697,0.0,0.0,-0.9961692094802856,0.6121387481689453
-0.2202544659376144,0.8864688277244568,-0.1555111706256866,-0.5218881964683533,1.0922666788101196,-0.0501957908272743,0.0,0.0,-0.995375394821167,0.7008261680603027
-0.2217607498168945,0.8745447993278503,-0.1484436094760894,-0.5271666049957275,1.087605595588684,-0.0932215824723243,0.0,0.0,-0.9902418851852416,0.5387234687805176
-0.2232122868299484,0.8624457716941833,-0.1421935409307479,-0.5339961647987366,1.0813536643981934,-0.1250376552343368,0.0,0.0,-0.9953238368034364,0.4494504928588867
-0.2246326506137848,0.850118100643158,-0.1389047801494598,-0.5440135598182678,1.0748169422149658,-0.1307342052459716,0.0,0.0,-0.9995586276054382,0.3446621894836426
-0.2260225713253021,0.8375610709190369,-0.1356741786003112,-0.5540290474891663,1.0679655075073242,-0.1370281875133514,0.0,0.0,-0.9927563667297364,0.5699218511581421
-0.2273549139499664,0.824842095375061,-0.1288760900497436,-0.5600445866584778,1.0590977668762207,-0.1773539930582046,0.0,0.0,-0.9990686774253844,0.5594568252563477
-0.2286407947540283,0.8119503259658813,-0.1233024597167968,-0.5667533278465271,1.0485281944274902,-0.2113922387361526,0.0,0.0,-0.9977210164070128,0.4943132400512695
-0.229899451136589,0.7988292574882507,-0.120271697640419,-0.5767659544944763,1.0375597476959229,-0.2193700522184372,0.0,0.0,-0.9969525933265686,0.5860800743103027
-0.2311060428619384,0.7855485081672668,-0.1138582825660705,-0.582675039768219,1.024480223655701,-0.2615895867347717,0.0,0.0,-0.9953588247299194,0.622560977935791
-0.232255607843399,0.7721053957939148,-0.1068464145064354,-0.5887077450752258,1.0092368125915527,-0.3048673868179321,0.0,0.0,-0.9694777131080629,0.6153314113616943
-0.2333584278821945,0.7584862112998962,-0.1009765863418579,-0.595600962638855,0.99219411611557,-0.3408540189266205,0.0,0.0,-0.9834874272346495,0.8138753175735474
-0.234406903386116,0.7447317242622375,-0.0937585979700088,-0.6002093553543091,0.9724507331848145,-0.3948677182197571,0.0,0.0,-0.9963771104812622,0.506402850151062
-0.2354147881269455,0.7307946681976318,-0.0884108990430831,-0.6075580716133118,0.9510472416877748,-0.4280698895454407,0.0,0.0,-0.9879619479179382,0.6997127532958984
-0.2363840043544769,0.7166851162910461,-0.0830405801534652,-0.6144095063209534,0.9277976155281068,-0.4649925231933594,0.0,0.0,-0.9882571697235109,0.4042015075683594
-0.2373371124267578,0.7023481130599976,-0.0806474536657333,-0.6244357824325562,0.9039914608001708,-0.4761242866516113,0.0,0.0,-0.9672399759292604,0.0418986082077026
-0.238275721669197,0.6877840757369995,-0.0783736556768417,-0.6344637274742126,0.8796108365058899,-0.487614095211029,0.0,0.0,-0.9815669655799866,-0.1366336941719055
-0.2392014563083648,0.6729933023452759,-0.0762253850698471,-0.6444936990737915,0.854638934135437,-0.4994387626647949,0.0,0.0,-0.96357262134552,-0.4021360278129577
-0.2401158362627029,0.6579762101173401,-0.0742088705301284,-0.6545259952545166,0.8290601968765259,-0.5115756392478943,0.0,0.0,-0.952608048915863,-0.7028787732124329
-0.2410642206668853,0.6426621675491333,-0.0780138149857521,-0.6686498522758484,0.8047672510147095,-0.4858585894107818,0.0,0.0,-0.9564014673233032,-0.5421282052993774
-0.2420393973588943,0.6270644068717957,-0.0809108465909957,-0.6819639205932617,0.7813740968704224,-0.467862993478775,0.0,0.0,-0.8896110653877258,-0.6252066493034363
-0.2430372685194015,0.6112005114555359,-0.0831598117947578,-0.6942876577377319,0.7584856152534485,-0.4577697217464447,0.0,0.0,-0.9204514026641846,-0.5852998495101929
-0.2440564632415771,0.5950642228126526,-0.0853202641010284,-0.7068847417831421,0.7361233830451965,-0.4472452104091644,0.0,0.0,-0.9071357846260072,-0.2719409465789795
-0.2450717985630035,0.5787013173103333,-0.0840806737542152,-0.716914713382721,0.713091254234314,-0.4606429040431976,0.0,0.0,-0.819563627243042,-0.1622739434242248
-0.2460852116346359,0.5621122121810913,-0.0830094441771507,-0.7269476056098938,0.6893795728683472,-0.4742338061332702,0.0,0.0,-0.6632786989212036,0.5108869075775146
-0.2470639199018478,0.5453488230705261,-0.0775071233510971,-0.7341115474700928,0.663577675819397,-0.5160378217697144,0.0,0.0,-0.3976569175720215,0.5978579521179199
-0.2480043470859527,0.5284097790718079,-0.0715027749538421,-0.741400420665741,0.6356053948402405,-0.5594455003738403,0.0,0.0,0.0585852861404418,0.4837421178817749
-0.2492640912532806,0.5118752717971802,-0.102367915213108,-0.7235626578330994,0.6069084405899048,-0.5739392042160034,0.0,0.0,-0.0768266916275024,0.8289093971252441
-999.0,0.4951860010623932,-0.0948294848203659,-0.7299020886421204,0.5755185484886169,-0.6277986764907837,0.0,0.0,0.0502214431762695,0.7543357610702515
-0.2517568171024322,0.4787373542785644,-0.0991506353020668,-0.7189559936523438,0.541822075843811,-0.6739298701286316,0.0,0.0,0.4081534147262573,0.6791443824768066
-0.2533755898475647,0.4627020955085754,-0.1302880048751831,-0.7004615068435669,0.5057693719863892,-0.7210558652877808,0.0,0.0,0.6137642860412598,0.8453503847122192
-0.2553168833255768,0.447057157754898,-0.1594592332839965,-0.6830486059188843,0.4670107364654541,-0.7751734256744385,0.0,0.0,0.6150186061859131,0.8389937877655029
-0.2574864327907562,0.4319672584533691,-0.1792766004800796,-0.6585721969604492,0.4257321953773498,-0.8255718350410461,0.0,0.0,0.491334319114685,0.6587305068969727
-0.2598044872283935,0.4173738956451416,-0.1914901435375213,-0.6370291113853455,0.3824043869972229,-0.866557240486145,0.0,0.0,0.3863844871520996,0.9668917655944824
-0.2620682120323181,0.4031006097793579,-0.1828168332576751,-0.6233802437782288,0.3364346027374267,-0.9193971753120422,0.0,0.0,0.4629255533218384,0.9283210039138794
-0.2643960416316986,0.3895723521709442,-0.1860473901033401,-0.591117799282074,0.287916749715805,-0.9703581929206848,0.0,0.0,0.1355410814285278,0.9847640991210938
-0.2668159604072571,0.3766953945159912,-0.1918706893920898,-0.5632417798042297,0.2366488575935363,-1.0253595113754272,0.0,0.0,-0.7980043888092041,0.9178965091705322
-0.2691849172115326,0.363644540309906,-0.1833783537149429,-0.5723426938056946,0.1826041042804718,-1.080897092819214,0.0,0.0,-0.719337522983551,0.8884932994842529
