x_pos,y_pos,x_vel,y_vel,angle,ang_vel,leg_1,leg_2,main_booster,lat_booster
-0.0015213012229651,1.4029492139816284,-0.1539507955312729,-0.3542641997337341,0.0016292125219479,0.0321281477808952,0.0,0.0,-0.428879217092786,0.9931209348401516
-0.0029556273948401,1.3943215608596802,-0.1427402794361114,-0.3834538161754608,0.0009402103023603,-0.0137806953862309,0.0,0.0,0.3599914311238599,-0.953550134444052
-0.0043363571166992,1.385509967803955,-0.1392444819211959,-0.3916263580322265,0.002101294696331,0.0232239905744791,0.0,0.0,0.2698330501401991,0.6255948443809368
-0.0057676313444972,1.3765968084335327,-0.1426977664232254,-0.3961421549320221,0.0016780144069343,-0.0084663359448313,0.0,0.0,-0.9598839342650471,-0.9780754732146284
-0.0072568892501294,1.3670110702514648,-0.1498919576406479,-0.426031082868576,0.002625290537253,0.0189471784979105,0.0,0.0,-0.9712206715382268,-0.6367429480229729
-0.0087825777009129,1.356749176979065,-0.1543550044298172,-0.4560917019844055,0.0043900157324969,0.035298004746437,0.0,0.0,0.8419821500370339,0.6424256884840759
-0.0102852825075387,1.3467777967453003,-0.1505340188741684,-0.4431723654270172,0.0046528177335858,0.0052563333883881,0.0,0.0,0.107160400192275,0.8747982130024071
-0.0116015430539846,1.336785078048706,-0.1300252079963684,-0.444113940000534,0.0030734646134078,-0.0315900072455406,0.0,0.0,-0.3141129699729614,0.6151904844938472
-0.0128677366301417,1.3261241912841797,-0.1236629039049148,-0.4738198816776275,0.0001396852749167,-0.0586812607944011,0.0,0.0,-0.3017931851532454,0.9016404912955024
-0.0140605922788381,1.314793825149536,-0.1143513768911361,-0.5035808682441711,-0.004739545751363,-0.0975934490561485,0.0,0.0,0.6534231972186322,-0.6124455069620203
-0.015203190036118,1.3036807775497437,-0.1106218695640564,-0.4939247667789459,-0.0083317495882511,-0.071850873529911,0.0,0.0,-0.6240070907556281,0.7568786396269911
-0.0162765495479106,1.2918903827667236,-0.1018440499901771,-0.5240625739097595,-0.0137651935219764,-0.1086788922548294,0.0,0.0,-0.2964441955611054,-0.6065213371962338
-0.0173848159611225,1.2794288396835327,-0.106118656694889,-0.55389404296875,-0.0184192862361669,-0.0930899158120155,0.0,0.0,-0.9959280244716562,-0.8921767550216944
-0.0185527801513671,1.26628577709198,-0.1135204285383224,-0.5841835737228394,-0.0216733124107122,-0.0650863423943519,0.0,0.0,-0.8693982794658344,0.6981471852686121
-0.0196502692997455,1.2524726390838623,-0.1045653000473976,-0.6140009164810181,-0.0268022082746028,-0.1025871261954307,0.0,0.0,0.5225346560696147,-0.6492880782639165
-0.0206789020448923,1.2383852005004885,-0.0990543514490127,-0.6261779069900513,-0.0305675044655799,-0.0753128752112388,0.0,0.0,0.6459297438079508,-0.9205337857186016
-0.0215974804013967,1.2249075174331665,-0.089959867298603,-0.5990541577339172,-0.0324450060725212,-0.0375533923506736,0.0,0.0,0.6998278162322547,0.6879137232962588
-0.0222874637693166,1.2113161087036133,-0.06592757999897,-0.604134738445282,-0.0354918986558914,-0.0609438195824623,0.0,0.0,-0.6506782647102816,-0.945341213275984
-0.0230374336242675,1.197061538696289,-0.0733352303504943,-0.6335675120353699,-0.0371281653642654,-0.0327281430363655,0.0,0.0,0.204000376267865,0.793428082450177
-0.0237739570438861,1.182750225067139,-0.0701737031340599,-0.6361488103866577,-0.0405709780752658,-0.0688624233007431,0.0,0.0,0.4801941311360334,-0.6427624931551352
-0.0244062431156635,1.1687734127044678,-0.0611375048756599,-0.6212460994720459,-0.042636789381504,-0.0413197353482246,0.0,0.0,-0.645459285698621,-0.8858662052125212
-0.0251048095524311,1.1541208028793335,-0.0693374052643776,-0.6512449383735657,-0.0431422553956508,-0.0101106110960245,0.0,0.0,-0.4683669815892692,-0.7691726545014199
-0.025848388671875,1.1387948989868164,-0.0749030262231826,-0.6811310052871704,-0.0426119714975357,0.0106065645813941,0.0,0.0,0.2293746045442608,0.8420941192603091
-0.0264536850154399,1.123124599456787,-0.059256475418806,-0.6964951753616333,-0.0438734628260135,-0.025231797248125,0.0,0.0,0.8526023260883788,0.7802429459606632
-0.0271366126835346,1.107870101928711,-0.06491569429636,-0.6780799031257629,-0.0472191907465457,-0.0669207572937011,0.0,0.0,-0.3855975769857795,0.911396244817545
-0.0277628898620605,1.0919201374053955,-0.0576891489326953,-0.7090527415275574,-0.0520978234708309,-0.097572460770607,0.0,0.0,0.0054483723373823,-0.9905293458474764
-0.0284387581050395,1.0759694576263428,-0.064486064016819,-0.7090281248092651,-0.0551640577614307,-0.0613249018788337,0.0,0.0,0.4295666470292303,-0.9251422854123892
-0.0292740818113088,1.0604395866394043,-0.0820188820362091,-0.6902732849121094,-0.0566671378910541,-0.0300613697618246,0.0,0.0,0.2197551236647552,-0.8879140002284275
-0.0302556995302438,1.0451138019561768,-0.0982127115130424,-0.6811453104019165,-0.0566186793148517,0.0009690151782706,0.0,0.0,0.8990752239594988,0.6203952815879962
-0.0311799049377441,1.0299477577209473,-0.0909942165017128,-0.6740952730178833,-0.0580262914299964,-0.0281521920114755,0.0,0.0,0.0787850982681237,-0.6779762594713693
-0.032108686864376,1.0149457454681396,-0.0926916599273681,-0.6667691469192505,-0.0582184046506881,-0.0038420339114964,0.0,0.0,-0.6500894380472806,-0.6779800935612588
-0.0330954566597938,0.9992696642875672,-0.0998819097876548,-0.6966626048088074,-0.0570352263748645,0.0236635282635688,0.0,0.0,0.0280439016645093,0.7025471651858544
-0.0340543761849403,0.9836724996566772,-0.0954781025648117,-0.6932253241539001,-0.0574399679899215,-0.0080950818955898,0.0,0.0,0.5870434163727449,0.9452470043017384
-0.0349854454398155,0.9679099917411804,-0.0905569046735763,-0.7006574273109436,-0.0599543042480945,-0.0502868704497814,0.0,0.0,-0.7151486139348413,0.6403008270603343
-0.0358616821467876,0.9514691233634948,-0.0836226865649223,-0.7308722138404846,-0.0639168620109558,-0.0792508274316787,0.0,0.0,0.358270406307587,-0.8496425651652756
-0.0367453582584857,0.935295045375824,-0.0859555900096893,-0.7189466953277588,-0.0663051828742027,-0.0477664172649383,0.0,0.0,0.4276453060056253,0.9186763371218896
-0.0375536903738975,0.9190256595611572,-0.0764110013842582,-0.7232869267463684,-0.070682369172573,-0.0875435918569564,0.0,0.0,-0.1734740687465203,0.9817113678251824
-0.0382765755057334,0.9020804166793824,-0.0656303018331527,-0.7534542679786682,-0.0772663503885269,-0.1316796541213989,0.0,0.0,0.0881531293112516,0.7636356682242766
-0.0389227867126464,0.8852955102920532,-0.0562933273613452,-0.7464451193809509,-0.0855165049433708,-0.1650031059980392,0.0,0.0,0.380894960577337,0.9926235457179352
-0.0394172668457031,0.8685836791992188,-0.0390174649655818,-0.7433757781982422,-0.0958511605858802,-0.2066932618618011,0.0,0.0,-0.271285154815901,0.9496238957798382
-0.0398467071354389,0.8511976599693298,-0.0308441016823053,-0.7735384702682495,-0.1078604832291603,-0.2401864826679229,0.0,0.0,-0.8169091939926147,-0.9988736510276794
-0.0403357520699501,0.8331460356712341,-0.0383030287921428,-0.8030975461006165,-0.1184030771255493,-0.2108517438173294,0.0,0.0,-0.7881752848625183,-0.9976056218147278
-0.0408885963261127,0.814421534538269,-0.0462441258132457,-0.8329524993896484,-0.1273932158946991,-0.1798028796911239,0.0,0.0,-0.5124953985214233,-0.988408088684082
-0.0415034294128418,0.7950329184532166,-0.053998552262783,-0.8623673915863037,-0.1348448395729065,-0.1490320861339569,0.0,0.0,-0.1015443205833435,-0.9628788232803344
-0.0421969406306743,0.7749750018119812,-0.0638241246342659,-0.8919733762741089,-0.1403533369302749,-0.1101696342229843,0.0,0.0,0.5846283435821533,-0.9474924206733704
-0.0428685173392295,0.7547139525413513,-0.0634880885481834,-0.90083909034729,-0.1440145969390869,-0.0732253342866897,0.0,0.0,0.8705055713653564,-0.9089499711990356
-0.0434606559574604,0.7345231771469116,-0.0574001483619213,-0.8975449204444885,-0.1458228528499603,-0.03616514056921,0.0,0.0,0.740633487701416,-0.8507792353630066
-0.0441173538565635,0.7150132656097412,-0.0652488619089126,-0.867151141166687,-0.1462484747171402,-0.0085125034675002,0.0,0.0,0.8624646663665771,-0.8521633744239807
-0.0448702797293663,0.6962047815322876,-0.0761671140789985,-0.8358458280563354,-0.1453714519739151,0.017540480941534,0.0,0.0,0.5199615955352783,-0.7101283669471741
-0.0456294044852256,0.6774305701255798,-0.0780908912420272,-0.8341978788375854,-0.143200471997261,0.04341996088624,0.0,0.0,0.5701627731323242,-0.4936766028404236
-0.0461732856929302,0.6587578654289246,-0.05711255595088,-0.8296369314193726,-0.1404793560504913,0.0544224195182323,0.0,0.0,0.3981256484985351,-0.2727466821670532
-0.0466751083731651,0.6403462886810303,-0.052614040672779,-0.8180643916130066,-0.1380599290132522,0.0483885928988456,0.0,0.0,0.7762360572814941,-0.2755494117736816
-0.0469919219613075,0.6219456195831299,-0.0345776453614234,-0.8175444006919861,-0.1351688355207443,0.0578218027949333,0.0,0.0,-0.1057397723197937,-0.4807618856430053
-0.0473057739436626,0.6028698086738586,-0.0342219360172748,-0.8475579619407654,-0.1323454976081848,0.05646663159132,0.0,0.0,0.8179669380187988,-0.2758698463439941
-0.0473834052681922,0.5838842988014221,-0.0112992767244577,-0.8434917330741882,-0.128827229142189,0.0703653767704963,0.0,0.0,0.5846675634384155,-0.0147283673286437
-0.0474909767508506,0.5649136900901794,-0.0138108013197779,-0.842876672744751,-0.1257921606302261,0.0607012398540973,0.0,0.0,0.5711274147033691,-0.4400498867034912
-0.0474120154976844,0.5463791489601135,0.0044923266395926,-0.8234748244285583,-0.1223985329270362,0.067872367799282,0.0,0.0,0.2054600715637207,-0.8146339058876038
-0.0472190864384174,0.5278961658477783,0.0141960829496383,-0.8210550546646118,-0.1173349767923355,0.1012712344527244,0.0,0.0,0.6107292175292969,-0.5022068023681641
-0.0468912124633789,0.5099326372146606,0.0265156626701354,-0.7978971004486084,-0.1111011132597923,0.1246773824095726,0.0,0.0,0.6884605884552002,-0.2640755176544189
-0.046548843383789,0.4925045967102051,0.0283629484474658,-0.7741568088531494,-0.1052699163556099,0.1166237443685531,0.0,0.0,0.060680866241455,-0.4586431384086609
-0.0461461059749126,0.4747512340545654,0.0342824235558509,-0.7886297106742859,-0.0993252471089363,0.1188935786485672,0.0,0.0,0.7697780132293701,-0.6348141431808472
-0.0458311066031456,0.457472562789917,0.0245484113693237,-0.7674916386604309,-0.0924344882369041,0.1378149688243866,0.0,0.0,0.7671873569488525,-0.1076486110687255
-0.0453310012817382,0.4403274655342102,0.0424803718924522,-0.7615610361099243,-0.0849632620811462,0.1494243890047073,0.0,0.0,0.7062097787857056,0.4028475284576416
-0.0447503104805946,0.4234507977962494,0.0504402741789817,-0.7496609091758728,-0.0774062797427177,0.1511394679546356,0.0,0.0,0.8402243852615356,0.1091649532318115
-0.0441238395869731,0.406566321849823,0.0549854636192321,-0.7500439882278442,-0.0698320865631103,0.1514838933944702,0.0,0.0,0.8574562072753906,0.2991917133331299
-0.0435875877737998,0.3900161683559418,0.0466416515409946,-0.7352536916732788,-0.0629211068153381,0.1382197439670562,0.0,0.0,0.9626355171203612,0.1524120569229126
-0.0429595932364463,0.3743108510971069,0.0557014420628547,-0.697729766368866,-0.0559080392122268,0.1402611881494522,0.0,0.0,0.692263126373291,-0.0405153632164001
-0.0422287955880165,0.3583725988864898,0.0656016618013382,-0.7081058025360107,-0.0485184974968433,0.1477910131216049,0.0,0.0,0.91743803024292,0.3961771726608276
-0.041416548192501,0.3432420194149017,0.0736059471964836,-0.6722457408905029,-0.0409929864108562,0.150510236620903,0.0,0.0,0.9044173955917358,0.5065404176712036
-0.0406547561287879,0.3282568454742431,0.0699409842491149,-0.6658487915992737,-0.0348258092999458,0.1233437061309814,0.0,0.0,0.8913180828094482,0.1543946266174316
-0.0399691574275493,0.3137643933296203,0.0628065317869186,-0.643986165523529,-0.029147757217288,0.113560676574707,0.0,0.0,0.929158329963684,0.1925493478775024
-0.0392248146235942,0.2996850907802582,0.0685095936059951,-0.6256409287452698,-0.0233035460114479,0.1168845519423484,0.0,0.0,0.816109299659729,0.5614315271377563
-0.0385640151798725,0.2863331139087677,0.0617159530520439,-0.5933617353439331,-0.0189888160675764,0.086294412612915,0.0,0.0,0.9072020053863524,0.5122320652008057
-0.0377589240670204,0.2733020782470703,0.0768972560763359,-0.5791161060333252,-0.0154193183407187,0.0713900178670883,0.0,0.0,0.7763080596923828,-0.2756096124649048
-0.0369824394583702,0.2602274417877197,0.0741969645023346,-0.5810646414756775,-0.012009622529149,0.0681940019130706,0.0,0.0,0.7378575801849365,-0.5495918989181519
-0.0361679084599018,0.2469841837882995,0.0766659826040268,-0.5885579586029053,-0.0072896163910627,0.0944000110030174,0.0,0.0,0.8991825580596924,-0.2485483884811401
-0.0353861823678016,0.2336515933275222,0.0735541731119155,-0.5925433039665222,-0.0027253462467342,0.0912855789065361,0.0,0.0,0.9838833808898926,0.0610139369964599
-0.0346112251281738,0.2210728228092193,0.0729031711816787,-0.5590577721595764,0.0018066825577989,0.0906405597925186,0.0,0.0,0.957690954208374,0.0913482904434204
-0.0337427146732807,0.2092692404985427,0.0817946121096611,-0.5246175527572632,0.0067934663966298,0.0997355803847312,0.0,0.0,0.840651273727417,-0.4637819528579712
-0.0330052375793457,0.1981553137302398,0.0692646354436874,-0.4939807653427124,0.0112195508554577,0.0885217785835266,0.0,0.0,0.811660885810852,-0.4208412170410156
-0.0324137695133686,0.1869086325168609,0.0553164891898632,,0.0150083769112825,0.0757764875888824,0.0,0.0,0.7804584503173828,0.6359103918075562
-0.031737994402647,0.1762724965810775,0.064874567091465,-0.4727485477924347,0.0176688320934772,0.0532093718647956,0.0,0.0,0.9056391716003418,-0.6857158541679382
-0.0312546715140342,0.1659519225358963,0.0445510074496269,-0.4587412178516388,0.0214030444622039,0.0746840462088584,0.0,0.0,0.8781991004943848,0.4918071031570434
-0.0308506973087787,0.156109869480133,0.0368832722306251,-0.4374799430370331,0.0248710475862026,0.0693601816892623,0.0,0.0,0.9140220880508424,0.2319064140319824
-0.0304815284907817,0.1468069702386856,0.0334479548037052,-0.4135240316390991,0.0282977018505334,0.068532682955265,0.0,0.0,0.8309247493743896,-0.4274740219116211
-0.0300350189208984,0.1377998888492584,0.04070995002985,-0.4003962874412536,0.032194435596466,0.0779350772500038,0.0,0.0,0.458869457244873,0.1334191560745239
-0.029578398913145,0.1285718828439712,0.0415896698832511,-0.4102264940738678,0.0362113118171691,0.0803376659750938,0.0,0.0,0.7849957942962646,-0.1678563952445984
-0.0290388111025095,0.1193264126777648,0.049402080476284,-0.4110266864299774,0.0407151244580745,0.0900763422250747,0.0,0.0,0.9035804271697998,-0.0620681047439575
-0.0283580776304006,0.1104024499654769,0.0626915767788887,-0.3967745006084442,0.0460261479020118,0.1062206476926803,0.0,0.0,0.9410829544067384,-0.2027667164802551
-0.0275368690490722,0.1015093922615051,0.0759595930576324,-0.3954516053199768,0.0521174520254135,0.1218259930610656,0.0,0.0,0.9381313323974608,0.1139612197875976
-0.0267701148986816,0.0932611301541328,0.0705263167619705,-0.3668142259120941,0.0581999532878398,0.1216503530740737,0.0,0.0,0.7197601795196533,0.1630420684814453
-0.0260191913694143,0.0855234265327453,0.0687731802463531,-0.3441594839096069,0.064452588558197,0.1250525414943695,0.0,0.0,0.5538504123687744,0.1211811304092407
-0.025193978101015,0.0780613720417022,0.0756333917379379,-0.3319565653800964,0.0712670609354972,0.1362895667552948,0.0,0.0,0.5826042890548706,0.3447879552841186
-0.024297047406435,0.0704029202461242,0.0823370069265365,-0.340741753578186,0.0785471498966217,0.1456017196178436,0.0,0.0,0.8969881534576416,0.6550153493881226
-0.0234614368528127,0.0629407986998558,0.0776778906583786,-0.3319710493087768,0.0843750312924385,0.1165574789047241,0.0,0.0,0.856513500213623,0.8529536724090576
-0.0225392337888479,0.0562847703695297,0.0878321900963783,-0.2960777282714844,0.0887169390916824,0.0868383198976516,0.0,0.0,0.5973258018493652,-0.3270784020423889
-0.0216910354793071,0.0497728697955608,0.0805267170071601,-0.2896789014339447,0.0929680615663528,0.0850224643945694,0.0,0.0,0.8209209442138672,-0.7399736642837524
-0.0211345665156841,0.0438732951879501,0.0502026863396167,-0.262551486492157,0.0983733236789703,0.1081051975488662,0.0,0.0,0.5337789058685303,0.1772146224975586
-0.0205642692744731,0.0382778495550155,0.0511952117085456,-0.2490800321102142,0.1041612774133682,0.1157591715455055,0.0,0.0,0.7759449481964111,0.7233548164367676
-0.0200867652893066,0.0332150571048259,0.0435103178024292,-0.2253147065639495,0.1083730086684227,0.0842345431447029,0.0,0.0,0.6202869415283203,0.3574190139770508
-0.0197726245969533,0.0285591706633567,0.0275535695254802,-0.2072155773639679,0.112212911248207,0.0767982304096221,0.0,0.0,0.6260614395141602,0.825901985168457
-0.0194785110652446,0.0239622928202152,0.0272465590387582,-0.2044686675071716,0.114361360669136,0.042969062924385,0.0,0.0,0.7481563091278076,0.8085486888885498
-0.019331932067871,0.019626984372735,0.0143810380250215,-0.192701056599617,0.1146348193287849,0.0054691890254616,0.0,0.0,0.6650341749191284,0.9955904483795166
-0.0193410869687795,0.0153848743066191,0.0010213409550487,-0.1883900761604309,0.1127112358808517,-0.0384718626737594,0.0,0.0,0.8610877990722656,0.9773190021514891
-0.0192364696413278,0.0117153981700539,0.0141633655875921,-0.1628139168024063,0.1090344190597534,-0.0735364630818367,0.0,0.0,0.7604411840438843,0.9185988903045654
-0.0191243179142475,0.008729956112802,0.0355586074292659,-0.131102055311203,0.0848435908555984,-0.4838717877864837,0.0,1.0,0.6309168338775635,0.0102529525756835
-0.018935490399599,0.0062221265397965,0.0427214577794075,-0.1102812960743904,0.0612396299839019,-0.4720915853977203,0.0,1.0,0.6227357387542725,0.0206011533737182
-0.0188160892575979,0.0041854716837406,0.0359258465468883,-0.0897081792354583,0.0375323779881,-0.4741452634334564,0.0,1.0,0.419482946395874,0.0125889778137207
-0.0186018943786621,0.0025881982874125,0.0448537655174732,-0.0705643445253372,0.0143936574459075,-0.4627745747566223,0.0,0.0,0.0047446489334106,-0.865776538848877
-0.0184100158512592,0.0008507704478688,0.0409012362360954,-0.0771502330899238,-0.0070435488596558,-0.4287442564964294,0.0,0.0,0.2790323495864868,-0.7807713747024536
-0.0182856563478708,-0.0005995535757392,0.0326079167425632,-0.0646755173802375,-0.026956170797348,-0.3982526957988739,1.0,0.0,0.1424161195755005,-0.2703951001167297
-0.0180638320744037,-0.001529493369162,0.032857809215784,-0.041794829070568,-0.0365371219813823,-0.1903967559337616,1.0,0.0,-0.1385143995285034,-0.0463489890098571
-0.0177447311580181,-0.0026325965300202,0.027093831449747,-0.0489294566214084,-0.0317423939704895,0.0959470719099044,1.0,0.0,-0.1360681056976318,-0.2349778413772583
-0.0173433311283588,-0.0039355419576168,0.0216954424977302,-0.0576244704425334,-0.0134951937943696,0.3649799823760986,1.0,0.0,0.0354868173599243,-0.4313393831253052
-0.0171431545168161,-0.0044277096167206,0.0088050309568643,-0.0218318905681371,-0.0024770870804786,0.2203050851821899,1.0,1.0,0.0496484041213989,0.7602715492248535
-0.0170207973569631,-0.0040994430892169,0.0088589172810316,0.0145811261609196,0.0008234974229708,0.0659661069512367,1.0,1.0,-0.6505307555198669,0.0828692913055419
-0.0169439315795898,-0.0035020613577216,0.0080993082374334,0.0265363957732915,0.0003826536121778,-0.0088441064581274,1.0,1.0,-0.3753181099891662,-0.0152236819267272
-0.0168831832706928,-0.0026488327421247,0.007825655862689,0.0379124954342842,-0.0013685119338333,-0.0350436978042125,1.0,1.0,-0.6693099141120911,-0.268969178199768
-0.0168169029057025,-0.0015910768415778,0.0079152202233672,0.0470048710703849,-0.0026545689906924,-0.0257387813180685,1.0,1.0,-0.2613324522972107,-0.0541898012161254
-0.0166533477604389,-0.0007012987043708,0.0095533560961484,0.0395384803414344,0.0040479414165019,0.1340298354625702,1.0,1.0,-0.2566990256309509,0.924797534942627
-0.0164456367492675,-0.0004652643110603,0.0188945848494768,0.0104806656017899,0.0058866473846137,0.0367536768317222,1.0,1.0,-0.2128975391387939,0.2193427085876464
