x_pos,y_pos,x_vel,y_vel,angle,ang_vel,leg_1,leg_2,main_booster,lat_booster
-0.001530933426693,1.4032254219055176,-0.1545973271131515,-0.341978520154953,0.001345437252894,0.0265090018510818,0.0,0.0,-0.5612123334789794,-0.3368936811934059
-0.0030697821639478,1.3951551914215088,-0.1547828167676925,-0.3586786985397339,0.0022348705679178,0.0177910290658473,0.0,0.0,0.3363665668886055,-0.3564268212388051
-0.004509353544563,1.3871761560440063,-0.1449638307094574,-0.3546293079853058,0.0032319165766239,0.0199424047023057,0.0,0.0,-0.3418196960916204,0.8557821681898189
-0.0059031485579907,1.378795504570007,-0.1386057585477829,-0.3724741339683532,0.0024698050692677,-0.0152436550706624,0.0,0.0,0.0924067381120239,0.6181722827166122
-0.007161998655647,1.3706653118133545,-0.1236322522163391,-0.3613433241844177,0.0002444251731503,-0.0445117428898811,0.0,0.0,-0.1121189210286406,-0.6331245711272618
-0.008467674255371,1.3621351718902588,-0.1289133578538894,-0.3791183233261108,-0.0013879702892154,-0.0326511226594448,0.0,0.0,0.2971588213101401,0.6770961357350552
-0.0097474101930856,1.3538862466812134,-0.1245670318603515,-0.366621196269989,-0.0047576986253261,-0.0674011185765266,0.0,0.0,0.4188830135916201,-0.0741578131326476
-0.010904312133789,1.3460711240768433,-0.1125481575727462,-0.3473530113697052,-0.0078622065484523,-0.0620960593223571,0.0,0.0,0.4710966876061857,0.9706101426617068
-0.0119990352541208,1.338984727859497,-0.1040410846471786,-0.3149867653846741,-0.013233988545835,-0.1074453219771385,0.0,0.0,0.5288199323207772,-0.8043492133581456
-0.0131566049531102,1.3325142860412598,-0.1116136088967323,-0.2876215577125549,-0.0173270367085933,-0.0818684101104736,0.0,0.0,0.3076753515364938,-0.996697309838274
-0.0143123622983694,1.3263511657714844,-0.1131688728928566,-0.2739370167255401,-0.0197018831968307,-0.0475015565752983,0.0,0.0,-0.0925769001231326,-0.1808555042134144
-0.0154749872162938,1.3197896480560305,-0.11357132345438,-0.2916679382324219,-0.0223560761660337,-0.0530887730419635,0.0,0.0,0.1104611110980822,0.0925519191606587
-0.0165457725524902,1.313531517982483,-0.1045474037528038,-0.2781834900379181,-0.0248545929789543,-0.0499752759933471,0.0,0.0,0.8147689362752557,-0.1906685075571956
-0.0175367351621389,1.307456612586975,-0.0966799259185791,-0.2700391709804535,-0.0272333025932312,-0.0475788377225399,0.0,0.0,0.9844985906028776,-0.6641316301042561
-0.018376063555479,1.302469253540039,-0.0831434205174446,-0.221675232052803,-0.0280197169631719,-0.01572972163558,0.0,0.0,-0.1104037288843227,0.6374704777316498
-0.0191603656858205,1.2970728874206543,-0.0759242326021194,-0.2398855537176132,-0.0304957795888185,-0.0495256297290325,0.0,0.0,0.8274015294262784,0.4978313026031422
-0.0197666175663471,1.2926896810531616,-0.0586748011410236,-0.1948534846305847,-0.0324237458407878,-0.0385628566145896,0.0,0.0,0.5259609494069852,-0.9414489366797932
-0.0202893260866403,1.2884145975112915,-0.0522416345775127,-0.1900068372488021,-0.0324533209204673,-0.0005916660884395,0.0,0.0,-0.1460238945196657,-0.7059361585498808
-0.0208599083125591,1.2837495803833008,-0.0580974221229553,-0.2073112577199936,-0.0314258188009262,0.0205520801246166,0.0,0.0,0.7817422675928005,-0.2344012288354701
-0.0214983932673931,1.2796049118041992,-0.0643822029232978,-0.1841922253370285,-0.030897619202733,0.0105651132762432,0.0,0.0,-0.2511305931348273,0.1238105999372114
-0.0221357345581054,1.2750613689422607,-0.0642061010003089,-0.2019279897212982,-0.0304349828511476,0.0092538055032491,0.0,0.0,0.030155381430073,0.7467455946748578
-0.0226949695497751,1.2705252170562744,-0.0548529215157032,-0.2016237825155258,-0.0314911566674709,-0.0211256593465805,0.0,0.0,0.1218697280090408,0.0937746255636764
-0.0231506340205669,1.2661404609680176,-0.0448985248804092,-0.1948960870504379,-0.0321488417685031,-0.0131549509242177,0.0,0.0,0.8170826120933181,-0.9164937213237644
-0.0235774032771587,1.261860489845276,-0.0440237484872341,-0.1901878416538238,-0.0308257602155208,0.0264640785753726,0.0,0.0,0.8347528775111244,0.2982512662250356
-0.0241332054138183,1.2582606077194214,-0.0562202632427215,-0.159983143210411,-0.0301931519061326,0.012653705663979,0.0,0.0,0.7762525488701921,-0.3314256641672846
-0.0248148925602436,1.2553822994232178,-0.0681454613804817,-0.1279240697622299,-0.0302164033055305,-0.0004651267081499,0.0,0.0,-0.9729373241828234,0.4896030778716043
-0.025486659258604,1.2521051168441772,-0.0672465562820434,-0.1456501930952072,-0.0301453787833452,0.0014206517953425,0.0,0.0,0.3274504873134094,0.6795783501738921
-0.0261894222348928,1.2494330406188965,-0.0689106434583664,-0.118781179189682,-0.0314979702234268,-0.0270518902689218,0.0,0.0,-0.1231566540553448,-0.791316988313814
-0.0269548408687114,1.2463723421096802,-0.0772586315870285,-0.1360162794589996,-0.0307904388755559,0.0141507089138031,0.0,0.0,0.6911929553204539,-0.5252379140630078
-0.0277542117983102,1.2436621189117432,-0.0818174183368682,-0.1204193904995918,-0.0289332401007413,0.037144087255001,0.0,0.0,0.9690566601138506,-0.1462236180765533
-0.0284850113093853,1.2420649528503418,-0.0752581506967544,-0.0709454640746116,-0.026781802996993,0.0430286191403865,0.0,0.0,-0.9867559671401978,0.6736600399017334
-0.0291504859924316,1.240062952041626,-0.0677615478634834,-0.0889503434300422,-0.0255847387015819,0.0239415857940912,0.0,0.0,-0.99241441488266,0.8433105945587158
-0.0297372825443744,1.2376679182052612,-0.0586706213653087,-0.1064476072788238,-0.0256007853895425,-0.000320990307955,0.0,0.0,-0.8800897598266602,-0.4134132862091064
-0.030301284044981,1.23487389087677,-0.0566382482647895,-0.124173417687416,-0.0253638438880443,0.0047388356178998,0.0,0.0,-0.9993840456008912,0.6096405982971191
-0.0307908058166503,1.231680393218994,-0.0482055060565471,-0.1419478505849838,-0.0261007379740476,-0.0147380651906132,0.0,0.0,-0.9992184042930604,0.6765303611755371
-0.0311981197446584,1.228090763092041,-0.0388754978775978,-0.1595687121152877,-0.0279349219053983,-0.0366835966706275,0.0,0.0,-0.9942286610603333,0.0252573490142822
-0.0315764434635639,1.2241023778915403,-0.0362813025712966,-0.1772946268320083,-0.0294646564871072,-0.030594665557146,0.0,0.0,-0.995652437210083,0.0391838550567626
-0.0319235809147357,1.2197149991989136,-0.0334922149777412,-0.1950203776359558,-0.0306751187890768,-0.0242093913257122,0.0,0.0,-0.991735339164734,0.5513961315155029
-0.0321966186165809,1.2149327993392944,-0.0253774616867303,-0.2125784903764724,-0.0325770787894725,-0.038039181381464,0.0,0.0,-0.933444082736969,-0.0459659695625305
-0.0324342735111713,1.209751844406128,-0.0221895836293697,-0.2303041964769363,-0.0341334789991378,-0.0311278793960809,0.0,0.0,-0.9965035319328308,0.3607314825057983
-0.0326344482600688,1.204171657562256,-0.0187986455857753,-0.248029738664627,-0.0353327244520187,-0.0239852182567119,0.0,0.0,-0.918402135372162,0.7799389362335205
-0.0327205657958984,1.198186993598938,-0.0058808433823287,-0.2660532295703888,-0.0380339436233043,-0.0540244877338409,0.0,0.0,-0.945060968399048,-0.3187407255172729
-0.0327649116516113,1.191803216934204,-0.0020786907989531,-0.2837789952754974,-0.0403577908873558,-0.0464771576225757,0.0,0.0,-0.8926217555999756,0.0771542787551879
-0.0327652916312217,1.1850205659866333,0.0019307642942294,-0.3015044927597046,-0.0422955006361007,-0.0387544110417366,0.0,0.0,-0.9713335633277892,0.1788430213928222
-0.032719325274229,1.177838921546936,0.0061480454169213,-0.3192297518253326,-0.0438391342759132,-0.0308726765215396,0.0,0.0,-0.9728698134422302,0.4458470344543457
-0.0326251983642578,1.1702582836151123,0.0105732306838035,-0.3369548618793487,-0.0449814870953559,-0.0228471606969833,0.0,0.0,-0.9241384267807008,0.2528424263000488
-0.0324806198477745,1.1622785329818726,0.0152059616521,-0.3546797633171081,-0.0457160770893096,-0.014692036435008,0.0,0.0,-0.9811625480651855,0.5459098815917969
-0.0322480201721191,1.153903245925903,0.0244677998125553,-0.3722786605358124,-0.0469196178019046,-0.0240707658231258,0.0,0.0,-0.9804012179374696,-0.5321962833404541
-0.0320119857788085,1.145136833190918,0.0230859890580177,-0.3895932734012604,-0.0464114099740982,0.0101642962545156,0.0,0.0,-0.8861072659492493,0.4527130126953125
-0.0317193046212196,1.1359715461730957,0.0283349342644214,-0.4073180556297302,-0.0454797148704528,0.0186339281499385,0.0,0.0,-0.7295972108840942,-0.1734113693237304
-0.0313675887882709,1.1264071464538574,0.0337857790291309,-0.4250428974628448,-0.044120367616415,0.0271869264543056,0.0,0.0,-0.9049739241600036,0.3903717994689941
-0.0309551246464252,1.1164438724517822,0.039436150342226,-0.4427677690982818,-0.042329654097557,0.0358140654861927,0.0,0.0,-0.9263936877250672,-0.3906263709068298
-0.0304798129945993,1.1060813665390017,0.0452833026647567,-0.460492879152298,-0.0401043072342872,0.0445069149136543,0.0,0.0,-0.6935096979141235,-0.0151863098144531
-0.0299395564943552,1.0953198671340942,0.051324151456356,-0.4782181680202484,-0.0374414101243019,0.0532578900456428,0.0,0.0,-0.9833320379257202,0.4175777435302734
-0.0293326377868652,1.08415949344635,0.0575552992522716,-0.4959437549114227,-0.0343384183943271,0.0620600767433643,0.0,0.0,-0.8840557336807251,0.3237706422805786
-0.028657054528594,1.072600245475769,0.0639730766415596,-0.5136696696281433,-0.0307930633425712,0.0709072202444076,0.0,0.0,-0.8780602216720581,0.5214855670928955
-0.0278630256652832,1.0606446266174316,0.0765672251582145,-0.531305730342865,-0.0280020833015441,0.0558196678757667,0.0,0.0,-0.9329473972320556,-0.2908676862716675
-0.0269968025386333,1.048290133476257,0.0833461880683898,-0.5490316152572632,-0.024765059351921,0.0647404640913009,0.0,0.0,-0.8598445653915405,-0.4444969892501831
-0.0260564796626567,1.035536766052246,0.0902992263436317,-0.5667579770088196,-0.0210805162787437,0.0736909285187721,0.0,0.0,-0.9133344888687134,-0.6322134137153625
-0.0250967033207416,1.0223922729492188,0.0903597772121429,-0.5841400623321533,-0.0155304642394185,0.1110010519623756,0.0,0.0,-0.9571406245231628,-0.1527987718582153
-0.0240593906491994,1.008849024772644,0.097646914422512,-0.6018684506416321,-0.0095305126160383,0.1199988573789596,0.0,0.0,-0.7764770984649658,-0.3965816497802734
-0.0229431148618459,0.9949074387550354,0.1050938367843627,-0.6195974349975586,-0.0030797587241977,0.1290152370929718,0.0,0.0,-0.7838500142097473,0.0502194166183471
-0.0217462535947561,0.9805675745010376,0.112695500254631,-0.6373271346092224,0.0038225967437028,0.1380472183227539,0.0,0.0,-0.8408073782920837,0.0427978038787841
-0.0204672813415527,0.9658295512199402,0.1204467415809631,-0.6550576090812683,0.0111772008240222,0.1470921784639358,0.0,0.0,-0.4790538549423218,-0.6444458961486816
-0.0191550254821777,0.9506881833076476,0.1220305189490318,-0.6730480194091797,0.0202496498823165,0.1814489960670471,0.0,0.0,-0.9592053294181824,0.0893061161041259
-0.0177578926086425,0.9351492524147034,0.1300652623176574,-0.6907820105552673,0.0297752916812896,0.1905128955841064,0.0,0.0,-0.763745903968811,-0.5834419131278992
-0.0163191799074411,0.9192177653312684,0.1326363831758499,-0.7083256244659424,0.0408727712929248,0.2219495773315429,0.0,0.0,-0.8324824571609497,0.407589316368103
-0.0147930141538381,0.9028896689414978,0.1409335434436798,-0.7260638475418091,0.0524240210652351,0.2310249507427215,0.0,0.0,-0.2930799126625061,0.0518131256103515
-0.0131780626252293,0.886164665222168,0.1493538916110992,-0.7438033819198608,0.0644292160868644,0.2401041239500045,0.0,0.0,-0.4643911123275757,-0.4108638763427734
-0.0114731788635253,0.8690431714057922,0.1578920781612396,-0.7615442276000977,0.0768885165452957,0.2491859644651413,0.0,0.0,-0.0243002772331237,-0.1772995591163635
-0.0096774101257324,0.8515254259109497,0.1665428578853607,-0.7792864441871643,0.0898019969463348,0.2582694292068481,0.0,0.0,0.1324115991592407,0.4595247507095337
-0.0078068734146654,0.8342518210411072,0.1734783947467804,-0.7685861587524414,0.1032672226428985,0.2693046033382416,0.0,0.0,0.1878037452697754,-0.2127823829650879
-0.0059979436919093,0.8174739480018616,0.1673009097576141,-0.7466751933097839,0.1167582347989082,0.269820362329483,0.0,0.0,0.0890429019927978,0.5544795989990234
-0.0040425299666821,0.8008844256401062,0.1825458854436874,-0.7383785247802734,0.1296858936548233,0.2585529386997223,0.0,0.0,0.0524085760116577,0.7534008026123047
-0.0019894600845873,0.7842703461647034,0.1933971643447876,-0.7394817471504211,0.141550526022911,0.2372926026582718,0.0,0.0,0.4311928749084472,0.2867192029953003
0.0001777648867573,0.7676908373832703,0.2041179239749908,-0.7381117939949036,0.154141753911972,0.2518246471881866,0.0,0.0,0.5491887331008911,0.907127857208252
0.0024315833579748,0.7511870265007019,0.2141839563846588,-0.7347028255462646,0.1653349548578262,0.2238642871379852,0.0,0.0,0.2440719604492187,0.5863778591156006
0.0047225952148437,0.7351856231689453,0.2186608761548996,-0.7123730778694153,0.1757916659116745,0.2091338187456131,0.0,0.0,0.4345197677612304,0.7656209468841553
0.0071227075532078,0.7198776006698608,0.2305526286363601,-0.6815098524093628,0.1852799355983734,0.1897657513618469,0.0,0.0,-0.8356869220733643,0.9663407802581788
0.0096811298280954,0.704199492931366,0.247537225484848,-0.6978670954704285,0.1936377137899398,0.1671555042266845,0.0,0.0,-0.6930581331253052,0.4791288375854492
0.0123390201479196,0.6881246566772461,0.2570253014564514,-0.7156063914299011,0.202448770403862,0.17622110247612,0.0,0.0,-0.8069301843643188,0.5395553112030029
0.0151405334472656,0.6716716289520264,0.2721073031425476,-0.7323704361915588,0.2105522751808166,0.1620705276727676,0.0,0.0,-0.4687384366989136,0.2021976709365844
0.0180423744022846,0.6548218131065369,0.2817034125328064,-0.7501100301742554,0.2191084921360016,0.171124666929245,0.0,0.0,-0.4798364043235779,0.5631825923919678
0.0210839267820119,0.6375910043716431,0.2962759137153625,-0.7670109868049622,0.2270845472812652,0.1595210134983062,0.0,0.0,-0.7360759377479553,0.0084688663482666
0.0242266654968261,0.6199633479118347,0.3059612214565277,-0.7847510576248169,0.2355126142501831,0.1685614883899688,0.0,0.0,-0.4841756820678711,0.4036175012588501
0.0274710655212402,0.6019394397735596,0.3156844675540924,-0.8024920225143433,0.2443923056125641,0.1775939613580703,0.0,0.0,-0.0313340425491333,0.7533299922943115
0.0308782570064067,0.5835341215133667,0.3331067562103271,-0.819299578666687,0.2521483898162842,0.1551216393709182,0.0,0.0,0.8599791526794434,-0.3522159457206726
0.0343757644295692,0.5654298663139343,0.3412232398986816,-0.806119978427887,0.2608383297920227,0.1737988144159317,0.0,0.0,0.8191298246383667,0.1619625091552734
0.0379698760807514,0.5479033589363098,0.3497374653816223,-0.7807072997093201,0.2707279026508331,0.1977913677692413,0.0,0.0,0.8339648246765137,0.0192155838012695
0.0416983589529991,0.5306758284568787,0.362072080373764,-0.767698347568512,0.2817830443382263,0.2211025655269622,0.0,0.0,0.6312466859817505,-0.1309019327163696
0.0453176498413085,0.5141193270683289,0.3507808148860931,-0.7380427122116089,0.2932615280151367,0.2295693606138229,0.0,0.0,0.6926103830337524,0.7608096599578857
0.0489044189453125,0.4983296394348144,0.3485638499259949,-0.7038333415985107,0.3037036061286926,0.2088420391082763,0.0,0.0,0.5789499282836914,0.3597192764282226
0.0525167472660541,0.4831104278564453,0.3501864373683929,-0.6787611842155457,0.3151443004608154,0.2288139313459396,0.0,0.0,0.1903672218322754,0.8718217611312866
0.0563058853149414,0.4678933620452881,0.3691480457782745,-0.6784685254096985,0.3253028392791748,0.2031700313091278,0.0,0.0,0.4889812469482422,0.445225715637207
0.0600060448050498,0.452910304069519,0.3600622713565826,-0.6681845188140869,0.335688978433609,0.2077223509550094,0.0,0.0,-0.1573596596717834,0.7993566989898682
0.0638742446899414,0.437576025724411,0.3782570958137512,-0.6835407614707947,0.3446450531482696,0.1791218221187591,0.0,0.0,0.7051042318344116,0.5769872665405273
0.0676647201180458,0.422684758901596,0.3712815642356872,-0.6637130975723267,0.352798730134964,0.163074254989624,0.0,0.0,0.4174693822860718,0.7220660448074341
0.0712619796395301,0.408332347869873,0.3531586527824402,-0.6395156979560852,0.3597196638584137,0.1384180039167404,0.0,0.0,0.3465995788574219,0.7790038585662842
0.074891947209835,0.3944603204727173,0.3574605286121368,-0.6179360151290894,0.365575760602951,0.1171212047338485,0.0,0.0,0.7032432556152344,0.6131870746612549
0.0783355683088302,0.3812735974788666,0.3397407233715057,-0.5872657299041748,0.3704642057418823,0.0977687537670135,0.0,0.0,0.6152777671813965,0.3962931632995605
0.0815401077270507,0.3686700761318207,0.3157778084278106,-0.5613725781440735,0.3754187822341919,0.0990915447473526,0.0,0.0,0.4350438117980957,0.7833690643310547
0.0847223252058029,0.3562919199466705,0.3146977126598358,-0.5510731935501099,0.3791687786579132,0.0749999731779098,0.0,0.0,0.7361595630645752,0.7713494300842285
0.0877024680376052,0.3443576097488403,0.295814573764801,-0.5309998989105225,0.3815062046051025,0.046748511493206,0.0,0.0,0.1430140733718872,0.7247829437255859
0.090591050684452,0.3324953019618988,0.2877579927444458,-0.5275089740753174,0.3826785385608673,0.0234464742243289,0.0,0.0,0.3709534406661987,0.3620429039001465
0.0934379547834396,0.3211153745651245,0.2827940583229065,-0.5062842965126038,0.3846906423568725,0.040241815149784,0.0,0.0,0.3392598628997803,0.2945630550384521
0.0963172912597656,0.3097826242446899,0.2854284644126892,-0.5043557286262512,0.3873637914657593,0.0534628629684448,0.0,0.0,0.4212867021560669,-0.1814184188842773
0.0991621986031532,0.2990355491638183,0.281043529510498,-0.4785876274108886,0.3910428285598755,0.0735808685421943,0.0,0.0,0.7870844602584839,0.7568858861923218
0.1018126457929611,0.289080411195755,0.2627174854278564,-0.4430929124355316,0.3935218453407287,0.0495803840458393,0.0,0.0,0.256702184677124,0.501697301864624
0.1044536605477333,0.2797248065471649,0.2621275782585144,-0.4163522720336914,0.3956367373466491,0.0422976911067962,0.0,0.0,0.1744873523712158,0.3291441202163696
0.1070812195539474,0.2705743312835693,0.2601531147956848,-0.4074166417121887,0.3984228074550628,0.0557216107845306,0.0,0.0,0.3898024559020996,0.5566704273223877
0.1095692664384841,0.262003481388092,0.2469033300876617,-0.3814610838890075,0.4004532992839813,0.0406105555593967,0.0,0.0,0.415690541267395,0.6520624160766602
0.1119854003190994,0.2540367543697357,0.2405027896165847,-0.3543925583362579,0.4016456007957458,0.0238460469990968,0.0,0.0,0.352811336517334,0.1054790019989013
0.114407442510128,0.2462303042411804,0.2404172867536544,-0.3474571108818054,0.4035526812076568,0.0381414368748664,0.0,0.0,0.617831826210022,0.0828440189361572
0.1165719032287597,0.2387919276952743,0.2148164212703704,-0.3310630023479461,0.405311107635498,0.0351689420640468,0.0,0.0,0.9231092929840088,0.4769923686981201
0.1184519752860069,0.2316943705081939,0.1866377294063568,-0.315836489200592,0.4067792296409607,0.0293624736368656,0.0,0.0,0.6849627494812012,0.5126643180847168
0.120207592844963,0.2250018715858459,0.1748746335506439,-0.2976430058479309,0.4075183272361755,0.0147817460820078,0.0,0.0,0.9481141567230223,0.5581188201904297
0.1218700408935546,0.2188232690095901,0.166190505027771,-0.2746235132217407,0.4075851142406463,0.0013356811832636,0.0,0.0,-0.3843809366226196,-0.2033457159996032
0.1236166954040527,0.2122478634119033,0.1742432117462158,-0.2923626601696014,0.4080366194248199,0.0090300561860203,0.0,0.0,0.8564243316650391,-0.2289960384368896
0.1252412796020507,0.2063986361026764,0.1612089425325393,-0.2603229880332947,0.4093732237815857,0.0267320517450571,0.0,0.0,0.991447687149048,0.6975909471511841
0.1266370713710785,0.2015487104654312,0.1392752677202224,-0.2156428843736648,0.4097069799900055,0.0066749989055097,0.0,0.0,0.9379379749298096,-0.4142756462097168
0.1280337274074554,0.1968498975038528,0.1386937648057937,-0.2091140002012252,0.4107507169246673,0.0208747796714305,0.0,0.0,0.963270902633667,-0.3574322462081909
