x_pos,y_pos,x_vel,y_vel,angle,ang_vel,leg_1,leg_2,main_booster,lat_booster
-0.0015252113807946,1.4029607772827148,-0.1541906893253326,-0.3537435829639435,0.001489957794547,0.0293707605451345,0.0,0.0,0.6059269600872235,-0.8052938185800922
-0.0030600547324866,1.3950297832489014,-0.1563844233751297,-0.352493941783905,0.0043567214161157,0.0573411397635936,0.0,0.0,-0.8080933595525917,-0.8777749365327943
-0.004649925045669,1.386427879333496,-0.1629637032747268,-0.3823199272155761,0.0082904752343893,0.0786826461553573,0.0,0.0,-0.5919116909823348,0.8011845135168543
-0.0061902999877929,1.3771605491638184,-0.1564367115497589,-0.4118959307670593,0.0106674255803227,0.0475431121885776,0.0,0.0,-0.3604776253351485,-0.6713264561545387
-0.007773017976433,1.3672311305999756,-0.1614365726709365,-0.4413330256938934,0.0138049283996224,0.0627557262778282,0.0,0.0,-0.1839177182455664,0.9228177687044892
-0.0092670442536473,1.3566385507583618,-0.150025188922882,-0.4707829356193542,0.0144147872924804,0.012198288924992,0.0,0.0,-0.2613880346359785,0.6183857243497496
-0.0107144359499216,1.3453832864761353,-0.1438823044300079,-0.500219464302063,0.0135619295760989,-0.0170584730803966,0.0,0.0,-0.8107924466229415,-0.8697840551248966
-0.0122134210541844,1.3334661722183228,-0.1500516235828399,-0.5296585559844971,0.013719274662435,0.0031470078974962,0.0,0.0,0.5825841152109668,0.772154238940527
-0.0136751178652048,1.3220967054367063,-0.1444639861583709,-0.5052854418754578,0.0120352925732731,-0.033682707697153,0.0,0.0,0.5445818161664719,-0.9581527593023016
-0.0152206420898437,1.3110867738723757,-0.1544824093580246,-0.4893295466899872,0.0119628394022583,-0.0014490990433841,0.0,0.0,0.0914012411976288,-0.6289046562125464
-0.0167555809020996,1.300002932548523,-0.1544831693172454,-0.4926271438598633,0.0129405725747346,0.019556475803256,0.0,0.0,-0.3755904682166653,-0.8717602830064207
-0.0183500293642282,1.288252353668213,-0.1616904586553573,-0.522266685962677,0.0151561386883258,0.0443155318498611,0.0,0.0,-0.5117019489849433,0.8510637820226608
-0.0198616031557321,1.2758445739746094,-0.1510349214076995,-0.5514609813690186,0.0150315649807453,-0.0024914750829339,0.0,0.0,-0.1539095563527917,-0.9364815841014218
-0.0214367862790823,1.2627627849578855,-0.1587691009044647,-0.581424355506897,0.0162655357271432,0.0246816109865903,0.0,0.0,0.4038006892158969,0.67314454026045
-0.0228362083435058,1.2500795125961304,-0.139794647693634,-0.5637024641036987,0.0161269884556531,-0.0027711233124136,0.0,0.0,-0.5577050802063162,0.96699059398962
-0.0241429321467876,1.2367230653762815,-0.1279515326023101,-0.5935876369476318,0.0134342703968286,-0.0538594648241996,0.0,0.0,-0.2430672704506713,-0.9325287692750088
-0.0255039222538471,1.2227129936218262,-0.1345291435718536,-0.6226584315299988,0.0118816019967198,-0.031055599451065,0.0,0.0,-0.6626793436308647,0.8624458327006541
-0.0267777442932128,1.2080334424972534,-0.1233818084001541,-0.6523940563201904,0.0079236607998609,-0.0791662260890007,0.0,0.0,-0.3097235956452442,-0.6753440578024923
-0.02809314802289,1.1926963329315186,-0.1283810287714004,-0.6816351413726807,0.0048036044463515,-0.0624065026640892,0.0,0.0,-0.0086889932787754,0.9279666222913272
-0.0293414108455181,1.1766959428787231,-0.119771160185337,-0.711124062538147,-0.0002015615318669,-0.1001122742891311,0.0,0.0,-0.2310510116935769,0.9666583893024718
-0.0304933544248342,1.1600395441055298,-0.1074795350432396,-0.7403072714805603,-0.0078203175216913,-0.1523887664079666,0.0,0.0,0.0063358809438547,0.9833101116161582
-0.0315524116158485,1.1431180238723757,-0.0959353297948837,-0.7521421313285828,-0.0176844261586666,-0.1973001062870025,0.0,0.0,-0.8974651317594973,0.6240649121413523
-0.0325469970703125,1.125532150268555,-0.0876638293266296,-0.7817742824554443,-0.0293428357690572,-0.2331889122724533,0.0,0.0,0.0908524417353169,0.7786645493267083
-0.0334157943725585,1.1075804233551023,-0.0732798725366592,-0.7981828451156616,-0.0428021028637886,-0.2692097127437591,0.0,0.0,0.7313322236972939,-0.6483375127001183
-0.0344625487923622,1.0899933576583862,-0.0916939750313758,-0.7820629477500916,-0.0556431412696838,-0.2568438649177551,0.0,0.0,0.1653854491797506,-0.7173624250317354
-0.0356498733162879,1.0724856853485107,-0.106775090098381,-0.7786091566085815,-0.067473366856575,-0.2366041392087936,0.0,0.0,0.1752800333376374,0.9947176648975148
-0.0367148406803607,1.0550881624221802,-0.09225694835186,-0.7739238142967224,-0.0815702900290489,-0.2819387018680572,0.0,0.0,-0.3870879026594915,-0.724159383308028
-0.0378432273864746,1.0370458364486694,-0.1000846177339553,-0.8026255369186401,-0.094196893274784,-0.2525320947170257,0.0,0.0,0.6726100640864972,0.9126271507329552
-0.0389663688838481,1.0195320844650269,-0.0972491651773452,-0.7794069647789001,-0.1091440841555595,-0.2989440560340881,0.0,0.0,0.9614852031285156,-0.9314383790615048
-0.0401208885014057,1.0022341012954712,-0.1019419878721237,-0.7698453664779663,-0.1225718557834625,-0.2685554027557373,0.0,0.0,0.6273420892588168,-0.9645394434435628
-0.0412210449576377,0.9855374693870544,-0.0981957763433456,-0.7430838942527771,-0.134330078959465,-0.2351644337177276,0.0,0.0,0.7824749403102316,-0.6207609918170538
-0.0423893928527832,0.9689067602157592,-0.1057699769735336,-0.740177571773529,-0.1453635394573211,-0.2206691205501556,0.0,0.0,0.563979756085041,-0.7271946244783595
-0.0435821525752544,0.9527788758277892,-0.1092332452535629,-0.7178137898445129,-0.1553866863250732,-0.2004628926515579,0.0,0.0,-0.9842872949599896,0.7029387280532113
-0.0447192192077636,0.93597149848938,-0.1021366491913795,-0.7482419610023499,-0.1669555455446243,-0.2313773334026336,0.0,0.0,0.2310518327666779,-0.6022538700472695
-0.0458046905696392,0.9192039370536804,-0.0979387611150741,-0.7464527487754822,-0.1775773912668228,-0.2124368250370025,0.0,0.0,0.2009067323694693,0.7668207545434557
-0.0467100143432617,0.9025723338127136,-0.0781599208712577,-0.740703821182251,-0.1900010406970977,-0.2484728991985321,0.0,0.0,-0.4427411449331213,-0.875531941716536
-0.0476787574589252,0.8852960467338562,-0.0860731899738311,-0.7692658305168152,-0.2008752822875976,-0.2174843996763229,0.0,0.0,-0.3010891666565531,0.6422106318937143
-0.048585794866085,0.8673471808433533,-0.0782892629504203,-0.7994585633277893,-0.213398590683937,-0.250466376543045,0.0,0.0,0.1293761508738005,0.9564003510798628
-0.049318216741085,0.8495790362358093,-0.0586786866188049,-0.7918699383735657,-0.2281162440776825,-0.2943530976772308,0.0,0.0,0.1242313417782892,0.8431563217946052
-0.0498613342642784,0.8317265510559082,-0.0378765948116779,-0.7960748672485352,-0.244800865650177,-0.3336926102638244,0.0,0.0,-0.8452369681678316,0.8385724802918314
-0.0503411293029785,0.8132025599479675,-0.0299968477338552,-0.826397180557251,-0.263148695230484,-0.3669567406177521,0.0,0.0,0.0795072317123413,-0.9809804558753968
-0.050704576075077,0.7945055365562439,-0.020065888762474,-0.8339883089065552,-0.2798210084438324,-0.3334459960460663,0.0,0.0,-0.36697518825531,-0.9897584915161132
-0.0511234290897846,0.775165855884552,-0.0270473752170801,-0.8624580502510071,-0.2950921952724457,-0.3054239451885223,0.0,0.0,-0.1031903028488159,-0.9948444366455078
-0.0515956878662109,0.7551930546760559,-0.0338259264826774,-0.8904613852500916,-0.3089466392993927,-0.2770890593528747,0.0,0.0,-0.2706208229064941,-0.9967875480651855
-0.0521406158804893,0.7345868349075317,-0.0429648458957672,-0.9183330535888672,-0.3209137916564941,-0.2393432408571243,0.0,0.0,0.1992549896240234,-0.988972783088684
-0.0526381507515907,0.7136737704277039,-0.0399380661547184,-0.9316837191581726,-0.3311387300491333,-0.2044987380504608,0.0,0.0,0.5491604804992676,-0.9986255168914796
-0.053003691136837,0.6926950216293335,-0.0285141207277774,-0.9342520236968994,-0.3395333290100097,-0.1678920984268188,0.0,0.0,0.3224351406097412,-0.9986428022384644
-0.0533073432743549,0.6721000671386719,-0.024032823741436,-0.9168363213539124,-0.3461659252643585,-0.1326525807380676,0.0,0.0,0.3995318412780761,-0.9995421171188354
-0.053568460047245,0.651899516582489,-0.0214459784328937,-0.8989362716674805,-0.3510651886463165,-0.0979849249124527,0.0,0.0,0.4855630397796631,-0.9932079315185548
-0.0537568107247352,0.631729781627655,-0.0158587973564863,-0.8971684575080872,-0.354200005531311,-0.0626965388655662,0.0,0.0,0.7439056634902954,-0.996062397956848
-0.0536401756107807,0.6116974353790283,0.0127320392057299,-0.8905831575393677,-0.3553264141082763,-0.0225284546613693,0.0,0.0,0.7272237539291382,-0.9945626854896544
-0.0533807761967182,0.5921683311462402,0.0253803730010986,-0.8678259253501892,-0.3547313809394836,0.0119007807224988,0.0,0.0,0.7109289169311523,-0.9942836165428162
-0.0529065132141113,0.5725933909416199,0.0450136289000511,-0.8694002032279968,-0.3521886169910431,0.0508554801344871,0.0,0.0,0.972071409225464,-0.9685657024383544
-0.0521588325500488,0.5537423491477966,0.0706555098295211,-0.8368273973464966,-0.3478756844997406,0.0862590819597244,0.0,0.0,0.8181533813476562,-0.9559672474861144
-0.0511178970336914,0.534927487373352,0.098074123263359,-0.8347769975662231,-0.3415621221065521,0.1262713372707367,0.0,0.0,0.8190293312072754,-0.9604774713516236
-0.0500753410160541,0.5162765979766846,0.0967233851552009,-0.8271605968475342,-0.3336834609508514,0.1575730144977569,0.0,0.0,0.6958446502685547,-0.9418449401855468
-0.0487202629446983,0.4981149733066559,0.126167431473732,-0.8050535321235657,-0.3239387273788452,0.1948943883180618,0.0,0.0,0.5214606523513794,-0.9643149971961976
-0.0470909103751182,0.4801464080810547,0.1517296731472015,-0.7961438894271851,-0.3122922480106354,0.2329296171665191,0.0,0.0,0.8356014490127563,-0.9033811092376708
-0.045147992670536,0.4628219604492187,0.1812958270311355,-0.7672341465950012,-0.2988394498825073,0.2690559029579162,0.0,0.0,0.4758174419403076,0.0184756517410278
-0.0430525764822959,0.4458732008934021,0.1969792991876602,-0.7507514357566833,-0.2858932018280029,0.2589254975318908,0.0,0.0,0.2797948122024536,-0.601678729057312
-0.0408700928092002,0.4286733865737915,0.2045579701662063,-0.7618187069892883,-0.2718335688114166,0.2811925709247589,0.0,0.0,0.5697376728057861,-0.7917269468307495
-0.0386589989066123,0.4118479192256927,0.2061392813920974,-0.7450883984565735,-0.2565122842788696,0.3064255118370056,0.0,0.0,0.5591323375701904,-0.5872257351875305
-0.0362361893057823,0.3950390517711639,0.225946307182312,-0.7442886233329773,-0.239871934056282,0.3328074514865875,0.0,0.0,0.445037841796875,-0.8127624988555908
-0.0337144844233989,0.3783680200576782,0.2342518270015716,-0.7381188869476318,-0.2217109203338623,0.3632205724716186,0.0,0.0,0.510980486869812,-0.8304519057273865
-0.031158447265625,0.3615879714488983,0.2361090928316116,-0.7429711222648621,-0.2020110338926315,0.3939976096153259,0.0,0.0,0.7188544273376465,-0.8140550851821899
-0.0286698341369628,0.3451161384582519,0.2280252426862716,-0.729371964931488,-0.1810623407363891,0.4189736843109131,0.0,0.0,0.917992115020752,-0.7826974391937256
-0.0260244365781545,0.3294714689254761,0.2421211451292038,-0.6927360892295837,-0.1585940867662429,0.4493651986122131,0.0,0.0,0.866569995880127,-0.7056937217712402
-0.0232726093381643,0.3136411607265472,0.2511158585548401,-0.7011839747428894,-0.1345836967229843,0.4802077710628509,0.0,0.0,0.9522390365600586,-0.9155582785606384
-0.0204105377197265,0.2986729145050049,0.2602536380290985,-0.6631115674972534,-0.1087616384029388,0.5164412260055542,0.0,0.0,0.9300034046173096,-0.8533214926719666
-0.0176647193729877,0.283902108669281,0.247147798538208,-0.6547099947929382,-0.08155557513237,0.544121265411377,0.0,0.0,0.9820959568023682,-0.2494847178459167
-0.0149519918486475,0.2697053551673889,0.2443551123142242,-0.6297166347503662,-0.0549186877906322,0.5327378511428833,0.0,0.0,0.9828715324401855,0.1388220787048339
-0.0121511463075876,0.2559702396392822,0.2530024945735931,-0.6096757054328918,-0.0281555168330669,0.5352635979652405,0.0,0.0,0.9478824138641356,-0.0334064364433288
-0.0094639779999852,0.2430800944566726,0.242345929145813,-0.572601318359375,-0.0021240524947643,0.5206295251846313,0.0,0.0,0.9779592752456664,0.8198788166046143
-0.0066047669388353,0.2305715680122375,0.2609972059726715,-0.5560840368270874,0.0224711988121271,0.4919053018093109,0.0,0.0,0.9929656982421876,0.4553151130676269
-0.0037875175476074,0.2181135267019271,0.257018506526947,-0.5542409420013428,0.0468803085386753,0.4881823658943176,0.0,0.0,0.9482525587081908,0.8530540466308594
-0.0008234024280682,0.2055757343769073,0.2732295095920563,-0.5581226348876953,0.069790169596672,0.4581976532936096,0.0,0.0,0.966205596923828,0.7791574001312256
0.0021424293518066,0.1929796487092971,0.2750820517539978,-0.5609639286994934,0.0910908952355384,0.4260146021842956,0.0,0.0,0.9988031387329102,0.7683930397033691
0.0050790784880518,0.1811728626489639,0.2737073302268982,-0.5260782837867737,0.1108804568648338,0.3957915902137756,0.0,0.0,0.9706981182098388,0.7311340570449829
0.0080758091062307,0.1701921820640564,0.2809335887432098,-0.4895293414592743,0.1295190751552581,0.3727726936340332,0.0,0.0,0.7365598678588867,0.5981078147888184
0.0108904838562011,0.1598206907510757,0.2642196714878082,-0.4625438153743744,0.1467146873474121,0.3439122438430786,0.0,0.0,0.5964493751525879,0.3710765838623047
0.0135427471250295,0.149237111210823,0.2484987080097198,-0.4721141159534454,0.1634234637022018,0.3341750800609588,0.0,0.0,0.9440362453460692,0.4206849336624145
0.0160981174558401,0.1393821835517883,0.2385361194610595,-0.4399544596672058,0.1804566234350204,0.3406630754470825,0.0,0.0,0.7147021293640137,-0.3480219841003418
0.0184500701725482,0.1297208666801452,0.2186171561479568,-0.4314973652362823,0.1971210837364196,0.3332892060279846,0.0,0.0,0.7629780769348145,0.7180503606796265
0.0206603053957223,0.1204643845558166,0.2059192955493927,-0.4134777784347534,0.2123317420482635,0.3042133152484894,0.0,0.0,0.7676000595092773,0.1737785339355468
0.0227068904787302,0.1116407737135887,0.1895289272069931,-0.3944059908390045,0.2276249825954437,0.3058652877807617,0.0,0.0,0.5323331356048584,-0.0690369606018066
0.024716567248106,0.1029730886220932,0.1853797137737274,-0.3877134025096893,0.2434451133012771,0.3164026439189911,0.0,0.0,0.706384539604187,0.574411153793335
0.026717185974121,0.094180591404438,0.1854351609945297,-0.3932701349258423,0.258340984582901,0.2979180812835693,0.0,0.0,0.731055498123169,0.0876184701919555
0.0287092216312885,0.0853771567344665,0.1840269863605499,-0.3940134644508362,0.2738595604896545,0.3103714883327484,0.0,0.0,0.7758990526199341,0.3367836475372314
0.0306921005249023,0.0768647491931915,0.1822973936796188,-0.3814138174057007,0.2902918756008148,0.3286465406417846,0.0,0.0,0.6914863586425781,0.6546025276184082
0.0327622406184673,0.0683567821979522,0.1918464004993438,-0.3812285363674164,0.3059423267841339,0.3130090534687042,0.0,0.0,0.8355339765548706,0.0746166706085205
0.0345786102116107,0.0603802539408206,0.1663798391819,-0.3578046560287475,0.3217626810073852,0.3164068758487701,0.0,0.0,0.8001065254211426,0.3902715444564819
0.0361685752868652,0.0529363006353378,0.1434768140316009,-0.3343721032142639,0.3379454910755157,0.3236561715602875,0.0,0.0,0.6952652931213379,0.7030922174453735
0.0377169623970985,0.0459008328616619,0.1402952224016189,-0.3161720037460327,0.3531933426856994,0.3049573600292206,0.0,0.0,0.7547909021377563,0.3443280458450317
0.039247702807188,0.038749273866415,0.1379412710666656,-0.3216457664966583,0.3691565990447998,0.3192654252052307,0.0,0.0,0.9017279148101808,0.7238798141479492
0.0406083092093467,0.0330088473856449,0.1386777460575103,-0.2544079720973968,0.3665896356105804,-0.0510588698089122,0.0,1.0,0.9992051124572754,0.9789174795150756
0.0416596420109272,0.0290615651756525,0.1269426792860031,-0.1700145602226257,0.3436645865440368,-0.4584278464317322,0.0,1.0,0.9985302686691284,-0.3983184099197387
0.042360782623291,0.02617765404284,0.1081239357590675,-0.1196222677826881,0.3040361702442169,-0.7926076650619507,0.0,1.0,0.967538833618164,-0.8194800615310669
0.0425057411193847,0.0243022534996271,0.0603647604584693,-0.0744645446538925,0.2568457424640655,-0.9438587427139282,0.0,1.0,0.7463644742965698,-0.8719733953475952
0.0425032600760459,0.0228677373379468,0.0436469987034797,-0.0567161664366722,0.2121929824352264,-0.8931562304496765,0.0,1.0,0.4187058210372925,-0.6413021683692932
0.0422804839909076,0.0216932874172925,0.0199932921677827,-0.0466904677450656,0.1696476191282272,-0.8509426116943359,0.0,0.0,-0.9958771467208862,-0.5853403806686401
0.0420048721134662,0.0198701005429029,0.013444853015244,-0.0768739134073257,0.1286762505769729,-0.819461464881897,0.0,0.0,-0.9468427300453186,-0.7075151205062866
0.041671372950077,0.0173918828368186,0.0061381496489048,-0.1072116717696189,0.0894171521067619,-0.7852144837379456,0.0,0.0,-0.3199211359024048,-0.758479118347168
0.0412660613656044,0.0142613509669899,-0.0029686649795621,-0.1373167484998703,0.0522094964981079,-0.7441837787628174,0.0,0.0,0.7187099456787109,-0.9838690757751464
0.0405849441885948,0.0112687209621071,-0.03284677490592,-0.1321449428796768,0.0173775292932987,-0.6966395974159241,0.0,0.0,0.7751526832580566,-0.9095848202705384
0.0399436950683593,0.0087925055995583,-0.0311375893652439,-0.1099932268261909,-0.0151846939697861,-0.6512447595596313,0.0,0.0,0.7742398977279663,-0.9261073470115662
0.0393069274723529,0.0062520243227481,-0.0329462513327598,-0.1134998723864555,-0.0455321557819843,-0.6069497466087341,0.0,0.0,0.8722409009933472,-0.9630264043807985
0.0388141646981239,0.0043548084795475,-0.0210826601833105,-0.0854131504893302,-0.0734043568372726,-0.5574440956115723,1.0,0.0,0.7288434505462646,-0.2719597816467285
0.0384196266531944,0.0034799433778971,-0.0226264037191867,-0.0400824584066867,-0.0888255909085273,-0.3068012297153473,1.0,0.0,0.1279067993164062,-0.2916563153266907
0.0383260734379291,0.0033167933579534,-0.0104039702564477,-0.0071965549141168,-0.0877452120184898,0.0216582268476486,1.0,0.0,-0.6983171701431274,0.3277156352996826
0.0383076667785644,0.0029485083650797,-0.0156258232891559,-0.0156250912696123,-0.0740689635276794,0.2735625505447387,1.0,0.0,-0.9402687549591064,0.4928634166717529
0.0383365638554096,0.0022201633546501,-0.0191903486847877,-0.0314297974109649,-0.0521991774439811,0.4374311864376068,1.0,0.0,-0.5745757222175598,0.1905263662338256
0.0383855812251567,0.0009790515759959,-0.0211100745946168,-0.0544654615223407,-0.0264711715281009,0.5145983695983887,1.0,0.0,-0.3615576028823852,0.4007104635238647
0.0384374633431434,-0.0008729243418201,-0.0219654217362403,-0.0820553749799728,0.0003584838996175,0.5366312861442566,1.0,0.0,-0.0596084594726562,0.2586982250213623
0.0384154319763183,-0.0025581025984138,-0.0141005869954824,-0.0749474614858627,0.0121336048468947,0.2355311661958694,1.0,1.0,0.759056568145752,0.9980404376983644
0.0382392890751361,-0.0031064534559845,-0.0169887095689773,-0.0243768785148859,0.0115444920957088,-0.0117466039955616,1.0,1.0,-0.9015382528305054,0.4927985668182373
0.0381333343684673,-0.003239169018343,-0.0074128783307969,-0.0058737345971167,0.008395523764193,-0.0629783272743225,1.0,1.0,-0.9135279059410096,0.0344654321670532
0.0380810722708702,-0.0029413367155939,-0.0023527261801064,0.01326126139611,0.0055976649746298,-0.0559163577854633,1.0,1.0,-0.8944094777107239,-0.0238575935363769
0.0380352959036827,-0.0022784734610468,-0.0022777419071644,0.0294676441699266,0.0033323022071272,-0.0452999994158744,1.0,1.0,-0.9847076535224916,0.0484899282455444
0.0380081161856651,-0.0012895250692963,-0.0019663034472614,0.0439541265368461,0.0026000926736742,-0.0146374106407165,1.0,1.0,-0.9804388284683228,0.2432360649108886
0.037904929369688,-0.0003653788589872,-0.0032517067156732,0.0410700216889381,-0.0043732859194278,-0.1394611895084381,1.0,1.0,-0.9880914092063904,-0.5914466381072998
0.0378052704036235,-6.096601646277122e-05,-0.0075648576021194,0.0135192163288593,-0.0067457007244229,-0.0474449023604393,1.0,1.0,-0.9036279320716858,-0.1078210473060607
