x_pos,y_pos,x_vel,y_vel,angle,ang_vel,leg_1,leg_2,main_booster,lat_booster
-0.0015586853260174,1.4034390449523926,-0.1580702662467956,-0.3324978053569793,0.0019742923323065,0.0389603003859519,0.0,0.0,-0.7764105242924311,-0.8046025166465198
-0.0032111168839037,1.3957914113998413,-0.1688295900821685,-0.3399012982845306,0.0055292211472988,0.0711060464382171,0.0,0.0,0.0401725555966656,0.8867405133301318
-0.0047318460419774,1.3883343935012815,-0.1540900468826294,-0.3314336538314819,0.0075189326889812,0.0397976711392402,0.0,0.0,0.0591889728672299,0.8292433933182836
-0.0063157081604003,1.381169080734253,-0.1588678807020187,-0.3184573352336883,0.0079980017617344,0.0095819793641567,0.0,0.0,0.9950398632319556,0.7504044883345041
-0.0077155111357569,1.3750046491622925,-0.1395615637302398,-0.2739807367324829,0.0075905746780335,-0.0081491312012076,0.0,0.0,-0.2914738253513786,0.8144653306393155
-0.009073925204575,1.3686540126800537,-0.1335992515087127,-0.2822380661964416,0.005371434148401,-0.0443870089948177,0.0,0.0,0.950078484593842,-0.9721385670449632
-0.0105796810239553,1.363139510154724,-0.1503895074129104,-0.2450848370790481,0.0051862867549061,-0.0037031825631856,0.0,0.0,0.4854197317993907,-0.85755270513369
-0.0120429042726755,1.3583149909973145,-0.1482436805963516,-0.21442911028862,0.0070784408599138,0.0378466770052909,0.0,0.0,-0.3225484056796555,-0.9373367831023184
-0.0136199947446584,1.3533145189285278,-0.1616948693990707,-0.2222718596458435,0.0110202748328447,0.0788440480828285,0.0,0.0,0.9526217336735454,0.7864783793200582
-0.0151844024658203,1.3494220972061155,-0.1590027064085006,-0.1730124205350875,0.0135542284697294,0.0506835356354713,0.0,0.0,0.929417177981793,-0.9887631954600056
-0.0167633052915334,1.3463869094848633,-0.1627840548753738,-0.1349502503871917,0.0183954909443855,0.0968340709805488,0.0,0.0,-0.3585786555229582,0.7831123658793305
-0.0183125492185354,1.343166708946228,-0.1582097858190536,-0.1431687474250793,0.0216462351381778,0.0650209560990333,0.0,0.0,-0.6928599651296357,0.7703873322532373
-0.0198274608701467,1.3397672176361084,-0.1530414968729019,-0.1511044800281524,0.0231814496219158,0.0307068321853876,0.0,0.0,-0.6606489532836872,0.6583511543202709
-0.0213240627199411,1.336178421974182,-0.1498748958110809,-0.1595129519701004,0.0233989171683788,0.004349862691015,0.0,0.0,-0.1047757456481002,0.9339428093066572
-0.02276954613626,1.3324167728424072,-0.1425979435443878,-0.1671535968780517,0.0214613750576972,-0.038754504173994,0.0,0.0,-0.1083531777187107,0.6625777962196975
-0.0241930969059467,1.3284639120101929,-0.138952150940895,-0.1756364852190017,0.0180981922894716,-0.0672698840498924,0.0,0.0,-0.4102622237578861,0.8761183119195826
-0.0255717281252145,1.3243383169174194,-0.1324284374713897,-0.1833029389381408,0.0127197224646806,-0.1075790375471115,0.0,0.0,0.0657038726948546,0.9508877987776526
-0.026808738708496,0.0,-0.116455078125,-0.1756275743246078,0.0055552879348397,-0.1433015316724777,0.0,0.0,0.707554942422737,0.6716306796406999
-0.0279285423457622,0.0,-0.1037490144371986,-0.1282255947589874,-0.0025777027476578,-0.1626747697591781,0.0,0.0,-0.5502550120658896,0.7247836978563846
-0.0290388111025095,1.314429759979248,-0.1016528755426406,-0.1365131437778473,-0.0118537656962871,-0.1855378001928329,0.0,0.0,-0.9116616332487432,-0.624141948319598
-0.0302283279597759,1.3111798763275146,-0.1106523871421814,-0.1445216983556747,-0.0200548730790615,-0.1640367358922958,0.0,0.0,-0.5580931937721225,0.7471367929685423
-0.0313979163765907,1.3077393770217896,-0.1072357892990112,-0.1530638337135315,-0.0296805240213871,-0.1925301551818847,0.0,0.0,-0.7911459712868298,-0.9765717711199592
-0.032668687403202,1.3041157722473145,-0.1189603209495544,-0.1612290441989898,-0.0376998074352741,-0.1604001373052597,0.0,0.0,-0.2369403525272089,0.7919716704891268
-0.0339101776480674,1.3002948760986328,-0.1143458858132362,-0.1700939238071441,-0.0474037788808345,-0.1940971314907074,0.0,0.0,-0.9978329581863026,-0.7024633708792731
-0.0352607741951942,1.296296000480652,-0.1270660161972046,-0.1779915243387222,-0.0553119219839572,-0.1581767350435257,0.0,0.0,-0.2013548300159535,0.8590995111786084
-0.0366010665893554,1.2920916080474854,-0.1247905641794204,-0.1872334629297256,-0.0644573867321014,-0.1829092800617218,0.0,0.0,-0.4250652546403852,0.6090260678096396
-0.0379337295889854,1.2877020835876465,-0.1228346452116966,-0.1955785602331161,-0.0747726932168006,-0.2063061892986297,0.0,0.0,-0.6400492097536403,0.8919249185934375
-0.0392514243721962,1.28313148021698,-0.1199980750679969,-0.2037677466869354,-0.0864356756210327,-0.2332599908113479,0.0,0.0,-0.0998660820961032,-0.7542513671671744
-0.0406818389892578,1.2783924341201782,-0.1331556737422943,-0.2112243175506591,-0.0962365195155143,-0.1960170567035675,0.0,0.0,0.5250926231614172,0.8758714554160312
-0.0420626625418663,1.274131417274475,-0.1264367401599884,-0.1901762932538986,-0.1077905893325805,-0.2310813963413238,0.0,0.0,-0.201235051486553,0.8255535378176396
-0.0434164032340049,1.2696852684020996,-0.1220555901527404,-0.1986277550458908,-0.1210252866148948,-0.2646937370300293,0.0,0.0,0.981482487250006,-0.7609509005167582
-0.0449076667428016,1.2658627033233645,-0.1371168941259384,-0.1708980500698089,-0.132973775267601,-0.2389698475599289,0.0,0.0,-0.4373532137220466,0.9093692676496636
-0.0463769920170307,1.2618532180786133,-0.1333750635385513,-0.1794681549072265,-0.1464905887842178,-0.2703359425067901,0.0,0.0,-0.3992154956651379,0.9347094961205724
-0.0478221885859966,1.2576379776000977,-0.1292852908372879,-0.1889102607965469,-0.1616969555616378,-0.3041275143623352,0.0,0.0,-0.2292100922058082,-0.6151222444805621
-0.0493538863956928,1.2532529830932615,-0.1391579508781433,-0.196481242775917,-0.1757271438837051,-0.2806043028831482,0.0,0.0,0.9420548399738408,0.9798508738877144
-0.0506695732474327,1.249979019165039,-0.1156475096940994,-0.1474700570106506,-0.1917095333337783,-0.31964772939682,0.0,0.0,-0.9750563978333052,-0.7599413953405023
-0.0520869269967079,1.2465368509292605,-0.1274041831493377,-0.1549067944288253,-0.2061432301998138,-0.2886736392974853,0.0,0.0,-0.9718566284918916,0.7684288093587054
-0.0534798614680767,1.2428983449935913,-0.1233298555016517,-0.1640203297138214,-0.2222649604082107,-0.3224349915981293,0.0,0.0,0.233396918272096,-0.632393789395014
-0.0548528656363487,1.2400319576263428,-0.1225401982665062,-0.1296847015619278,-0.2372185140848159,-0.2990709245204925,0.0,0.0,0.8321344308896579,0.6198740360668501
-0.0560258850455284,1.2379380464553833,-0.1014084815979003,-0.0957127138972282,-0.2534025609493255,-0.3236809372901916,0.0,0.0,-0.9030001859184528,0.6872733656951526
-0.0571934692561626,1.2356513738632202,-0.0997384041547775,-0.1046706885099411,-0.2707994282245636,-0.3479368686676025,0.0,0.0,-0.6072885990142822,-0.9952016472816468
-0.0584601387381553,1.233205795288086,-0.111184261739254,-0.1116375178098678,-0.2866778671741485,-0.3175696730613708,0.0,0.0,-0.6716301441192627,-0.8877907395362854
-0.0598231330513954,1.2305933237075806,-0.122259221971035,-0.1189300268888473,-0.3011445701122284,-0.2893339097499847,0.0,0.0,-0.6606112718582153,-0.9501959085464478
-0.0612839683890342,1.2278242111206057,-0.1335841864347458,-0.1257186532020568,-0.3140965104103088,-0.2590389847755432,0.0,0.0,-0.5392681360244751,-0.4718499183654785
-0.0627824813127517,1.2248719930648804,-0.1373014152050018,-0.1339804679155349,-0.3271535336971283,-0.2611402869224548,0.0,0.0,-0.1978952288627624,-0.6138074994087219
-0.0643620491027832,1.221752405166626,-0.1464457213878631,-0.1412994563579559,-0.3391710817813873,-0.2403507232666015,0.0,0.0,0.2172170877456665,-0.8641066551208496
-0.0658852607011795,1.2189185619354248,-0.1424636542797088,-0.128297820687294,-0.3495151400566101,-0.2068803012371063,0.0,0.0,0.5116790533065796,-0.2463287115097046
-0.0672804862260818,1.217029094696045,-0.1291307061910629,-0.086533673107624,-0.360459566116333,-0.2188883274793625,0.0,0.0,0.2327276468276977,-0.1493374705314636
-0.0685971230268478,1.215834140777588,-0.120754100382328,-0.055889468640089,-0.3719924688339233,-0.2306576073169708,0.0,0.0,0.7860409021377563,-0.7243839502334595
-0.0698263198137283,1.2152669429779053,-0.1132787019014358,-0.0277525745332241,-0.3822267055511474,-0.2046850472688675,0.0,0.0,0.4649598598480224,-0.9403637647628784
-0.0708363503217697,1.21518075466156,-0.093188926577568,-0.0059451549313962,-0.3905375301837921,-0.1662167459726333,0.0,0.0,0.2967103719711303,-0.936855673789978
-0.0717756301164627,1.215790033340454,-0.0878124684095382,0.0253828708082437,-0.397076666355133,-0.1307830512523651,0.0,0.0,-0.6008710861206055,-0.9194619655609132
-0.0728052109479904,1.216244339942932,-0.098161406815052,0.0188471991568803,-0.4022180140018463,-0.102827213704586,0.0,0.0,-0.5927618741989136,-0.8910472989082336
-0.0739304572343826,1.2165626287460327,-0.1093141660094261,0.0132299242541193,-0.4056704640388489,-0.0690492987632751,0.0,0.0,-0.5640836954116821,-0.6262115240097046
-0.0751237869262695,1.2167160511016846,-0.1168772131204605,0.0061139008030295,-0.408310204744339,-0.0527946352958679,0.0,0.0,-0.3591045141220093,-0.863571286201477
-0.0764230713248252,1.2167280912399292,-0.1292395740747451,0.0003377865650691,-0.4090461730957031,-0.0147191137075424,0.0,0.0,-0.3891590237617492,-0.8461787104606628
-0.0778038054704666,1.2165961265563965,-0.1386127322912216,-0.0057138954289257,-0.4084600508213043,0.0117226717993617,0.0,0.0,-0.8473314642906189,-0.4322131872177124
-0.0792160034179687,1.2162792682647705,-0.1416104733943939,-0.0139653030782938,-0.4080449044704437,0.0083029028028249,0.0,0.0,-0.4804545640945434,-0.5500799417495728
-0.0806921944022178,1.2158055305480957,-0.1487842202186584,-0.0207184720784425,-0.4067985415458679,0.0249273292720317,0.0,0.0,-0.6772094368934631,-0.6252048015594482
-0.0822479277849197,1.2151851654052734,-0.1579239517450332,-0.0269007012248039,-0.4042638838291168,0.0506931766867637,0.0,0.0,-0.6256517767906189,-0.5492576956748962
-0.0838706046342849,1.2143990993499756,-0.1654199212789535,-0.0340379998087883,-0.4008754193782806,0.0677690654993057,0.0,0.0,-0.003285527229309,-0.217980682849884
-0.0855218917131424,1.2134284973144531,-0.1681219637393951,-0.0422905534505844,-0.3976699113845825,0.0641103386878967,0.0,0.0,-0.8856456279754639,0.0551705360412597
-0.0872011184692382,1.2122734785079956,-0.1707447618246078,-0.0505430549383163,-0.3946498930454254,0.0604003295302391,0.0,0.0,-0.6499321460723877,-0.1292575597763061
-0.0889074355363845,1.2109341621398926,-0.1732864826917648,-0.0587955042719841,-0.3918178081512451,0.0566419549286365,0.0,0.0,-0.6669741868972778,-0.2239088416099548
-0.0906401649117469,1.2094101905822754,-0.175745353102684,-0.0670479089021682,-0.3891759216785431,0.0528377816081047,0.0,0.0,-0.7550172805786133,0.4836307764053345
-0.0923983603715896,1.2077019214630127,-0.1781197488307953,-0.075300246477127,-0.3867264091968536,0.0489903278648853,0.0,0.0,-0.4572284817695617,0.6668883562088013
-0.0941289886832237,1.2057853937149048,-0.1738559305667877,-0.0849581435322761,-0.3858866393566131,0.0167953111231327,0.0,0.0,0.2377439737319946,0.4898412227630615
-0.0957441329956054,1.2039542198181152,-0.1623794287443161,-0.0811488553881645,-0.384958803653717,0.0185567699372768,0.0,0.0,-0.5429632663726807,0.1938869953155517
-0.0973821654915809,1.201938509941101,-0.1644918471574783,-0.0894008502364158,-0.3842291831970215,0.014592376537621,0.0,0.0,-0.2988373637199402,-0.2812044024467468
-0.0990423187613487,1.199738383293152,-0.1665146946907043,-0.0976528599858284,-0.3836995363235473,0.0105928750708699,0.0,0.0,-0.3801082372665405,-0.0415596961975097
-0.1007237434387207,1.197353720664978,-0.1684471219778061,-0.1059048920869827,-0.3833715319633484,0.0065600113011896,0.0,0.0,0.5025067329406738,-0.3138934373855591
-0.1021878272294998,1.1955561637878418,-0.1466429382562637,-0.0798289105296135,-0.3831174075603485,0.005082425661385,0.0,0.0,-0.5659275650978088,0.2317234277725219
-0.1036712676286697,1.1935739517211914,-0.1483926177024841,-0.0880810171365737,-0.3830680251121521,0.0009877693373709,0.0,0.0,0.338442325592041,-0.0834740400314331
-0.1049430817365646,1.1920249462127686,-0.1273004710674286,-0.0688193216919899,-0.3829495012760162,0.0023705787025392,0.0,0.0,-0.4126662611961365,0.242527961730957
-0.1062326431274414,1.190291404724121,-0.1288660913705825,-0.0770715177059173,-0.3830385208129883,-0.0017801044741645,0.0,0.0,-0.5083025693893433,-0.5132128000259399
-0.107573315501213,1.1883883476257324,-0.1346708983182907,-0.0844203978776931,-0.3824044466018677,0.0126816555857658,0.0,0.0,-0.605161190032959,0.3206795454025268
-0.1089299172163009,1.1863008737564087,-0.1360527127981186,-0.0926726832985878,-0.3819804191589355,0.0084802554920315,0.0,0.0,-0.2798408269882202,-0.3414913415908813
-0.1103013008832931,1.1840287446975708,-0.1373431980609893,-0.100924976170063,-0.3817676603794098,0.0042552752420306,0.0,0.0,0.0166685581207275,-0.7202602028846741
-0.1114975959062576,1.1822775602340698,-0.121064580976963,-0.0774480029940605,-0.3802430331707001,0.0304927192628383,0.0,0.0,-0.3731300830841064,-0.0604735612869262
-0.1127070412039756,1.1803419589996338,-0.1221746206283569,-0.0857004970312118,-0.3789318203926086,0.0262241326272487,0.0,0.0,-0.5681498050689697,-0.3934288620948791
-0.113928698003292,1.178221583366394,-0.1231958046555519,-0.0939529687166214,-0.377835065126419,0.021935362368822,0.0,0.0,0.1068227291107177,-0.422200858592987
-0.114941120147705,1.176640510559082,-0.1021967157721519,-0.0700241774320602,-0.3768287301063537,0.0201265402138233,0.0,0.0,-0.2208516597747802,-0.6499933004379272
-0.1160196289420127,1.174907684326172,-0.1100626140832901,-0.0764275789260864,-0.3744747042655945,0.0470806024968624,0.0,0.0,-0.5754619836807251,-0.2511330842971802
-0.1171076744794845,1.1729906797409058,-0.1108255162835121,-0.0846803560853004,-0.3723378181457519,0.0427372679114341,0.0,0.0,0.0324598550796508,0.2519737482070923
-0.1180526763200759,1.171503663063049,-0.096270278096199,-0.0656241029500961,-0.3704535067081451,0.037685602903366,0.0,0.0,-0.2703603506088257,-0.6534571051597595
-0.1190464943647384,1.169856309890747,-0.1020432114601135,-0.0725314244627952,-0.3676380515098572,0.056308913975954,0.0,0.0,-0.5638625621795654,-0.6847049593925476
-0.1200974434614181,1.1680461168289185,-0.1088239103555679,-0.0794982388615608,-0.3636976182460785,0.0788086131215095,0.0,0.0,0.0300167798995971,-0.3364672660827636
-0.1210115402936935,1.1663726568222046,-0.0951848626136779,-0.0734187439084053,-0.3597098290920257,0.0797559022903442,0.0,0.0,-0.7483085989952087,-0.4941204786300659
-0.1219313591718673,1.1645150184631348,-0.0955538153648376,-0.081672191619873,-0.355942815542221,0.0753404721617698,0.0,0.0,-0.7164907455444336,0.2041748762130737
-0.1228562369942665,1.1624730825424194,-0.0958505421876907,-0.0899254530668258,-0.3523971140384674,0.0709133520722389,0.0,0.0,-0.6664040684700012,-0.0991227626800537
-0.1237853020429611,1.1602466106414795,-0.0960775762796402,-0.0981785580515861,-0.3490733504295349,0.0664754286408424,0.0,0.0,-0.412026047706604,-0.1928001046180725
-0.1247180923819542,1.1578359603881836,-0.0962375625967979,-0.1064314842224121,-0.3459719717502594,0.0620276033878326,0.0,0.0,-0.7244147062301636,0.4536043405532837
-0.125653937458992,1.1552408933639526,-0.0963332131505012,-0.1146842539310455,-0.3430934250354767,0.0575707368552684,0.0,0.0,-0.5198448896408081,0.1952466964721679
-0.1265923529863357,1.152461290359497,-0.0963673219084739,-0.1229368820786476,-0.3404381275177002,0.0531057529151439,0.0,0.0,-0.466540515422821,-0.0126351118087768
-0.1275324821472168,1.1494972705841064,-0.0963427647948265,-0.1311893910169601,-0.3380064368247986,0.0486336536705493,0.0,0.0,-0.4921490550041199,-0.2835383415222168
-0.1284740418195724,1.1463488340377808,-0.0962624996900558,-0.1394417732954025,-0.3357986509799957,0.0441551990807056,0.0,0.0,-0.0819476842880249,0.2664566040039062
-0.1294163763523101,1.1430158615112305,-0.0961294695734977,-0.1476940512657165,-0.3338150680065155,0.0396715439856052,0.0,0.0,0.5156309604644775,0.0297220945358276
-0.130227655172348,1.1405885219573977,-0.0823133736848831,-0.1076036468148231,-0.332584023475647,0.0246210508048534,0.0,0.0,-0.3618839979171753,-0.4654433131217956
-0.1310388594865799,1.1379767656326294,-0.0820839554071426,-0.1158555820584297,-0.3315775394439697,0.0201297923922538,0.0,0.0,-0.1656566858291626,-0.7561455965042114
-0.1319094598293304,1.135217308998108,-0.0894284695386886,-0.1221017837524414,-0.3291064798831939,0.049421302974224,0.0,0.0,-0.2139765620231628,-0.3649827837944031
-0.1327790319919586,1.1322733163833618,-0.0891153365373611,-0.1303540468215942,-0.3268601596355438,0.0449265167117118,0.0,0.0,-0.2728666663169861,0.5629739761352539
-0.1336074769496917,1.129122614860535,-0.0837257206439971,-0.1398331224918365,-0.3259432017803192,0.0183389466255903,0.0,0.0,0.5144387483596802,-0.2795243859291076
-0.1343589723110199,1.1266220808029177,-0.0753434970974922,-0.111092522740364,-0.3257456719875335,0.0039507593028247,0.0,0.0,0.3702664375305176,-0.5055878758430481
-0.1351350843906402,1.1246368885040283,-0.0782682076096534,-0.0880783349275589,-0.3250606954097748,0.0136996489018201,0.0,0.0,-0.5864119529724121,0.5241372585296631
-0.1358622610569,1.1224470138549805,-0.0719556510448455,-0.0975033119320869,-0.3258554637432098,-0.015895128250122,0.0,0.0,-0.2394869923591613,-0.3332606554031372
-0.1365868598222732,1.120072364807129,-0.0714876800775528,-0.1057550534605979,-0.3268744051456451,-0.0203787088394165,0.0,0.0,-0.251882255077362,0.454912781715393
-0.1373087912797927,1.1175132989883425,-0.0709982812404632,-0.1140068471431732,-0.3281172215938568,-0.0248562656342983,0.0,0.0,-0.2640250921249389,0.159657597541809
-0.1380277574062347,1.1147695779800415,-0.0704906061291694,-0.122258685529232,-0.3295835256576538,-0.0293263606727123,0.0,0.0,-0.5762116312980652,-0.1066718101501464
-0.138743594288826,1.111841320991516,-0.0699677765369415,-0.1305105835199356,-0.3312728703022003,-0.0337875299155712,0.0,0.0,0.623971700668335,-0.195645272731781
-0.1392001211643219,1.109500288963318,-0.0441415533423423,-0.1043958961963653,-0.3328379392623901,-0.031301200389862,0.0,0.0,0.2573978900909424,-0.6084088087081909
-0.1394996643066406,1.107887625694275,-0.029437368735671,-0.0717927515506744,-0.3333847224712372,-0.0109354630112648,0.0,0.0,-0.7130705118179321,-0.8925760388374329
-0.13985376060009,1.106128811836243,-0.0362533777952194,-0.0779744237661361,-0.3325026631355285,0.017641307786107,0.0,0.0,-0.0643242001533508,-0.1869155168533325
-0.1402043402194976,1.1041854619979858,-0.0357006415724754,-0.0862262099981308,-0.3318410515785217,0.0132323130965232,0.0,0.0,-0.6118373274803162,-0.7981058955192566
-0.1406227052211761,1.1020958423614502,-0.0441390052437782,-0.0923483744263649,-0.3294344842433929,0.0481312051415443,0.0,0.0,-0.8246440291404724,-0.2403059005737304
-0.1410376578569412,1.0998215675354004,-0.0435896702110767,-0.1006004512310028,-0.3272464871406555,0.0437595918774604,0.0,0.0,-0.3020012378692627,-0.6962076425552368
-0.1415029466152191,1.097389817237854,-0.0498396307229995,-0.1073339208960533,-0.3238033354282379,0.0688632577657699,0.0,0.0,0.2028815746307373,-0.3861628770828247
-0.1418234854936599,1.095317006111145,-0.0352382883429527,-0.0914216861128807,-0.3204890489578247,0.0662864744663238,0.0,0.0,-0.6123063564300537,-0.121389627456665
-0.1421408653259277,1.093059539794922,-0.0347158722579479,-0.0996739119291305,-0.3173896372318268,0.0619883127510547,0.0,0.0,-0.7605198621749878,-0.39121013879776
-0.1424551010131836,1.0906176567077637,-0.0342080034315586,-0.1079259365797042,-0.3145036399364471,0.0577200427651405,0.0,0.0,-0.3433767557144165,0.5957221984863281
-0.1427187919616699,1.087973952293396,-0.027736997231841,-0.1172073557972908,-0.3130885362625122,0.0283023323863744,0.0,0.0,-0.0686991810798645,-0.1428152322769165
