x_pos,y_pos,x_vel,y_vel,angle,ang_vel,leg_1,leg_2,main_booster,lat_booster
-0.0015232085715979,1.4030492305755615,-0.1543073952198028,-0.3498184978961944,0.0017795542953535,0.0351046361029148,0.0,0.0,0.23209300801397,0.6343938610519937
-0.0029537200462073,1.3951393365859983,-0.1436265408992767,-0.3515504598617553,0.0023458253126591,0.0113273486495018,0.0,0.0,-0.0278816412691897,0.6278494378132012
-0.0043232915922999,1.386649250984192,-0.1360050588846206,-0.377337247133255,0.001403164351359,-0.0188547484576702,0.0,0.0,-0.1096383087640848,0.7551123100493466
-0.0056444169022142,1.3775815963745115,-0.1299511492252349,-0.4030107259750366,-0.0007305272156372,-0.0426778420805931,0.0,0.0,0.4631653511692468,-0.970155918331145
-0.0069098472595214,1.3688077926635742,-0.1264799535274505,-0.3899444341659546,-0.0007999856607057,-0.001389164943248,0.0,0.0,0.0468837831295296,-0.7349339545750688
-0.0081317899748682,1.359973669052124,-0.1236932054162025,-0.3926253616809845,0.0006760561955161,0.0295238438993692,0.0,0.0,0.0711650277750983,0.9762451931626044
-0.0092937471345067,1.351125955581665,-0.1157426685094833,-0.3932299315929413,0.0002286038798047,-0.0089498925954103,0.0,0.0,0.0624254312550529,-0.9216166582195124
-0.0104131698608398,1.342329740524292,-0.113349363207817,-0.3909451067447662,0.0016205871943384,0.0278421752154827,0.0,0.0,0.7166125296320156,-0.7168564096360595
-0.0116030694916844,1.3342701196670532,-0.1218026131391525,-0.3582137525081634,0.0044063702225685,0.0557208843529224,0.0,0.0,-0.9243110516661786,0.8203273143800108
-0.0127272605895996,1.3256404399871826,-0.1136002913117408,-0.3835394084453583,0.0055756317451596,0.023387249559164,0.0,0.0,0.683344108200491,0.7519886310873363
-0.0136979101225733,1.3173459768295288,-0.0969590246677398,-0.3686369359493255,0.0054661347530782,-0.0021902122534811,0.0,0.0,0.049871684193171,-0.8061734967772806
-0.0146802905946969,1.3089779615402222,-0.0997701287269592,-0.3719176948070526,0.0069869700819253,0.0304194800555706,0.0,0.0,-0.3110817880150116,-0.7891129404635996
-0.0157099720090627,1.30003821849823,-0.1057618856430053,-0.3973360061645508,0.0097398785874247,0.0550631359219551,0.0,0.0,-0.1198841768460061,-0.7748942804037476
-0.0167925842106342,1.290515422821045,-0.1124147176742553,-0.4232682287693023,0.0138600124046206,0.0824103057384491,0.0,0.0,0.5061731265835205,0.7407187661241947
-0.0176835060119628,1.2815566062927246,-0.0920362472534179,-0.3982013761997223,0.0167785007506608,0.0583747737109661,0.0,0.0,0.419899709525422,0.8413397458824142
-0.0184042938053607,1.27239990234375,-0.0734970942139625,-0.4069784581661224,0.0181747917085886,0.0279283039271831,0.0,0.0,-0.1180090917490221,0.7702186791118794
-0.019049072638154,1.2626789808273315,-0.0639887824654579,-0.432033360004425,0.0176993161439895,-0.0095103858038783,0.0,0.0,-0.7155403221358951,0.7296221601704034
-0.0196208003908395,1.2523785829544067,-0.0548881776630878,-0.4577713012695312,0.0154409362003207,-0.0451718606054782,0.0,0.0,-0.9490137315220476,0.6865705877823249
-0.0201277732849121,1.241510987281799,-0.0468278266489505,-0.4829708039760589,0.0116065852344036,-0.0766939297318458,0.0,0.0,0.86120864566266,-0.8467461644309625
-0.0208071712404489,1.2310211658477783,-0.0655616074800491,-0.4661953151226043,0.0092616295441985,-0.0469034276902675,0.0,0.0,0.8674748366976042,-0.6735472333912553
-0.0213903430849313,1.2212371826171875,-0.0576971843838691,-0.4348439574241638,0.0086500290781259,-0.0122330654412508,0.0,0.0,-0.6478379757448731,0.8019352524922814
-0.0219070427119731,1.210874080657959,-0.0494136475026607,-0.4605737626552582,0.0064199659973382,-0.044605053961277,0.0,0.0,0.4107336002864366,0.6774065702898077
-0.0222487449645996,1.200633883476257,-0.0307974629104137,-0.4551053941249847,0.0030769454315304,-0.0668665841221809,0.0,0.0,-0.1825085319728134,0.6241449407529678
-0.0225335117429494,1.189811944961548,-0.0236969180405139,-0.4809746742248535,-0.0016438156599178,-0.0944236144423484,0.0,0.0,0.6137112349528278,-0.7264403322819849
-0.023024845868349,1.179360270500183,-0.0455327220261096,-0.4645206332206726,-0.0052153063006699,-0.0714357122778892,0.0,0.0,-0.6841787928538203,0.7101491066415071
-0.023471737280488,1.1683156490325928,-0.0400011017918586,-0.4908989667892456,-0.0098509294912219,-0.0927121490240097,0.0,0.0,0.7019639336083205,-0.6497501771576312
-0.0239565856754779,1.157823085784912,-0.0451096817851066,-0.4663590490818023,-0.0131781008094549,-0.0665433853864669,0.0,0.0,0.4116360592597479,-0.6507187663167127
-0.0246044155210256,1.1478232145309448,-0.0624898187816143,-0.4444574415683746,-0.0154404956847429,-0.0452480055391788,0.0,0.0,-0.4486349048967408,-0.9342558264493536
-0.025340175256133,1.1372580528259275,-0.0735785961151123,-0.4695653319358825,-0.0154358446598052,9.313144255429506e-05,0.0,0.0,0.1555474584838965,0.8947187396108265
-0.0260149948298931,1.1266244649887085,-0.0656909123063087,-0.4726230502128601,-0.0172104742377996,-0.0354924723505973,0.0,0.0,-0.0644634940482744,-0.803815651359988
-0.0267494209110736,1.1154264211654663,-0.0732207670807838,-0.4976983070373535,-0.0174296293407678,-0.0043830657377839,0.0,0.0,-0.4716915260930208,-0.9596686703072526
-0.0275676734745502,1.103649616241455,-0.0837921425700187,-0.523388683795929,-0.0154880750924348,0.0388309732079505,0.0,0.0,0.6655632025221696,-0.9533059526308624
-0.0285403244197368,1.0925228595733645,-0.1010291576385498,-0.4944952726364136,-0.0117694279178977,0.074372574687004,0.0,0.0,0.2174085097873255,-0.9517868389826928
-0.0296381004154682,1.081213355064392,-0.1154536455869674,-0.5026134252548218,-0.0061694444157183,0.1119997054338455,0.0,0.0,-0.1904948993016499,0.9154535271491008
-0.0306594856083393,1.0693299770355225,-0.1059204712510109,-0.528136134147644,-0.0024331463500857,0.0747259706258773,0.0,0.0,-0.1852197325760733,0.6360452849072782
-0.0316268913447856,1.0568761825561523,-0.0992154330015182,-0.5535024404525757,6.041960205038777e-06,0.0487836599349975,0.0,0.0,0.952908820555192,-0.7650904937125277
-0.0326865203678607,1.0446505546569824,-0.1098999381065368,-0.5433641672134399,0.0038952524773776,0.0777842923998832,0.0,0.0,0.7544574624978029,0.6010631656521556
-0.0336562171578407,1.0330674648284912,-0.0998154953122139,-0.5148106217384338,0.0067062778398394,0.0562204122543334,0.0,0.0,-0.5005919586084231,-0.891023541185102
-0.0346989631652832,1.020918607711792,-0.1090448871254921,-0.5399801135063171,0.0114102996885776,0.0940805226564407,0.0,0.0,0.438472961613835,0.6172015230839332
-0.0356699936091899,1.0089905261993408,-0.1006862297654151,-0.5301653146743774,0.0149487145245075,0.0707684159278869,0.0,0.0,0.5486102232606165,0.9067641994340752
-0.0366909019649028,0.9975886344909668,-0.103713072836399,-0.50676429271698,0.016545683145523,0.0319394394755363,0.0,0.0,-0.9789043664932252,0.2452254295349121
-0.0377098098397254,0.9856116771697998,-0.1035118699073791,-0.5323310494422913,0.0181481298059225,0.0320490077137947,0.0,0.0,-0.997979700565338,0.6151680946350098
-0.038669966161251,0.9730542302131652,-0.0962095409631729,-0.5581141710281372,0.0183356404304504,0.0037503032945096,0.0,0.0,-0.9804879426956176,0.3262343406677246
-0.0396281257271766,0.959921419620514,-0.0960079804062843,-0.5836808085441589,0.0185284689068794,0.0038564149290323,0.0,0.0,-0.950739324092865,0.2087059020996093
-0.0405841842293739,0.94621342420578,-0.0958063527941703,-0.6092473268508911,0.0187264904379844,0.0039604562334716,0.0,0.0,-0.9968778491020204,-0.0163463950157165
-0.0415381416678428,0.9319301843643188,-0.0956047624349594,-0.6348139047622681,0.0189296063035726,0.0040622553788125,0.0,0.0,-0.8739873766899109,0.429988145828247
-0.0424901023507118,0.9170715808868408,-0.0954032763838768,-0.660380482673645,0.0191376972943544,0.0041617220267653,0.0,0.0,-0.9437173008918762,-0.6605057120323181
-0.0435020439326763,0.9016432166099548,-0.102991797029972,-0.6857311129570007,0.0209087897092103,0.0354219526052475,0.0,0.0,-0.9588770866394044,0.1001681089401245
-0.044511891901493,0.8856396675109863,-0.1027907952666282,-0.7112979888916016,0.0226845797151327,0.0355160795152187,0.0,0.0,-0.7314273118972778,-0.1458393335342407
-0.0455197319388389,0.869060754776001,-0.1025901660323143,-0.7368648052215576,0.0244649425148963,0.0356072075664997,0.0,0.0,-0.9618419408798218,0.1159719228744506
-0.0465255752205848,0.8519067764282227,-0.1023899763822555,-0.7624315619468689,0.0262496937066316,0.0356950797140598,0.0,0.0,0.1051557064056396,0.5621840953826904
-0.0475405678153038,0.834920346736908,-0.1021115332841873,-0.7549659013748169,0.0268488377332687,0.0119830342009663,0.0,0.0,-0.1051836013793945,0.0837198495864868
-0.0485535636544227,0.817358672618866,-0.1019124984741211,-0.7805325388908386,0.027452016249299,0.0120636671781539,0.0,0.0,-0.0465463399887084,0.3467752933502197
-0.0495646484196186,0.7992217540740967,-0.1017141789197921,-0.8060991168022156,0.0280590411275625,0.0121403094381093,0.0,0.0,0.7867171764373779,0.8835362195968628
-0.0503399856388568,0.7813071608543396,-0.0766952112317085,-0.7961828112602234,0.027223227545619,-0.0167162977159023,0.0,0.0,0.7040023803710938,0.2214845418930053
-0.0512251853942871,0.763542115688324,-0.0872097685933113,-0.789532482624054,0.0259349346160888,-0.025766298174858,0.0,0.0,0.7968813180923462,0.8099600076675415
-0.0519546493887901,0.7465159893035889,-0.0702334195375442,-0.7566706538200378,0.0232595670968294,-0.0535074695944786,0.0,0.0,0.6029579639434814,-0.3525125980377197
-0.052563477307558,0.7299007773399353,-0.0587995275855064,-0.7384272813796997,0.0212064757943153,-0.0410620346665382,0.0,0.0,-0.1761776804924011,-0.6441912651062012
-0.0532151237130165,0.7127154469490051,-0.0642166286706924,-0.763778567314148,0.0202776063233613,-0.0185774825513362,0.0,0.0,0.1278114318847656,-0.2495293617248535
-0.0539276115596294,0.6957577466964722,-0.0700647234916687,-0.7536588311195374,0.019110532477498,-0.0233416371047496,0.0,0.0,0.1232266426086425,0.4194678068161011
-0.054608155041933,0.67860347032547,-0.0670373290777206,-0.7624021172523499,0.0181064363569021,-0.0200814865529537,0.0,0.0,-0.3690712451934814,0.9550118446350098
-0.0552237518131732,0.6608807444572449,-0.058950949460268,-0.7876529097557068,0.0155206900089979,-0.0517150163650512,0.0,0.0,0.8139725923538208,0.1415960788726806
-0.0557107925415039,0.6434373259544373,-0.0467183701694011,-0.775235116481781,0.0135636208578944,-0.0391413420438766,0.0,0.0,0.3346939086914062,-0.2151054143905639
-0.0561836250126361,0.626162052154541,-0.0453875847160816,-0.7677769064903259,0.0116956429556012,-0.0373594500124454,0.0,0.0,0.6924023628234863,0.5991880893707275
-0.0566032417118549,0.6089240312576294,-0.0388881675899028,-0.7661150097846985,0.0086585506796836,-0.0607418343424797,0.0,0.0,0.4532423019409179,-0.0860687494277954
-0.0571344383060932,0.5918893218040466,-0.0495321825146675,-0.7570854425430298,0.0051180715672671,-0.0708094909787178,0.0,0.0,0.4647667407989502,0.3756055831909179
-0.0576486587524414,0.575417697429657,-0.0479230359196662,-0.7320643067359924,0.0016656321240589,-0.0690488368272781,0.0,0.0,0.4427722692489624,0.6635193824768066
-0.0580301284790039,0.5587465167045593,-0.033466063439846,-0.7409424185752869,-0.0029548616148531,-0.0924097001552581,0.0,0.0,0.3840302228927612,0.6162533760070801
-0.0583340637385845,0.5425800681114197,-0.0245220158249139,-0.7185343503952026,-0.0087517965584993,-0.11593858897686,0.0,0.0,0.0128285884857177,0.1433578729629516
-0.0586914047598838,0.5262748003005981,-0.0295914262533187,-0.7247266173362732,-0.0148167116567492,-0.1212982907891273,0.0,0.0,0.3924286365509033,-0.6749047040939331
-0.0591774955391883,0.5102565288543701,-0.0436672903597354,-0.7119806408882141,-0.0196942128241062,-0.0975501760840416,0.0,0.0,0.4133234024047851,-0.0293374061584472
-0.0596250519156456,0.4944609403610229,-0.0399397388100624,-0.7020961046218872,-0.0244518388062715,-0.0951524600386619,0.0,0.0,0.0835084915161132,0.1541643142700195
-0.0601418502628803,0.4789241552352905,-0.0464669428765773,-0.6906202435493469,-0.0296024624258279,-0.1030123978853225,0.0,0.0,0.8340339660644531,-0.3797763586044311
-0.0605565086007118,0.4637699127197265,-0.0366320088505744,-0.6736243963241577,-0.0343783013522625,-0.0955166593194007,0.0,0.0,0.8085904121398926,-0.4202653765678406
-0.0609917640686035,0.4486844539642334,-0.0385136380791664,-0.670587420463562,-0.0393277294933795,-0.0989885851740837,0.0,0.0,0.6067287921905518,0.6479177474975586
-0.0612900741398334,0.4334838390350342,-0.023675862699747,-0.675754189491272,-0.0454099103808403,-0.1216435581445694,0.0,0.0,0.8128377199172974,-0.8071363568305969
-0.0616720207035541,0.4182654619216919,-0.0335805714130401,-0.6765220165252686,-0.049967173486948,-0.091145247220993,0.0,0.0,0.9643179178237916,-0.1257396936416626
-0.0620151534676551,0.4038856029510498,-0.0296620018780231,-0.639265775680542,-0.0545742884278297,-0.0921421945095062,0.0,0.0,0.8540239334106445,-0.3533011674880981
-0.0622172355651855,0.3902945518493652,-0.0159679520875215,-0.6042057871818542,-0.0587699823081493,-0.0839139372110366,0.0,0.0,-0.3913912773132324,-0.3656442165374756
-0.062417984008789,0.3761285543441772,-0.0158223249018192,-0.6297739148139954,-0.0629700273275375,-0.0840009599924087,0.0,0.0,0.4948753118515014,-0.6328190565109253
-0.0627762824296951,0.361846387386322,-0.0325754880905151,-0.6349030137062073,-0.0661874115467071,-0.0643474757671356,0.0,0.0,0.8794565200805664,-0.3350316286087036
-0.0630279555916786,0.3483304977416992,-0.0221216063946485,-0.6008437871932983,-0.0691973716020584,-0.0601993277668952,0.0,0.0,0.8914754390716553,-0.3465985059738159
-0.0633483901619911,0.335237443447113,-0.0284594390541315,-0.5820813775062561,-0.0727490782737732,-0.0710340812802314,0.0,0.0,0.809899091720581,-0.5700991749763489
-0.063722513616085,0.3226945102214813,-0.0347856469452381,-0.5575942993164062,-0.0753447189927101,-0.051913071423769,0.0,0.0,0.2923148870468139,0.4592678546905517
-0.064063549041748,0.31039559841156,-0.0314283929765224,-0.5467551946640015,-0.0779891461133956,-0.0528886802494525,0.0,0.0,0.5586128234863281,-0.7235695719718933
-0.0643274337053299,0.2983385324478149,-0.0253348294645547,-0.5359248518943787,-0.0790263265371322,-0.0207437071949243,0.0,0.0,0.9150466918945312,-0.4820455908775329
-0.064531423151493,0.2862963676452636,-0.019471101462841,-0.5352602005004883,-0.0799422785639762,-0.0183190125972032,0.0,0.0,0.8343584537506104,0.2374727725982666
-0.0645958930253982,0.2743349969387054,-0.0059981704689562,-0.5316411256790161,-0.0803878009319305,-0.0089102527126669,0.0,0.0,0.7822620868682861,-0.7990590333938599
-0.0644992813467979,0.2627058029174804,0.0081634754315018,-0.5167705416679382,-0.0789025872945785,0.0297039151191711,0.0,0.0,0.4089354276657104,-0.0899629592895507
-0.0642565712332725,0.2509903907775879,0.0222187153995037,-0.5205801129341125,-0.0768737569451332,0.0405768007040023,0.0,0.0,0.787622332572937,-0.6342245936393738
-0.0640069022774696,0.2399266809225082,0.0216696728020906,-0.4915555715560913,-0.0736034289002418,0.0654063746333122,0.0,0.0,0.2639899253845215,-0.1213002204895019
-0.0636899024248123,0.2291533499956131,0.028288085013628,-0.4786491394042969,-0.0702301263809204,0.0674659460783004,0.0,0.0,0.3744697570800781,-0.2471616268157959
-0.0632297545671463,0.2186244279146194,0.0421296432614326,-0.4677727520465851,-0.0663841441273689,0.0769197195768356,0.0,0.0,0.4097204208374023,-0.6167885661125183
-0.0627051368355751,0.2079264968633651,0.0471365712583065,-0.4752372205257416,-0.0611260756850242,0.1051615923643112,0.0,0.0,0.4318776130676269,-0.1256926655769348
-0.0621983520686626,0.1973186135292053,0.0455871038138866,-0.4712611436843872,-0.0560854338109493,0.1008128076791763,0.0,0.0,0.5925548076629639,0.0683896541595459
-0.0615626350045204,0.187374547123909,0.0580971240997314,-0.4417631030082702,-0.0506742745637893,0.1082230806350708,0.0,0.0,-0.1595767140388488,-0.4888315796852112
-0.0609261505305767,0.1768556386232376,0.0581740513443946,-0.4673321545124054,-0.0452700108289718,0.1080852001905441,0.0,0.0,0.5623340606689453,-0.3320217728614807
-0.0603725425899028,0.1668970733880996,0.0504489168524742,-0.4424630105495453,-0.0404170826077461,0.0970586985349655,0.0,0.0,0.4590493440628052,0.0320590734481811
-0.0597166046500206,0.15728260576725,0.060330219566822,-0.4271765053272247,-0.0352155603468418,0.1040303111076355,0.0,0.0,0.1149630546569824,0.1198893785476684
-0.0590783134102821,0.1478541642427444,0.0587372183799743,-0.4189301431179046,-0.0301882289350032,0.1005465984344482,0.0,0.0,0.1099573373794555,-0.6063333749771118
-0.0585343353450298,0.1386145651340484,0.0481863766908645,-0.4105388224124908,-0.024053007364273,0.1227046027779579,0.0,0.0,0.4818592071533203,0.3104472160339355
-0.0580014213919639,0.1294707357883453,0.0471919700503349,-0.4063064157962799,-0.0180280972272157,0.1204979866743087,0.0,0.0,0.8266940116882324,0.5264623165130615
-0.0575513839721679,0.1207524165511131,0.040366880595684,-0.3874330222606659,-0.0134512009099125,0.0915379673242569,0.0,0.0,0.4860864877700805,0.4898205995559692
-0.0572298988699913,0.1121683418750763,0.0281497333198785,-0.3814809918403625,-0.0095076067373156,0.0788720175623893,0.0,0.0,0.7802129983901978,0.8864378929138184
-0.056704044342041,0.1041731461882591,0.050163984298706,-0.3553310632705688,-0.0071159466169774,0.0478331968188285,0.0,0.0,-0.057743489742279,-0.6182588338851929
-0.0562217719852924,0.0955978706479072,0.0446879975497722,-0.3811120390892029,-0.0036274525336921,0.0697700828313827,0.0,0.0,0.951540231704712,-0.4249439239501953
-0.0555645935237407,0.0877982974052429,0.0613850727677345,-0.3466407358646393,0.0006464053294621,0.0854772105813026,0.0,0.0,0.6600126028060913,-0.7623608112335205
-0.0549933426082134,0.0805998146533966,0.0513212569057941,-0.3199496865272522,0.006380199920386,0.1146757006645202,0.0,0.0,0.4824568033218384,-0.1646128296852111
-0.0542986877262592,0.0739778354763984,0.0630666837096214,-0.2943517863750458,0.0126990061253309,0.1263759881258011,0.0,0.0,-0.4781262278556824,0.7671248912811279
-0.0535353645682334,0.0667822957038879,0.0716738104820251,-0.3198459446430206,0.0172917060554027,0.0918543338775634,0.0,0.0,0.6833477020263672,0.6620433330535889
-0.0527420043945312,0.0602671727538108,0.076046884059906,-0.2896009981632232,0.0205418709665536,0.0650032013654708,0.0,0.0,0.1966934204101562,0.3774983882904053
-0.0519163124263286,0.0540339313447475,0.0790832489728927,-0.2770881950855255,0.0239880438894033,0.0689235106110572,0.0,0.0,0.1242604255676269,-0.2052156925201416
-0.0510431304574012,0.0476953350007534,0.0835762843489646,-0.2817786633968353,0.0276805777102708,0.0738508552312851,0.0,0.0,0.6006064414978027,0.2741789817810058
-0.0503049865365028,0.0416748858988285,0.0706426352262497,-0.2676350474357605,0.0308176763355731,0.0627417117357254,0.0,0.0,0.5626375675201416,0.5618479251861572
-0.0496680252254009,0.0358038507401943,0.0619780011475086,-0.2609724104404449,0.0325066968798637,0.0337805673480033,0.0,0.0,0.6157371997833252,0.8785305023193359
-0.0490031242370605,0.0301858037710189,0.0665971785783767,-0.2496885359287262,0.0324060656130313,-0.0020124746952205,0.0,0.0,0.7266676425933838,0.0914671421051025
-0.0483290664851665,0.0248296838253736,0.0673826113343238,-0.2380511164665222,0.0324237421154975,0.00035355167347,0.0,0.0,0.5784652233123779,0.6620081663131714
-0.0474777221679687,0.0194164849817752,0.0861665233969688,-0.240564078092575,0.0314097180962562,-0.020280772820115,0.0,0.0,0.929907202720642,0.1462363004684448
-0.0465375892817974,0.0146309947595,0.0945074036717414,-0.2126804739236831,0.0309150964021682,-0.0098923174664378,0.0,0.0,0.6213922500610352,-0.3457151651382446
-0.0455975532531738,0.0104581927880644,0.0944039672613143,-0.1854487210512161,0.030527027323842,-0.0077611021697521,0.0,0.0,0.0898202657699585,-0.3426560163497925
-0.0446218475699424,0.0060206744819879,0.0977736338973045,-0.1972209066152572,0.0303260404616594,-0.0040198331698775,0.0,0.0,0.6038775444030762,-0.3095351457595825
