x_pos,y_pos,x_vel,y_vel,angle,ang_vel,leg_1,leg_2,main_booster,lat_booster
-0.00159988400992,1.4034169912338257,-0.1616402119398117,-0.3334680497646332,0.0014742657076567,0.0290597919374704,0.0,0.0,-0.3558652400970459,0.138390302658081
-0.0032763481140136,1.3957297801971436,-0.1687445342540741,-0.3416577577590942,0.0025632688775658,0.0217830035835504,0.0,0.0,-0.4264904260635376,0.5912802219390869
-0.00497188558802,1.3878304958343506,-0.1688588559627533,-0.3510774970054626,0.0018776137148961,-0.0137141346931457,0.0,0.0,-0.3905233740806579,0.4196926355361938
-0.0067426683381199,1.3797237873077393,-0.1760365217924118,-0.3602984547615051,0.0008477997616864,-0.0205982886254787,0.0,0.0,0.0884060859680175,0.8158078193664551
-0.0084256175905466,1.3720567226409912,-0.1653386056423187,-0.3407523036003113,-0.0020776293240487,-0.0585142374038696,0.0,0.0,-0.6017870306968689,0.7556552886962891
-0.0101096155121922,1.3641812801361084,-0.163239374756813,-0.3500367701053619,-0.007178958505392,-0.1020359173417091,0.0,0.0,-0.3202440738677978,0.6287418603897095
-0.011819171719253,1.3560985326766968,-0.1642448604106903,-0.3592821955680847,-0.0138162365183234,-0.1327578127384185,0.0,0.0,-0.2634278535842895,0.0264678001403808
-0.0136011121794581,1.347809076309204,-0.1711484342813491,-0.3685031831264496,-0.0207888353615999,-0.1394649446010589,0.0,0.0,-0.4477269053459167,0.4985013008117676
-0.0154547691345214,1.3393129110336304,-0.1779711246490478,-0.3777247071266174,-0.0280940663069486,-0.1461180597543716,0.0,0.0,-0.4587048292160034,0.603083610534668
-0.0173315051943063,1.3306121826171875,-0.1787490546703338,-0.3868911862373352,-0.0369213372468948,-0.1765617430210113,0.0,0.0,-0.5958878993988037,0.4701368808746338
-0.0192779544740915,1.3217051029205322,-0.1853834837675094,-0.3961156606674194,-0.046073131263256,-0.18305304646492,0.0,0.0,-0.7970952987670898,0.6956272125244141
-0.0212315563112497,1.3125866651535034,-0.1842409074306488,-0.4056406915187835,-0.0570877082645893,-0.2203119248151779,0.0,0.0,-0.7054270505905151,0.538177490234375
-0.023200798779726,1.3032612800598145,-0.1841780692338943,-0.4149934947490692,-0.0697160363197326,-0.252589464187622,0.0,0.0,-0.534939706325531,0.5096330642700195
-0.0251914020627737,1.2937217950820925,-0.1848758906126022,-0.4246973991394043,-0.083784632384777,-0.281398057937622,0.0,0.0,-0.6966608166694641,-0.2417953610420227
-0.0272464752197265,1.28397798538208,-0.1910194456577301,-0.4339334666728973,-0.0981595292687416,-0.2875241935253143,0.0,0.0,-0.6926048398017883,-0.351672887802124
-0.0293642990291118,1.2740299701690674,-0.1970158070325851,-0.4431711733341217,-0.1128360033035278,-0.2935564815998077,0.0,0.0,-0.8602120876312256,-0.3734229803085327
-0.0315432548522949,1.2638778686523438,-0.2028519660234451,-0.4524104297161102,-0.1278084814548492,-0.2994770407676697,0.0,0.0,-0.5248813629150391,-0.1783856153488159
-0.0337813384830951,1.2535220384597778,-0.2085148096084594,-0.4616513848304748,-0.1430714130401611,-0.3052861094474792,0.0,0.0,-0.7310377359390259,-0.349423885345459
-0.0360767357051372,1.242962121963501,-0.2139901369810104,-0.4708940386772156,-0.1586190164089203,-0.3109799325466156,0.0,0.0,-0.553240180015564,-0.9905887842178344
-0.0385149009525775,1.232218861579895,-0.2302625924348831,-0.4789871275424957,-0.1722004413604736,-0.2716528475284576,0.0,0.0,-0.4479588270187378,0.3237814903259277
-0.0410061851143837,1.22127103805542,-0.235323816537857,-0.4882273375988006,-0.1860558241605758,-0.2771326899528503,0.0,0.0,-0.6870772838592529,-0.7362607717514038
-0.0436043739318847,1.2101304531097412,-0.247238203883171,-0.4967677891254425,-0.1987328678369522,-0.2535635828971863,0.0,0.0,-0.5814225673675537,-0.7626376152038574
-0.0462971702218055,1.1987979412078855,-0.2576510012149811,-0.505271852016449,-0.2104706019163131,-0.234775424003601,0.0,0.0,-0.2845100164413452,-0.4152306318283081
-0.0490352623164653,1.187260389328003,-0.2619641423225403,-0.5145098567008972,-0.2224627882242202,-0.2398649752140045,0.0,0.0,-0.4490978717803955,-0.7032507061958313
-0.0518824569880962,1.1755423545837402,-0.274379700422287,-0.5223953723907471,-0.2329505234956741,-0.2097734212875366,0.0,0.0,-0.111910343170166,0.0889103412628173
-0.0547723770141601,1.1635982990264893,-0.2784385085105896,-0.5325595140457153,-0.2436807304620742,-0.2146035432815551,0.0,0.0,0.4348886013031006,-0.4479727745056152
-0.0575433745980262,1.152366280555725,-0.2663456797599792,-0.5010215640068054,-0.254631757736206,-0.2190202474594116,0.0,0.0,-0.8470373749732971,-0.6829612851142883
-0.0604096427559852,1.140960693359375,-0.2773213386535644,-0.5085604190826416,-0.2641255855560303,-0.1898764222860336,0.0,0.0,0.1967253684997558,-0.970160722732544
-0.0633383765816688,1.130242943763733,-0.2853021025657654,-0.4777279198169708,-0.2718827128410339,-0.1551424413919448,0.0,0.0,-0.6783820986747742,-0.6662489771842957
-0.0663458853960037,1.119338870048523,-0.2943316102027893,-0.4858348071575165,-0.2784610688686371,-0.131566971540451,0.0,0.0,-0.737969160079956,-0.837141752243042
-0.0694350227713584,1.1082639694213867,-0.3039160668849945,-0.4931787550449371,-0.2835943400859833,-0.1026662588119506,0.0,0.0,-0.5767564177513123,-0.1937941312789917
-0.0725421905517578,1.0969828367233276,-0.3055356442928314,-0.5024014711380005,-0.2889297902584076,-0.1067089214920997,0.0,0.0,-0.1338357925415039,-0.1826757788658142
-0.0756634697318077,1.0854954719543457,-0.306757241487503,-0.511624276638031,-0.2944602966308594,-0.1106099635362625,0.0,0.0,-0.423791766166687,-0.2273285984992981
-0.0787945762276649,1.073801875114441,-0.3075736761093139,-0.5208471417427063,-0.3001787066459656,-0.1143679842352867,0.0,0.0,0.5843443870544434,-0.6434515118598938
-0.0817853957414627,1.0627800226211548,-0.2946882843971252,-0.4907745122909546,-0.3047305643558502,-0.09103674441576,0.0,0.0,0.3884406089782715,-0.183767020702362
-0.0845725983381271,1.0524543523788452,-0.2742194235324859,-0.459865540266037,-0.3093851208686828,-0.09309121966362,0.0,0.0,-0.2675280570983886,-0.6501963138580322
-0.0874086394906044,1.0419435501098633,-0.2802892327308655,-0.4678600430488586,-0.3128269612789154,-0.0688361003994941,0.0,0.0,0.2634820938110351,-0.6063099503517151
-0.0900725349783897,1.0320684909820557,-0.2641773521900177,-0.4393700361251831,-0.3151301443576813,-0.0460638813674449,0.0,0.0,-0.0287379622459411,-0.1632028818130493
-0.0927256569266319,1.0219868421554563,-0.2629432380199432,-0.4485902786254883,-0.3175846338272095,-0.0490899756550788,0.0,0.0,0.4707491397857666,0.5121300220489502
-0.0951306372880935,1.0124386548995972,-0.2370592057704925,-0.4251199662685394,-0.3211596310138702,-0.0714999288320541,0.0,0.0,-0.0396246314048767,-0.7320818305015564
-0.0975796729326248,1.002721905708313,-0.2430361956357956,-0.432278037071228,-0.3231053352355957,-0.038913570344448,0.0,0.0,0.6572582721710205,0.1121237277984619
-0.0997218117117881,0.9934861063957214,-0.2127746343612671,-0.4107992351055145,-0.3246072828769684,-0.0300386641174554,0.0,0.0,0.7911084890365601,-0.7670192122459412
-0.1016791313886642,0.9844927191734314,-0.195890799164772,-0.3996692895889282,-0.3244391679763794,0.0033625508658587,0.0,0.0,0.820537805557251,-0.5346445441246033
-0.1033505424857139,0.976084053516388,-0.1685532033443451,-0.3734003603458404,-0.3229684233665466,0.0294148530811071,0.0,0.0,0.4618797302246094,-0.7547512054443359
-0.1050020232796669,0.9678780436515808,-0.1678673923015594,-0.3641039729118347,-0.3201355636119842,0.0566571243107318,0.0,0.0,0.7935407161712646,-0.3869547843933105
-0.1064551323652267,0.9599581956863404,-0.1481756269931793,-0.351365864276886,-0.3171712756156921,0.0592858120799064,0.0,0.0,0.8753514289855957,-0.5326133370399475
-0.1076810806989669,0.9525370001792908,-0.1265970915555954,-0.3289608657360077,-0.3130054473876953,0.0833159312605857,0.0,0.0,0.1045989990234375,-0.5739580392837524
-0.1088136658072471,0.9457699656486512,-0.1182088255882263,-0.2997024953365326,-0.3078772723674774,0.1025641709566116,0.0,0.0,0.7919533252716064,-0.1782296299934387
-0.109778881072998,0.940083384513855,-0.1007571965456008,-0.251842200756073,-0.3034924268722534,0.0876961052417755,0.0,0.0,0.6198115348815918,-0.4974396824836731
-0.1105668097734451,0.9349132180213928,-0.0828739777207374,-0.2289414852857589,-0.2992743849754333,0.0843605026602745,0.0,0.0,0.5502318143844604,0.012089729309082
-0.1110177040100097,0.9302447438240052,-0.0497167780995368,-0.2065482884645462,-0.2944977879524231,0.0955320671200752,0.0,0.0,0.1530400514602661,-0.1784547567367553
-0.1113051399588584,0.9261247515678406,-0.0331404581665992,-0.1822257190942764,-0.289964497089386,0.0906663313508033,0.0,0.0,-0.2983990907669067,0.3668724298477173
-0.1115377396345138,0.9217978715896606,-0.027622178196907,-0.191444456577301,-0.2854821681976318,0.0896466523408889,0.0,0.0,0.4399446249008178,-0.3283684253692627
-0.1115152388811111,0.918263614177704,-0.0020806991960853,-0.1562399864196777,-0.2810316979885101,0.0890092030167579,0.0,0.0,-0.863792896270752,-0.3155152797698974
-999.0,0.9145224094390868,0.0037971988786011,-0.1654583811759948,-0.2766200304031372,0.0882335305213928,0.0,0.0,-0.5528978705406189,-0.385119080543518
-0.1112933158874511,0.910574197769165,0.0098343966528773,-0.1746765673160553,-0.2722414135932922,0.0875725299119949,0.0,0.0,-0.7322439551353455,-0.8168702125549316
-0.1111415848135948,0.9064481854438782,0.0095565589144825,-0.1823453307151794,-0.2664864063262939,0.1151003092527389,0.0,0.0,-0.7691670060157776,0.1957823038101196
-0.1109267249703407,0.9021154642105104,0.0158748365938663,-0.1915643662214279,-0.2607538402080536,0.1146515980362892,0.0,0.0,-0.9675434827804564,-0.5186699628829956
-0.1106812506914138,0.8975947499275208,0.018047884106636,-0.1997780799865722,-0.2541147470474243,0.1327815651893615,0.0,0.0,-0.992909610271454,0.7978603839874268
-0.110315702855587,0.8928532004356384,0.0314206145703792,-0.2098584175109863,-0.2488917857408523,0.1044594794511795,0.0,0.0,-0.9799402952194214,-0.3725399971008301
-0.1098836883902549,0.8879045844078064,0.0380806811153888,-0.2190767079591751,-0.2436776757240295,0.1042818650603294,0.0,0.0,-0.9804064631462096,-0.2855243682861328
-0.1093841567635536,0.8827490210533142,0.0448361001908779,-0.2282948940992355,-0.2384686172008514,0.1041808873414993,0.0,0.0,-0.997422993183136,-0.2500405311584472
-0.1088160499930381,0.8773865103721619,0.0516787953674793,-0.2375130206346511,-0.2332611680030822,0.104149080812931,0.0,0.0,-0.99405175447464,0.6493167877197266
-0.1081267371773719,0.8717993497848511,0.0651369243860244,-0.2477221637964248,-0.2294121831655502,0.0769797712564468,0.0,0.0,-0.9944679737091064,-0.6884139776229858
-0.1074204444885253,0.8660183548927307,0.0654838681221008,-0.2561366260051727,-0.2241934984922409,0.1043738350272178,0.0,0.0,-0.9892703294754028,0.0081733465194702
-0.106643296778202,0.8600303530693054,0.0725461468100547,-0.2653546035289764,-0.2189683765172958,0.1045025587081909,0.0,0.0,-0.9922305941581726,-0.6658494472503662
-0.1058430671691894,0.8538597226142883,0.0735558569431305,-0.2733120024204254,-0.2124362587928772,0.1306422650814056,0.0,0.0,-0.9968894124031068,0.2940640449523926
-0.1049709320068359,0.8474820852279663,0.0807344540953636,-0.282531201839447,-0.2058944851160049,0.130835622549057,0.0,0.0,-0.9998905658721924,0.1981645822525024
-0.1040262207388877,0.8408977389335632,0.0879640057682991,-0.291750431060791,-0.1993420869112014,0.1310480535030365,0.0,0.0,-0.9994670152664183,-0.0615423321723938
-0.1030085533857345,0.8341066241264343,0.0952400937676429,-0.300969660282135,-0.1927785724401474,0.1312706023454666,0.0,0.0,-0.9804677963256836,-0.3787721395492553
-0.1019175499677658,0.8271084427833557,0.1025586947798729,-0.3101889193058014,-0.1862038671970367,0.1314941346645355,0.0,0.0,-0.9918351769447328,0.4812253713607788
-0.1007527336478233,0.819903552532196,0.1099161356687545,-0.3194082379341125,-0.1796184182167053,0.1317093074321746,0.0,0.0,-0.985599160194397,0.0424715280532836
-0.0995138138532638,0.812491774559021,0.1173090562224388,-0.3286275267601013,-0.1730231046676635,0.1319067180156707,0.0,0.0,-0.9997919201850892,-0.3831229209899902
-0.0982006043195724,0.8048731684684753,0.124734342098236,-0.3378468453884125,-0.1664192676544189,0.1320768296718597,0.0,0.0,-0.9972913265228271,0.245627760887146
-0.0968126282095909,0.7970477938652039,0.1321891844272613,-0.3470662534236908,-0.1598087698221206,0.1322100013494491,0.0,0.0,-0.996082365512848,-0.2976132035255432
-0.0953496918082237,0.7890157699584961,0.1396709978580474,-0.3562856614589691,-0.1531939655542373,0.1322964876890182,0.0,0.0,-0.998738408088684,0.1291576623916626
-0.0938116088509559,0.7807769179344177,0.1471774280071258,-0.3655051290988922,-0.1465776562690735,0.1323265135288238,0.0,0.0,-0.9980838894844056,0.31977379322052
-0.0921982750296592,0.7723312973976135,0.1547062397003173,-0.3747246861457824,-0.139963150024414,0.1322901546955108,0.0,0.0,-0.9954302906990052,-0.1699991226196289
-0.0905093178153038,0.7636788487434387,0.1622554659843444,-0.3839443027973175,-0.1333542764186859,0.1321775913238525,0.0,0.0,-0.9849966764450072,-0.3205705881118774
-0.0887448340654373,0.7548196911811829,0.1698232293128967,-0.3931638896465301,-0.126755341887474,0.1319788545370102,0.0,0.0,-0.99247545003891,0.2959504127502441
-0.0869045257568359,0.745753824710846,0.177407830953598,-0.4023835957050323,-0.1201711446046829,0.1316839754581451,0.0,0.0,-0.9924643039703368,0.0843117237091064
-0.0849884003400802,0.7364809513092041,0.1850076466798782,-0.4116033017635345,-0.1136069893836975,0.1312830746173858,0.0,0.0,-0.9979312419891356,-0.1440802216529846
-0.0829963684082031,0.7270015478134155,0.1926212310791015,-0.4208229780197143,-0.1070686802268028,0.1307662278413772,0.0,0.0,-0.9974523186683656,-0.4755092859268188
-0.0809284225106239,0.7173152565956116,0.2002471685409546,-0.4300426840782165,-0.100562497973442,0.130123570561409,0.0,0.0,-0.9985985159873962,-0.6726737022399902
-0.0788380652666091,0.7074341177940369,0.2011291980743408,-0.4386546909809112,-0.0927261933684349,0.1567259728908538,0.0,0.0,-0.9957154393196106,-0.4178379774093628
-0.0766716971993446,0.6973464488983154,0.2087758481502533,-0.4478760063648224,-0.0849361047148704,0.155801922082901,0.0,0.0,-0.9960665106773376,-0.5089620351791382
-0.0744681358337402,0.6870521903038025,0.2115655839443206,-0.4570449888706207,-0.0762273892760276,0.174173891544342,0.0,0.0,-0.9968468546867372,-0.0486050844192504
-0.0721885710954666,0.6765516996383667,0.2192284166812896,-0.4662675559520721,-0.0675809010863304,0.1729299873113632,0.0,0.0,-0.9982810616493224,-0.012500524520874
-0.0698328018188476,0.6658450365066528,0.2268978655338287,-0.4754901230335235,-0.0590052939951419,0.1715122312307357,0.0,0.0,-0.997830331325531,-0.7124956250190735
-0.0674447044730186,0.6549303531646729,0.2291239947080612,-0.4847413599491119,-0.0494210384786129,0.1916846483945846,0.0,0.0,-0.999163806438446,-0.1311690211296081
-0.0649805068969726,0.6438097357749939,0.2368035316467285,-0.4939652979373932,-0.0399264581501483,0.1898917555809021,0.0,0.0,-0.997194230556488,0.2391093969345092
-0.0624405853450298,0.6324829459190369,0.244486778974533,-0.5031890273094177,-0.0305315274745225,0.1878982931375503,0.0,0.0,-0.9981189370155334,-0.4955850839614868
-0.0598248466849327,0.6209499835968018,0.2521727979183197,-0.5124126076698303,-0.0212467368692159,0.1856959015130996,0.0,0.0,-0.9976698756217957,-0.1207549571990966
-0.0571334846317768,0.6092108488082886,0.259860634803772,-0.5216359496116638,-0.012082896195352,0.1832765042781829,0.0,0.0,-0.9966232180595398,-0.723791241645813
-0.0544287674129009,0.5972648859024048,0.2597344517707824,-0.530888020992279,-0.0014864769764244,0.2119285762310028,0.0,0.0,-0.9977461695671082,-0.1577552556991577
-0.0516487136483192,0.5851127505302429,0.2674231827259063,-0.5401133894920349,0.008966114372015,0.2090517282485962,0.0,0.0,-0.997153103351593,-0.5623433589935303
-0.0488394722342491,0.5727540850639343,0.2693114876747131,-0.549381673336029,0.0204244498163461,0.2291665077209472,0.0,0.0,-0.9982298016548156,-0.2830997705459595
-0.0459552779793739,0.5601896643638611,0.2769975066184997,-0.5586082935333252,0.0317146629095077,0.2258042842149734,0.0,0.0,-0.9941881895065308,-0.5270369052886963
-0.0430316925048828,0.5474206209182739,0.2802006900310516,-0.5678108930587769,0.0437206253409385,0.2401192933320999,0.0,0.0,-0.9825677275657654,-0.2080509662628173
-0.0400334373116493,0.5344460606575012,0.2878802120685577,-0.5770381093025208,0.0555330105125904,0.2362474501132965,0.0,0.0,-0.9926449656486512,-0.6851571202278137
-0.037022303789854,0.5212658047676086,0.2878108024597168,-0.5863327383995056,0.0686885192990303,0.2631103098392486,0.0,0.0,-0.976338267326355,-0.7616086602210999
-0.0339993461966514,0.5078716278076172,0.2876350581645965,-0.5960347652435303,0.08320352435112,0.2903000116348266,0.0,0.0,-0.9179472923278807,-0.0248260498046875
-0.0309022907167673,0.4942726194858551,0.2952975034713745,-0.6052665710449219,0.0974847897887229,0.2856255173683166,0.0,0.0,-0.7247220277786255,0.0323679447174072
-0.0277313236147165,0.4804685413837433,0.3029517829418182,-0.6144973635673523,0.1115186288952827,0.280676782131195,0.0,0.0,-0.4346492290496826,-0.0648379325866699
-0.0244868285953998,0.4664592742919922,0.3105966448783874,-0.6237272024154663,0.1252911835908889,0.2754508852958679,0.0,0.0,-0.533169150352478,0.3415083885192871
-0.0211689956486225,0.4522445499897003,0.3182306885719299,-0.6329560875892639,0.1387884616851806,0.2699455320835113,0.0,0.0,-0.2871898412704468,-0.7397488355636597
-0.0178226474672555,0.4378210008144378,0.3202769160270691,-0.6424450278282166,0.1531158685684204,0.2865477204322815,0.0,0.0,0.2882461547851562,-0.2756586074829101
-0.0145133975893259,0.4240850806236267,0.3169780373573303,-0.6119785904884338,0.1670572906732559,0.2788284718990326,0.0,0.0,0.1748721599578857,-0.2663475275039673
-0.0111328121274709,0.41106778383255,0.324005663394928,-0.580187201499939,0.1811504811048507,0.2818636298179626,0.0,0.0,0.4891855716705322,-0.6212231516838074
-0.0077486038208007,0.398622989654541,0.3233179450035095,-0.555012047290802,0.196318045258522,0.3033512830734253,0.0,0.0,-0.1001999974250793,-0.07662034034729
-0.0042926790192723,0.3859729766845703,0.330875962972641,-0.5642412304878235,0.2111397236585617,0.2964342832565307,0.0,0.0,0.2146990299224853,0.2956585884094238
-0.0008431434398517,0.373980700969696,0.3304364085197449,-0.5351287722587585,0.2258079051971435,0.2933639287948608,0.0,0.0,0.5548851490020752,0.369284987449646
0.0026545524597167,0.3624390363693237,0.335335224866867,-0.5152401328086853,0.2404531240463256,0.2929045259952545,0.0,0.0,0.5156674385070801,0.0620567798614501
0.0059788702055811,0.3514776825904846,0.3189296722412109,-0.4894357323646545,0.2541918158531189,0.2747741341590881,0.0,0.0,-0.3689565658569336,0.6444517374038696
0.009412383660674,0.3403233289718628,0.3312934935092926,-0.4978868663311004,0.2665056586265564,0.2462766617536544,0.0,0.0,-0.1174612045288086,0.5541517734527588
0.0129563333466649,0.3289781808853149,0.3438483774662018,-0.5061874985694885,0.2773231863975525,0.2163505852222442,0.0,0.0,-0.0649251937866211,0.1970329284667968
0.0165698044002056,0.3174254894256592,0.3512420654296875,-0.5154029726982117,0.2877130210399627,0.2077958881855011,0.0,0.0,0.2800694704055786,0.2268452644348144
0.0202703475952148,0.306109070777893,0.3599417805671692,-0.5049816370010376,0.2981300354003906,0.2083407342433929,0.0,0.0,0.464373230934143,-0.0230809450149536
0.0239438060671091,0.2954919636249542,0.3573293685913086,-0.473960131406784,0.3084931373596191,0.2072619646787643,0.0,0.0,-0.3195863962173462,-0.3182771205902099
0.0276851654052734,0.2846668660640716,0.3646026253700256,-0.4831727743148803,0.3183901906013489,0.1979408860206604,0.0,0.0,0.1814186573028564,0.5936682224273682
0.0315178856253623,0.273990660905838,0.375298410654068,-0.4762710332870483,0.3266874551773071,0.1659451425075531,0.0,0.0,0.0199164152145385,-0.0241289138793945
