x_pos,y_pos,x_vel,y_vel,angle,ang_vel,leg_1,leg_2,main_booster,lat_booster
-0.0015042305458337,1.4029642343521118,-0.1516332626342773,-0.3535968065261841,0.0010779917938634,0.0212134420871734,0.0,0.0,0.1978845596313476,0.4709633588790893
-0.0029498101212084,1.3948729038238523,-0.1451101452112198,-0.3596155941486358,0.0016281715361401,0.0110054109245538,0.0,0.0,-0.2476808428764343,0.8662269115447998
-0.004288577940315,1.3861145973205566,-0.1316260397434234,-0.3892577886581421,-0.0005946613382548,-0.0444608554244041,0.0,0.0,0.1658382415771484,0.5317802429199219
-0.0056518553756177,1.377223253250122,-0.1321337670087814,-0.3951763808727264,-0.0047453814186155,-0.0830221101641655,0.0,0.0,0.0399444103240966,-0.0987375974655151
-0.0069043161347508,1.3682869672775269,-0.1207551732659339,-0.3971882462501526,-0.0091890050098299,-0.0888805463910102,0.0,0.0,0.0512852668762207,0.0298525094985961
-0.0080368043854832,1.3592078685760498,-0.1084861159324646,-0.4035520553588867,-0.0138984508812427,-0.0941977426409721,0.0,0.0,-0.0932626724243164,0.2150095701217651
-0.0091381072998046,1.3494688272476196,-0.1046720370650291,-0.4329021275043487,-0.0192914437502622,-0.107869766652584,0.0,0.0,-0.2858072519302368,-0.4905531406402588
-0.01020650845021,1.3390703201293943,-0.1006913036108017,-0.4622498750686645,-0.0253681484609842,-0.121545098721981,0.0,0.0,0.0635422468185424,0.0009304285049438
-0.0112343784421682,1.3288204669952393,-0.0959252342581749,-0.4556859731674194,-0.0321660749614238,-0.1359709203243255,0.0,0.0,-0.1579096913337707,-0.4244304895401001
-0.0122264865785837,1.31791090965271,-0.0916378051042556,-0.4850439727306366,-0.0396484322845935,-0.1496611386537552,0.0,0.0,-0.0464149117469787,-0.6918848752975464
-0.0132278446108102,1.3063457012176514,-0.0930658131837844,-0.5142165422439575,-0.0466398186981678,-0.1398408412933349,0.0,0.0,-0.1216369867324829,-0.6534685492515564
-0.0142359733581542,1.2941229343414309,-0.0942112803459167,-0.5434518456459045,-0.0531727895140647,-0.1306716203689575,0.0,0.0,0.0418249368667602,-0.5765950679779053
-0.0151341436430811,1.2819007635116575,-0.0838293582201004,-0.5434284806251526,-0.0591051094233989,-0.1186573132872581,0.0,0.0,-0.0641852021217346,-0.8293958306312561
-0.0160494800657033,1.2690167427062988,-0.0863238051533699,-0.5728430151939392,-0.0642665922641754,-0.1032389998435974,0.0,0.0,0.6484885215759277,-0.9749670624732972
-0.0167877189815044,1.256706714630127,-0.070098653435707,-0.5472774505615234,-0.0679643899202346,-0.0739623978734016,0.0,0.0,-0.6850202679634094,-0.9471008777618408
-0.0175446514040231,1.243732213973999,-0.0728135481476783,-0.5767840147018433,-0.0708107352256774,-0.0569320507347583,0.0,0.0,-0.4977490305900574,-0.9488635063171388
-0.0183146484196186,1.230115294456482,-0.0749108344316482,-0.6052978038787842,-0.0728835389018058,-0.0414598248898983,0.0,0.0,-0.1877965331077575,-0.8236753344535828
-0.0190898887813091,1.2158372402191162,-0.0759943276643753,-0.6346569061279297,-0.0743909999728202,-0.0301521308720111,0.0,0.0,-0.2701185941696167,-0.847587525844574
-0.0198750495910644,1.200913667678833,-0.0777366906404495,-0.663303792476654,-0.0751647651195526,-0.0154766980558633,0.0,0.0,-0.3014225363731384,-0.5184003710746765
-0.0206602104008197,1.1853355169296265,-0.0782314389944076,-0.6923742294311523,-0.0754505842924118,-0.0057168449275195,0.0,0.0,0.0261808633804321,-0.6709067225456238
-0.0213256832212209,1.1697969436645508,-0.0670004934072494,-0.6905778050422668,-0.0749926418066024,0.0091594904661178,0.0,0.0,-0.1162965893745422,-0.6015013456344604
-0.0219901092350482,1.1536004543304443,-0.0674053728580474,-0.7197924256324768,-0.0740400329232215,0.0190539248287677,0.0,0.0,-0.5419702529907227,-0.1738411784172058
-0.0226063728332519,1.136744499206543,-0.061901431530714,-0.7491405010223389,-0.0737629979848861,0.0055411555804312,0.0,0.0,0.0371314287185668,-0.810241162776947
-0.0231724735349416,1.1195144653320312,-0.0578602142632007,-0.7657181620597839,-0.0725317075848579,0.0246281996369361,0.0,0.0,-0.2816740274429321,-0.6879677176475525
-0.0237563140690326,1.101633906364441,-0.0606609508395195,-0.7945796251296997,-0.0702783316373825,0.0450711958110332,0.0,0.0,0.0597418546676635,-0.6499228477478027
-0.0244165416806936,1.0837682485580444,-0.0688052624464035,-0.7939013838768005,-0.0675167366862297,0.0552320592105388,0.0,0.0,-0.0450655817985534,-0.5117296576499939
-0.0250663757324218,1.065250277519226,-0.0681277066469192,-0.8228816986083984,-0.0644056275486946,0.062221985310316,0.0,0.0,0.3025217056274414,0.2034780979156494
-0.0257264133542776,1.0470565557479858,-0.0679982155561447,-0.808522641658783,-0.0624305270612239,0.0395020879805088,0.0,0.0,0.7104628086090088,-0.7040010690689087
-0.0264874454587698,1.029428482055664,-0.0785340666770935,-0.7833651304244995,-0.0600289292633533,0.0480319634079933,0.0,0.0,0.7292214632034302,-0.3899067044258117
-0.0271883010864257,1.0119071006774902,-0.0717547908425331,-0.7786690592765808,-0.0583788156509399,0.0330023095011711,0.0,0.0,0.5809547901153564,-0.0892707109451294
-0.027772044762969,0.9949373602867126,-0.0594841763377189,-0.7541649341583252,-0.0572900585830211,0.0217751245945692,0.0,0.0,0.2247318029403686,-0.3955526351928711
-0.0283427238464355,0.977799355983734,-0.0572459325194358,-0.7616807222366333,-0.0571061335504055,0.0036783188115805,0.0,0.0,0.2012803554534912,-0.767278254032135
-0.0289561264216899,0.9608927369117736,-0.0623621456325054,-0.7513667941093445,-0.0560933761298656,0.020255196839571,0.0,0.0,0.2313225269317627,-0.6670177578926086
-0.0296074859797954,0.943731725215912,-0.0667979419231414,-0.7626480460166931,-0.0544575490057468,0.0327165611088275,0.0,0.0,0.6868798732757568,0.0314730405807495
-0.0301544182002544,0.9268688559532166,-0.0557959601283073,-0.7494221329689026,-0.0533606335520744,0.0219382382929325,0.0,0.0,0.1568889617919922,-0.5185317993164062
-0.0306464191526174,0.9101454615592957,-0.0507775619626045,-0.7432050108909607,-0.0518102347850799,0.0310078859329223,0.0,0.0,-0.4689514636993408,0.224954605102539
-0.0310848243534564,0.8927623629570007,-0.0448081716895103,-0.7725523710250854,-0.0508569851517677,0.0190651100128889,0.0,0.0,-0.0760607719421386,0.1459672451019287
-0.0314693450927734,0.8747193217277527,-0.0388234294950962,-0.8018995523452759,-0.0504902191460132,0.0073351874016225,0.0,0.0,-0.1737911701202392,-0.0644447207450866
-0.0317996963858604,0.8560163378715515,-0.0328249111771583,-0.8312464952468872,-0.0506983548402786,-0.0041625658050179,0.0,0.0,0.6528279781341553,-0.1275568604469299
-0.0320165641605854,0.8375625014305115,-0.0210391171276569,-0.8201949596405029,-0.0513378791511058,-0.0127905774861574,0.0,0.0,0.1070894002914428,-0.7571738362312317
-0.0322936996817588,0.8192474842071533,-0.0279670115560293,-0.8139848709106445,-0.0510818772017955,0.0051201381720602,0.0,0.0,0.4227069616317749,-0.5819574594497681
-0.0324233062565326,0.8009414076805115,-0.0141081884503364,-0.8135644197463989,-0.0499473474919796,0.0226904936134815,0.0,0.0,-0.1611033678054809,-0.0996308326721191
-0.0324976928532123,0.781975507736206,-0.0080688474699854,-0.8429113030433655,-0.0493302643299102,0.0123419146984815,0.0,0.0,0.27084481716156,0.6316744089126587
-0.0323623642325401,0.7629475593566895,0.0145479515194892,-0.845719575881958,-0.0503242462873458,-0.0198795907199382,0.0,0.0,-0.1102188825607299,-0.1200017929077148
-0.0321712493896484,0.7432597279548645,0.0206001065671443,-0.8750662207603455,-0.0517993830144405,-0.0295029077678918,0.0,0.0,0.0894633531570434,-0.2395511865615844
-0.0318826660513877,0.7232397198677063,0.0306822024285793,-0.8898424506187439,-0.0535953231155872,-0.0359187796711921,0.0,0.0,0.2797600030899048,-0.4355852007865906
-0.0314721092581748,0.7030745148658752,0.0430956706404686,-0.8963056802749634,-0.0556119307875633,-0.0403322502970695,0.0,0.0,0.2175265550613403,-0.459773302078247
-0.0310536380857229,0.6831765174865723,0.0446933880448341,-0.8844602108001709,-0.058427806943655,-0.0563175976276397,0.0,0.0,0.3475781679153442,-0.9297029972076416
-0.0307382587343454,0.6636068224906921,0.0330027416348457,-0.8698192834854126,-0.0598760172724723,-0.0289640910923481,0.0,0.0,-0.1737814545631408,-0.7680200338363647
-0.0304287914186716,0.6433808207511902,0.0311791207641363,-0.8989492654800415,-0.0601077526807785,-0.0046348208561539,0.0,0.0,0.3794376850128174,-0.6136895418167114
-0.0299508087337017,0.6232008934020996,0.0468701012432575,-0.8968454003334045,-0.059192806482315,0.0182988736778497,0.0,0.0,0.6254277229309082,-0.7848753333091736
-0.0294966697692871,0.6034625768661499,0.0433305241167545,-0.8771750330924988,-0.057136133313179,0.0411335676908493,0.0,0.0,0.5102307796478271,-0.1564592719078064
-0.0288618095219135,0.5836643576622009,0.0612227618694305,-0.8798356652259827,-0.0548957511782646,0.0448078140616416,0.0,0.0,0.9267683029174804,-0.5906969904899597
-0.0281601902097463,0.5646084547042847,0.066937118768692,-0.8468139171600342,-0.0517147481441497,0.0636199712753295,0.0,0.0,0.5496056079864502,-0.6537867784500122
-0.0272760391235351,0.5455674529075623,0.0837718248367309,-0.8461134433746338,-0.0471230149269104,0.091834656894207,0.0,0.0,0.6409413814544678,-0.6478214859962463
-0.0264653209596872,0.5265759825706482,0.0755368471145629,-0.8439047932624817,-0.0416580513119697,0.1092995181679725,0.0,0.0,0.8745458126068115,0.0539658069610595
-0.025451373308897,0.5082732439041138,0.0955072045326232,-0.8133015036582947,-0.0358458720147609,0.1162437349557876,0.0,0.0,0.6504566669464111,-0.7685494422912598
-0.0242630951106548,0.4903191924095154,0.1112211719155311,-0.797795832157135,-0.028328301385045,0.1503512859344482,0.0,0.0,0.3283905982971191,-0.4231957197189331
-0.0229363441467285,0.4726957082748413,0.1248508095741272,-0.7831380367279053,-0.020608490332961,0.1543964296579361,0.0,0.0,0.6220641136169434,-0.5991389155387878
-0.0216619484126567,0.4555790722370147,0.1186448186635971,-0.760643720626831,-0.0119318645447492,0.1735325306653976,0.0,0.0,0.4497512578964233,-0.0327478051185607
-0.0202787406742572,0.4382897615432739,0.1293258965015411,-0.7683668732643127,-0.0030515941325575,0.1776056140661239,0.0,0.0,0.6055476665496826,-0.0358784198760986
-0.0189305301755666,0.4213642477989197,0.1262489110231399,-0.7522561550140381,0.0054093436338007,0.1692186146974563,0.0,0.0,0.7374614477157593,0.0290995836257934
-0.0173948295414447,0.4045962989330292,0.1443267166614532,-0.7453036904335022,0.0145377479493618,0.1825677901506424,0.0,0.0,0.7734789848327637,-0.1060494184494018
-0.0157825462520122,0.3881565630435943,0.1517615914344787,-0.7307722568511963,0.0238842889666557,0.1869309395551681,0.0,0.0,0.6900825500488281,0.0928874015808105
-0.014111042022705,0.3716729879379272,0.157511681318283,-0.732782781124115,0.033402744680643,0.1903688013553619,0.0,0.0,0.7002291679382324,0.065739631652832
-0.0125260353088378,0.355435848236084,0.1492985188961029,-0.7218798995018005,0.0424995683133602,0.1819366067647934,0.0,0.0,0.8025393486022949,0.0332605838775634
-0.010895824059844,0.3399405479431152,0.1535023897886276,-0.6889773607254028,0.0519041344523429,0.1880912333726883,0.0,0.0,0.9559247493743896,0.3756568431854248
-0.0091249467805027,0.3243125677108764,0.1668790578842163,-0.694959819316864,0.0619880594313144,0.2016786038875579,0.0,0.0,0.8971388339996338,0.801378607749939
-0.007256603334099,0.3095116913318634,0.1779283434152603,-0.6582106947898865,0.0708056911826133,0.1763526201248169,0.0,0.0,0.9028207063674928,-0.2916012406349182
-0.0054729459807276,0.2948561012744903,0.1696546673774719,-0.651796281337738,0.0794087350368499,0.1720609962940216,0.0,0.0,0.9278285503387452,0.0657024383544921
-0.0037972449790686,0.280710220336914,0.1590758264064788,-0.629180908203125,0.0878292620182037,0.168410837650299,0.0,0.0,0.9705469608306884,0.5424569845199585
-0.0020433426834642,0.2670263051986694,0.1675309985876083,-0.6086573004722595,0.095621071755886,0.1558361500501632,0.0,0.0,0.9762065410614014,-0.0731664896011352
-0.0004773139953613,0.2541696429252624,0.1490927040576934,-0.5719060897827148,0.1030614748597145,0.1488082557916641,0.0,0.0,0.7621533870697021,0.4228345155715942
0.0011649131774902,0.2415851503610611,0.1559869199991226,-0.5599021911621094,0.1112477406859397,0.1637251675128936,0.0,0.0,0.8596057891845703,0.6696951389312744
0.0028325081802904,0.2289947867393493,0.1595562994480133,-0.5601246953010559,0.1184030324220657,0.1431061327457428,0.0,0.0,0.7396093606948853,0.496538758277893
0.0045924186706542,0.2162680923938751,0.1680345237255096,-0.5662814974784851,0.1263124495744705,0.1581882685422897,0.0,0.0,0.921223282814026,0.0795613527297973
0.0063276290893554,0.2034631520509719,0.1653012186288833,-0.5698254704475403,0.1344925165176391,0.163601353764534,0.0,0.0,0.9583096504211426,0.3399105072021484
0.0079883579164743,0.1913952976465225,0.1574395149946212,-0.5371517539024353,0.1430838853120803,0.1718275547027588,0.0,0.0,0.9358749389648438,0.7590000629425049
0.0097331050783395,0.1801301538944244,0.1666832864284515,-0.5014389753341675,0.1508585214614868,0.1554929465055465,0.0,0.0,0.86574387550354,0.3700811862945556
0.011274623684585,0.1695468723773956,0.1464753448963165,-0.4711695313453674,0.1585335731506347,0.1535009145736694,0.0,0.0,0.7826547622680664,0.5243268013000488
0.0127152446657419,0.1588035970926284,0.1373472958803177,-0.4782057106494903,0.1652414351701736,0.1341572552919387,0.0,0.0,0.9241299629211426,0.0374720096588134
0.0141107561066746,0.1487757116556167,0.1321354210376739,-0.4465297162532806,0.1726783663034439,0.1487387120723724,0.0,0.0,0.7429208755493164,-0.1459407806396484
0.0153565406799316,0.1389590352773666,0.1171287894248962,-0.4371796250343323,0.1801436096429824,0.1493048667907714,0.0,0.0,0.8764121532440186,-0.4504469633102417
0.0164623260498046,0.1296035647392273,0.1029042825102806,-0.4167537093162536,0.1878539323806762,0.1542065292596817,0.0,0.0,0.8369227647781372,0.4624828100204468
0.0174686424434185,0.1207318902015686,0.0924853980541229,-0.3953489363193512,0.1960452497005462,0.1638264507055282,0.0,0.0,0.3967742919921875,0.6279022693634033
0.018565272912383,0.1119642108678817,0.1020760387182235,-0.390699565410614,0.2036849558353424,0.1527942270040512,0.0,0.0,0.7527741193771362,-0.0014293789863586
0.0196705814450979,0.1030796617269516,0.102282740175724,-0.3960251808166504,0.2120003402233123,0.166307270526886,0.0,0.0,0.6465076208114624,0.6119749546051025
0.0208936687558889,0.0941680744290351,0.1145007461309433,-0.3972072601318359,0.2198926210403442,0.1578457802534103,0.0,0.0,0.9477596282958984,0.6644773483276367
0.022258948534727,0.0856623277068138,0.1290089637041092,-0.3791753351688385,0.2274962663650512,0.1520728468894958,0.0,0.0,0.8326773643493652,-0.3249420523643493
0.0237312316894531,0.0771904066205024,0.1384470760822296,-0.3779046237468719,0.2363954335451126,0.1779831945896148,0.0,0.0,0.959540843963623,0.4597029685974121
0.0250422470271587,0.0693582892417907,0.1218013986945152,-0.3496155440807342,0.2458497285842895,0.1890857815742492,0.0,0.0,0.9545183181762696,0.7333705425262451
0.0262815468013286,0.0622154586017131,0.1154191046953201,-0.3189033269882202,0.2545030117034912,0.173065960407257,0.0,0.0,0.7792158126831055,-0.0026643276214599
0.0275213234126567,0.0555090047419071,0.1143175140023231,-0.299771249294281,0.264373779296875,0.1974154710769653,0.0,0.0,0.7364099025726318,0.6363542079925537
0.0288820266723632,0.0487004145979881,0.1268258839845657,-0.3043003380298614,0.2738388776779175,0.1893018335103988,0.0,0.0,0.8391687870025635,0.2129738330841064
0.0300821308046579,0.0420298688113689,0.1104679852724075,-0.2982863783836365,0.2836399972438812,0.1960223168134689,0.0,0.0,0.9463858604431152,0.8669953346252441
0.0312139503657817,0.0362506732344627,0.1045747399330139,-0.2585482597351074,0.2924960851669311,0.1771215498447418,0.0,0.0,0.7899060249328613,0.5981777906417847
0.032233141362667,0.030708584934473,0.0939858108758926,-0.2479266673326492,0.3006820380687713,0.1637199521064758,0.0,1.0,0.969530463218689,0.9835081100463868
0.0328506454825401,0.0268519967794418,0.0729724243283271,-0.1694531440734863,0.2882865667343139,-0.2491077184677124,0.0,1.0,0.9707545042037964,0.492692232131958
0.0332147590816021,0.0243893004953861,0.0659677535295486,-0.103931687772274,0.2579012513160705,-0.607815146446228,0.0,1.0,0.8510873317718506,-0.1135876774787902
0.0332414619624614,0.0229349713772535,0.0432052984833717,-0.0580606423318386,0.2166416645050048,-0.8252919316291809,0.0,1.0,0.6050877571105957,-0.5331100225448608
0.0329772010445594,0.0219015702605247,0.0144309727475047,-0.0404672995209693,0.1754520088434219,-0.8238693475723267,0.0,1.0,0.3907076120376587,-0.641250729560852
0.0326053611934185,0.0207816939800977,0.0007017452735453,-0.0457343272864818,0.1375723332166671,-0.757594108581543,0.0,1.0,0.5436949729919434,-0.2118186950683593
0.0320467948913574,0.0198332648724317,-0.017262702807784,-0.0390411093831062,0.0991906821727752,-0.767634391784668,0.0,0.0,-0.9896296858787536,-0.7917490601539612
0.0314537994563579,0.0182300191372632,-0.0231760293245315,-0.0692454725503921,0.0634047016501426,-0.715720534324646,0.0,0.0,-0.7215726375579834,-0.915347695350647
0.0308430679142475,0.0159826856106519,-0.0270198322832584,-0.0987803041934967,0.0297439470887184,-0.6732159852981567,0.0,0.0,0.1937794685363769,-0.9609273672103882
0.0302410125732421,0.0134795764461159,-0.028695736080408,-0.1109179928898811,-0.0013683352153748,-0.6222462058067322,0.0,0.0,0.4981250762939453,-0.981823980808258
0.0297509189695119,0.0113730765879154,-0.0202425494790077,-0.0938925370573997,-0.0297647695988416,-0.5679293274879456,0.0,0.0,0.7230305671691895,-0.9598576426506042
0.0292188636958599,0.0098418211564421,-0.0269923061132431,-0.0687789618968963,-0.0556589104235172,-0.5178831815719604,0.0,0.0,0.1926885843276977,-0.9150078296661376
0.0288033485412597,0.0085883000865578,-0.017900014296174,-0.0567539893090724,-0.0790528133511543,-0.4678784906864166,0.0,0.0,0.2671574354171753,-0.781657338142395
0.0285967830568552,0.0080275749787688,-0.0186812877655029,-0.0250466708093881,-0.0809596329927444,-0.0380763635039329,1.0,0.0,-0.461979866027832,0.3543170690536499
0.028487205505371,0.0074298358522355,-0.0256824009120464,-0.0258395429700613,-0.0663764998316764,0.2916803658008575,1.0,0.0,-0.7855659127235413,0.1199133396148681
0.0283665657043457,0.0061583970673382,-0.0261577777564525,-0.0559430979192256,-0.0524370819330215,0.2787880301475525,1.0,0.0,-0.5816527009010315,0.1780480146408081
0.0282527916133403,0.0042783473618328,-0.0267929248511791,-0.0830892324447631,-0.0372139923274517,0.3044617176055908,1.0,0.0,0.2568742036819458,0.089575171470642
0.0280634872615337,0.0024513339158147,-0.0339041389524936,-0.0808963626623153,-0.0224222727119922,0.2958346009254455,1.0,0.0,0.5004109144210815,0.5332255363464355
0.0278041847050189,0.0006887292838655,-0.0400496758520603,-0.0781840234994888,-0.0084789898246526,0.2788653969764709,1.0,0.0,0.5816227197647095,0.4274533987045288
0.0275243762880563,7.239342085085809e-05,-0.0328347310423851,-0.0273765865713357,-0.0036838797386735,0.0959119126200676,1.0,1.0,-0.0852529406547546,0.9795339107513428
0.0274128913879394,-8.102893480099738e-05,-0.0123628135770559,-0.0068160933442413,-0.002487470395863,0.0239281561225652,1.0,1.0,-0.7102958559989929,0.0946029424667358
0.0273661613464355,-7.895469752838835e-05,-0.004677124787122,9.318313095718622e-05,-0.0024897027760744,-4.386436194181442e-05,1.0,1.0,-0.8349907994270325,-0.0840967893600463
0.0273744575679302,-7.788181392243132e-05,0.0008514992077834,4.79257978440728e-05,-0.002503101946786,-0.0002612071693874,1.0,1.0,-0.8996880650520325,0.021881103515625
0.0273949615657329,-7.781028398312628e-05,0.0020986392628401,2.481889396221959e-06,-0.0025355136021971,-0.0006312725599855,1.0,1.0,-0.6793612241744995,-0.3690904974937439
0.0274057388305664,-7.781028398312628e-05,0.0010991665767505,9.75637021838338e-07,-0.0025524776428937,-0.0003306172438897,1.0,1.0,-0.8813961148262024,0.0129966735839843
