x_pos,y_pos,x_vel,y_vel,angle,ang_vel,leg_1,leg_2,main_booster,lat_booster
-0.0015279769431799,1.4034295082092283,-0.1553249210119247,-0.3329176902770996,0.0022697572130709,0.0448108576238155,0.0,0.0,0.0764148235321044,0.8455724716186523
-0.0029541968833655,1.3962140083312988,-0.1437106281518936,-0.3206862509250641,0.0033390165772289,0.0213879328221082,0.0,0.0,-0.2569450736045837,0.6599347591400146
-0.0043199537321925,1.388798475265503,-0.1365668475627899,-0.3295760452747345,0.0033369390293955,-4.156082286499441e-05,0.0,0.0,0.0870383977890014,0.1285319328308105
-0.0057670595124363,1.3816807270050049,-0.1448746025562286,-0.3163456320762634,0.0034948419779539,0.0031585015822201,0.0,0.0,-0.4577805995941162,0.7712130546569824
-0.0071418760344386,1.374370813369751,-0.1363138854503631,-0.3248880505561828,0.0023485948331654,-0.0229272190481424,0.0,0.0,-0.3017545342445373,0.2667964696884155
-0.0085169794037938,1.366865873336792,-0.1369149386882782,-0.3335534632205963,0.0017620184225961,-0.0117328492924571,0.0,0.0,-0.2174934148788452,0.5229318141937256
-0.0098520275205373,1.3591660261154177,-0.1324769109487533,-0.3422150015830993,0.0007475947495549,-0.0202902816236019,0.0,0.0,-0.1424480080604553,0.3974125385284424
-0.0111857410520315,1.351271152496338,-0.1329329907894134,-0.3508823812007904,0.0003119540051557,-0.0087139820680022,0.0,0.0,-0.0886927843093872,0.6365954875946045
-0.0124682430177927,1.3431881666183472,-0.1271517425775528,-0.3592409491539001,-0.0007729229982942,-0.0216995105147361,0.0,0.0,-0.2702574729919433,0.8724315166473389
-0.0136792184785008,1.3349155187606812,-0.1188426464796066,-0.3676708042621612,-0.0029890034347772,-0.0443257465958595,0.0,0.0,-0.0249266028404235,0.686996579170227
-0.0148241994902491,1.3264483213424685,-0.1112991571426391,-0.3763321340084076,-0.0061590154655277,-0.0634062215685844,0.0,0.0,-0.5748493671417236,0.2254910469055175
-0.0159645080566406,1.3177862167358398,-0.111433707177639,-0.3849996924400329,-0.0087209716439247,-0.05124381929636,0.0,0.0,-0.498809278011322,0.362370491027832
-0.017099093645811,1.3089289665222168,-0.1114888414740562,-0.3936671614646911,-0.0106699578464031,-0.0389831848442554,0.0,0.0,-0.691093921661377,0.6370217800140381
-0.018171215429902,1.2998698949813845,-0.104444719851017,-0.4026482999324798,-0.013408756814897,-0.0547810122370719,0.0,0.0,-0.6005327105522156,0.4879337549209595
-0.0192359928041696,1.2906159162521362,-0.104336641728878,-0.4113158881664276,-0.0155239859595894,-0.0423079654574394,0.0,0.0,-0.6239493489265442,0.811211109161377
-0.020216941833496,1.281155347824097,-0.0946706160902977,-0.4205047190189361,-0.018915120512247,-0.0678291171789169,0.0,0.0,-0.8518233895301819,0.654339075088501
-0.021125316619873,1.2715057134628296,-0.0864324942231178,-0.4289339780807495,-0.0232695043087005,-0.0870954543352127,0.0,0.0,-0.9835608601570128,0.1264905929565429
-0.0220237728208303,1.2616610527038574,-0.0860844403505325,-0.4376019239425659,-0.0269892085343599,-0.074400782585144,0.0,0.0,-0.5138459801673889,0.0962629318237304
-0.0229114536195993,1.2516214847564695,-0.0856637880206108,-0.4462694227695465,-0.0300719588994979,-0.0616603791713714,0.0,0.0,-0.9958307147026062,-0.6337846517562866
-0.0238447189331054,0.0,-0.092292845249176,-0.4548074007034302,-0.0310874953866004,-0.0203125048428773,0.0,0.0,-0.8258775472640991,-0.230829656124115
-0.0247659683227539,1.230960726737976,-0.0917388945817947,-0.4634737074375152,-0.0314616709947586,-0.0074841626919806,0.0,0.0,-0.837994396686554,-0.0156949758529663
-0.0256744381040334,1.2203373908996582,-0.0911202281713485,-0.4721398055553436,-0.0311915427446365,0.0054028858430683,0.0,0.0,-0.829463541507721,0.5968359708786011
-0.0265122409909963,1.2095153331756592,-0.0832487866282463,-0.4809924066066742,-0.0317178033292293,-0.010526105761528,0.0,0.0,-0.901341199874878,-0.390622615814209
-0.0273360256105661,1.198498010635376,-0.0825069397687912,-0.4896584153175354,-0.0315958857536315,0.0024387254379689,0.0,0.0,-0.7889162302017212,-0.4652312994003296
-0.0281453132629394,1.1872851848602295,-0.0817110687494278,-0.4983245134353637,-0.0308252610266208,0.0154137937352061,0.0,0.0,-0.8806881904602051,-0.3978623151779175
-0.0289400108158588,1.1758558750152588,-0.0809075906872749,-0.507943868637085,-0.0294042695313692,0.0284199621528387,0.0,0.0,-0.9199770092964172,0.1385227441787719
-0.0297190658748149,1.1642311811447144,-0.0800081938505172,-0.5166079998016357,-0.0273315552622079,0.0414544194936752,0.0,0.0,-0.905643880367279,0.9537601470947266
-0.0304227825254201,1.152419090270996,-0.0716310441493988,-0.5249674320220947,-0.0260903351008892,0.0248243175446987,0.0,0.0,-0.7954310178756714,0.3226615190505981
-0.0311099998652935,1.140411615371704,-0.0706410259008407,-0.5336316823959351,-0.0241951663047075,0.0379036031663417,0.0,0.0,-0.8381893038749695,0.5403561592102051
-0.0317390449345111,1.1282055377960205,-0.0644367784261703,-0.5424701571464539,-0.022682474926114,0.0302536748349666,0.0,0.0,-0.955767810344696,0.0201973915100097
-0.0323508270084857,1.1158041954040527,-0.0633686631917953,-0.5511346459388733,-0.020514041185379,0.0433685332536697,0.0,0.0,-0.9754116535186768,0.7918405532836914
-0.0328904166817665,1.1032016277313232,-0.0554265603423118,-0.56009840965271,-0.0190608594566583,0.0290635637938976,0.0,0.0,-0.9762020111083984,0.6744694709777832
-0.0333657264709472,1.0904088020324707,-0.048505637794733,-0.5685548782348633,-0.0181076284497976,0.0190646164119243,0.0,0.0,-0.906028151512146,0.2793508768081665
-0.0338228233158588,1.077420949935913,-0.0473413877189159,-0.5772194266319275,-0.0164967700839042,0.0322173126041889,0.0,0.0,-0.8784686326980591,0.5629415512084961
-0.0342155471444129,1.0642380714416504,-0.0404086746275424,-0.5858952403068542,-0.0153775298967957,0.0223848093301057,0.0,0.0,-0.8981571197509766,-0.0431685447692871
-0.0345895774662494,1.0508601665496826,-0.0391924940049648,-0.5945600271224976,-0.0135998344048857,0.0355538800358772,0.0,0.0,-0.9538750648498536,-0.0293391346931457
-0.03494443744421,1.0372869968414309,-0.0379535183310508,-0.6032251119613647,-0.0111634014174342,0.0487287044525146,0.0,0.0,-0.9666950106620787,-0.0115498304367065
-0.0352800376713275,1.0235190391540527,-0.0366936586797237,-0.6118905544281006,-0.0080680074170231,0.0619077198207378,0.0,0.0,-0.9295374155044556,0.4522446393966675
-0.0355960838496685,1.0095562934875488,-0.0354146808385849,-0.6205564737319946,-0.0043135434389114,0.0750894173979759,0.0,0.0,-0.7756092548370361,0.861530065536499
-0.0358211509883403,0.9953991174697876,-0.0251617040485143,-0.6291999220848083,-0.0016935673775151,0.0523997917771339,0.0,0.0,-0.5550204515457153,0.4317656755447387
-0.0360264778137207,0.9810470938682556,-0.0238492153584957,-0.6378659605979919,0.0015855558449402,0.0655823498964309,0.0,0.0,-0.7945082187652588,0.4009790420532226
-0.0362117774784565,0.9665002226829528,-0.0225220918655395,-0.6465324759483337,0.0055237202905118,0.0787630677223205,0.0,0.0,-0.7431392073631287,0.8282155990600586
-0.0363008491694927,0.9517502188682556,-0.0116277262568473,-0.6555715203285217,0.0082082478329539,0.0536906234920024,0.0,0.0,-0.8525652885437012,0.4420090913772583
-0.0363697037100791,0.9368053674697876,-0.0102750053629279,-0.6642380356788635,0.0115514136850833,0.0668633356690406,0.0,0.0,-0.4506410360336303,0.765148401260376
-0.0363617911934852,0.9216575026512146,-0.0018197832396253,-0.6732538342475891,0.0141343865543603,0.0516592860221862,0.0,0.0,-0.7496657371520996,0.3865672349929809
-0.0363333709537982,0.9063151478767396,-0.0004456887836568,-0.6819207668304443,0.0173752699047327,0.064817726612091,0.0,0.0,-0.8049688339233398,0.8299610614776611
-0.0362121574580669,0.8907753825187683,0.0100177098065614,-0.6906847357749939,0.019456123933196,0.041616853326559,0.0,0.0,-0.4525800347328186,0.8625266551971436
-0.0360150337219238,0.8750516176223755,0.018362782895565,-0.6988497376441956,0.0207979418337345,0.0268362369388341,0.0,0.0,-0.4869883060455322,0.416600227355957
-0.0357972159981727,0.8591330051422119,0.0197624899446964,-0.707516610622406,0.022795982658863,0.0399609357118606,0.0,0.0,-0.6595653891563416,0.5422494411468506
-0.035517118871212,0.8430197238922119,0.0263655241578817,-0.716174304485321,0.0244090966880321,0.0322623439133167,0.0,0.0,-0.4309965968132019,0.7563226222991943
-0.0351422317326068,0.8267142176628113,0.0370753966271877,-0.7246991395950317,0.0248143430799245,0.0081050004810094,0.0,0.0,-0.7372729778289795,0.8381643295288086
-0.0346866622567176,0.8102216720581055,0.0460102930665016,-0.7329930067062378,0.0243651289492845,-0.0089839380234479,0.0,0.0,-0.5958478450775146,0.7468907833099365
-0.0341403968632221,0.7935327887535095,0.0562018081545829,-0.7417023181915283,0.0228138361126184,-0.0310258269309997,0.0,0.0,-0.460369348526001,0.2111983299255371
-0.0335731506347656,0.7766491770744324,0.0576314255595207,-0.7503692507743835,0.021914068609476,-0.0179955307394266,0.0,0.0,-0.310590386390686,0.4558854103088379
-0.0329851135611534,0.759570837020874,0.0590655691921711,-0.7590360641479492,0.0216645300388336,-0.0049908878281712,0.0,0.0,-0.5706255435943604,0.4752804040908813
-0.0323760025203228,0.7422977089881897,0.0605038329958915,-0.7677027583122253,0.0220637954771518,0.0079855034127831,0.0,0.0,-0.7407739758491516,0.7858154773712158
-0.0316741950809955,0.7248393297195435,0.0709543973207473,-0.7759155631065369,0.0213028937578201,-0.0152181759476661,0.0,0.0,-0.227818489074707,0.512763261795044
-0.0309016220271587,0.7071897983551025,0.078653983771801,-0.7844008207321167,0.019933907315135,-0.0273800529539585,0.0,0.0,-0.5108758211135864,-0.4117802381515503
-0.0301079750061035,0.6893454790115356,0.0801025778055191,-0.7930676937103271,0.0192086212337017,-0.0145058380439877,0.0,0.0,-0.1028317809104919,0.3009307384490967
-0.0292932502925395,0.6713064312934875,0.0815540254116058,-0.8017342686653137,0.0191250033676624,-0.0016722790896892,0.0,0.0,-0.0929797291755676,-0.3135123252868652
-0.0284574516117572,0.6530725359916687,0.0830080583691597,-0.8104009032249451,0.0196808483451604,0.011116980575025,0.0,0.0,0.1989569664001464,0.2215595245361328
-0.0276835449039936,0.6354051828384399,0.076529711484909,-0.7852298617362976,0.0205370690673589,0.0171244833618402,0.0,0.0,-0.526373565196991,0.5994429588317871
-0.0268313400447368,0.6175432205200195,0.0851618945598602,-0.7938657402992249,0.0205911435186862,0.0010815281420946,0.0,0.0,-0.3905609250068664,-0.4310067296028137
-0.0259581562131643,0.5994865894317627,0.086622342467308,-0.8025322556495667,0.0212767887860536,0.0137127367779612,0.0,0.0,-0.3657426238059997,-0.0725275874137878
-0.0250639915466308,0.5812350511550903,0.0880845263600349,-0.8111990094184875,0.022590884938836,0.0262817777693271,0.0,0.0,0.479303240776062,-0.1479009985923767
-0.0242716781795024,0.5635786056518555,0.0777924209833145,-0.7847543358802795,0.0240172557532787,0.0285271946340799,0.0,0.0,0.3385238647460937,0.3134411573410034
-0.0234576221555471,0.5467677712440491,0.079252079129219,-0.7471844553947449,0.0261453762650489,0.0425625853240489,0.0,0.0,-0.7153446078300476,0.3211420774459839
-0.0226225852966308,0.5297622680664062,0.0807184502482414,-0.7558517456054688,0.0288909301161766,0.0549109876155853,0.0,0.0,-0.3222635984420776,0.0822048187255859
-0.0217667575925588,0.5125621557235718,0.0821859091520309,-0.764519453048706,0.0322495736181736,0.0671729296445846,0.0,0.0,0.6390012502670288,0.3276305198669433
-0.0209983829408884,0.4958669245243072,0.0732477754354476,-0.7420889139175415,0.0357847101986408,0.0707027539610862,0.0,0.0,0.0400761365890502,0.2209887504577636
-0.0202824585139751,0.479613184928894,0.0676869079470634,-0.7224889397621155,0.0396557413041591,0.0774204581975936,0.0,0.0,-0.1179934740066528,0.7655924558639526
-0.0194820407778024,0.4631700813770294,0.0771373957395553,-0.7308825850486755,0.0425235107541084,0.0573553852736949,0.0,0.0,0.6417372226715088,-0.0302304029464721
-0.0188244823366403,0.4477820098400116,0.0628528818488121,-0.6839993596076965,0.0453909263014793,0.0573485679924488,0.0,0.0,-0.5691824555397034,0.2151368856430053
-0.0181462280452251,0.4321995079517364,0.0643237978219986,-0.6926678419113159,0.0488438084721565,0.0690576806664466,0.0,0.0,0.6691027879714966,0.4464602470397949
-0.0175007823854684,0.4170119762420654,0.0606244392693042,-0.6751333475112915,0.0527175888419151,0.0774754285812377,0.0,0.0,-0.1579570174217224,0.782178521156311
-0.0167658813297748,0.4016271829605102,0.070756696164608,-0.6838662028312683,0.0554316006600856,0.0542802922427654,0.0,0.0,0.3728456497192383,0.1135149002075195
-0.01605224609375,0.3864682018756866,0.0681675672531127,-0.6738528609275818,0.0585869848728179,0.063107818365097,0.0,0.0,0.5579702854156494,0.2389384508132934
-0.0153700830414891,0.3722341954708099,0.0645109862089157,-0.6327711343765259,0.0622599422931671,0.0734588503837585,0.0,0.0,0.4252523183822632,0.830498456954956
-0.0145684238523244,0.3588810861110687,0.0774653553962707,-0.5935866236686707,0.0649221017956733,0.0532431490719318,0.0,0.0,-0.2280759215354919,0.2405285835266113
-0.0137467384338378,0.3453335762023926,0.078936368227005,-0.6022557020187378,0.068118892610073,0.0639358311891555,0.0,0.0,-0.0761292576789856,-0.0111211538314819
-0.0129051208496093,0.3315917253494262,0.080406978726387,-0.6109250783920288,0.0718394592404365,0.0744113475084304,0.0,0.0,0.3020424842834472,0.6703354120254517
-0.0120003698393702,0.3186030983924866,0.0874857306480407,-0.5774191617965698,0.0747933313250541,0.0590776726603508,0.0,0.0,0.3316645622253418,0.3274333477020263
-0.0111920358613133,0.3061047792434692,0.0777275413274765,-0.5556376576423645,0.0778690576553344,0.0615142285823822,0.0,0.0,0.0395945310592651,0.7290307283401489
-0.0103796003386378,0.2940551042556762,0.0791464895009994,-0.5356525182723999,0.0799507647752761,0.0416339896619319,0.0,0.0,0.2761503458023071,0.2808623313903808
-0.0095999715849757,0.2826175093650818,0.0754240676760673,-0.508474588394165,0.0824618190526962,0.0502210780978202,0.0,0.0,-0.2537598609924316,0.3476076126098633
-0.0088010784238576,0.2709856033325195,0.0768902748823165,-0.5171438455581665,0.0854299217462539,0.0593620911240577,0.0,0.0,0.5907847881317139,0.7332472801208496
-0.0079278945922851,0.2596552968025207,0.0852922946214675,-0.5036861896514893,0.0874283835291862,0.0399691984057426,0.0,0.0,0.7808358669281006,-0.1231178045272827
-0.0069742202758789,0.2487922012805938,0.0924615710973739,-0.4829767346382141,0.0903133898973465,0.057699829339981,0.0,0.0,0.5111899375915527,-0.3658066987991333
-0.0059148790314793,0.2385333627462387,0.1019883751869201,-0.4561945796012878,0.0942269042134285,0.0782704427838325,0.0,0.0,0.5064659118652344,-0.4689773917198181
-0.0047443388029932,0.2286352217197418,0.1121269613504409,-0.4402362406253814,0.0991155207157135,0.0977723076939582,0.0,0.0,0.5534060001373291,-0.9335779547691344
-0.0037054060958325,0.2195923924446106,0.096734806895256,-0.4023966193199157,0.1062229126691818,0.1421480327844619,0.0,0.0,-0.0618340969085693,0.2675161361694336
-0.002648449037224,0.2103557884693145,0.0981891453266143,-0.4110694229602813,0.1136767342686653,0.1490764766931533,0.0,0.0,0.3360022306442261,0.6671724319458008
-0.0014718056190758,0.2017596364021301,0.1109856963157653,-0.3825716972351074,0.1203134804964065,0.1327350288629531,0.0,0.0,0.6164624691009521,-0.4221704006195068
-0.0002181053132517,0.1934631615877151,0.1179381757974624,-0.369352638721466,0.1277087330818176,0.1479051411151886,0.0,0.0,0.0302588939666748,0.159321904182434
0.0009799003601074,0.1854390054941177,0.1122405678033828,-0.3572927415370941,0.1352310180664062,0.1504453122615814,0.0,0.0,-0.0673219561576843,0.2942694425582886
0.0021946907509118,0.1772211343050003,0.1136795729398727,-0.365965873003006,0.143007680773735,0.1555333435535431,0.0,0.0,0.0424674749374389,0.3309500217437744
0.0033602714538574,0.1693395972251892,0.108608566224575,-0.3510757386684418,0.1509457379579544,0.1587607115507125,0.0,0.0,0.1246606111526489,-0.3643539547920227
0.0043769837357103,0.1620482802391052,0.0939131453633308,-0.3248669803142547,0.1586957275867462,0.1550002247095108,0.0,0.0,0.2723666429519653,-0.2370815277099609
0.0053909299895167,0.1553750187158584,0.0931522026658058,-0.2974876761436462,0.1669335216283798,0.164756029844284,0.0,0.0,-0.3783221244812011,0.6994185447692871
0.0064694406464695,0.1485254317522049,0.1007516756653785,-0.3052378296852112,0.1740430295467376,0.1421899497509002,0.0,0.0,0.472135066986084,-0.5261402726173401
0.0073280334472656,0.1424399763345718,0.0777890160679817,-0.271432101726532,0.182132750749588,0.1617946028709411,0.0,0.0,-0.3652462959289551,0.4445346593856811
0.0082013132050633,0.136160597205162,0.0791856944561004,-0.2801044881343841,0.1903195679187774,0.1637361943721771,0.0,0.0,-0.4099756479263305,0.3845721483230591
0.0090891839936375,0.1296873241662979,0.0805721059441566,-0.2887766063213348,0.1985761076211929,0.1651313453912735,0.0,0.0,0.0853608846664428,0.5149270296096802
0.0098563190549612,0.1235045790672302,0.0696994587779045,-0.2757458090782165,0.2056425362825393,0.1413285583257675,0.0,0.0,0.2040495872497558,0.0799641609191894
0.0106057170778512,0.1179202198982238,0.0675718113780021,-0.2492350935935974,0.2130811512470245,0.1487721651792526,0.0,0.0,-0.2758256196975708,0.2671589851379394
0.0113684656098485,0.1121416687965393,0.0689195916056633,-0.2579049170017242,0.220507800579071,0.1485333144664764,0.0,0.0,0.2584185600280761,0.7001646757125854
0.0121907237917184,0.1070831641554832,0.0761613473296165,-0.2257412075996399,0.2266529649496078,0.1229032129049301,0.0,0.0,-0.306983470916748,-0.3541340827941894
0.0130254747346043,0.1018299683928489,0.0774758830666542,-0.2344085723161697,0.2327329963445663,0.1216005831956863,0.0,0.0,-0.2863354682922363,-0.6548526883125305
0.0138325691223144,0.0963759273290634,0.0738261118531227,-0.2435096204280853,0.2397233545780182,0.1398071497678756,0.0,0.0,-0.3264659643173218,0.2252424955368042
0.0146512035280466,0.0907271206378936,0.0751014426350593,-0.252176821231842,0.2465972751379013,0.137478694319725,0.0,0.0,-0.2684131860733032,-0.0812140107154846
0.0154808042570948,0.084883414208889,0.0763541683554649,-0.2608433067798614,0.2533300817012787,0.1346559524536132,0.0,0.0,-0.0743610858917236,0.4188311100006103
0.0163209922611713,0.0788448676466941,0.0775822848081588,-0.2695090472698211,0.2598977386951446,0.1313530504703521,0.0,0.0,0.020269751548767,0.8244591951370239
0.0172184947878122,0.0730651021003723,0.0851362198591232,-0.2577053606510162,0.2646194994449615,0.0944353640079498,0.0,0.0,0.1129649877548217,0.0517510175704956
0.0179371833801269,0.0676605552434921,0.0678351745009422,-0.2409354001283645,0.2687492370605469,0.0825950354337692,0.0,0.0,0.1929588317871093,0.8786314725875854
0.0185298919677734,0.0625804513692855,0.0572522208094596,-0.2261537909507751,0.2708194553852081,0.0414046645164489,0.0,0.0,0.5611135959625244,0.8911747932434082
0.0190344806760549,0.0580929368734359,0.0504763796925544,-0.1994421631097793,0.2708016633987427,-0.000355599244358,0.0,0.0,0.69350266456604,0.9209556579589844
0.0194997787475585,0.0542392097413539,0.0485920719802379,-0.1708944141864776,0.2686890661716461,-0.0422523356974124,0.0,0.0,0.4540560245513916,0.5949571132659912
0.0200553890317678,0.0507106408476829,0.0588158778846263,-0.156232863664627,0.2653547525405884,-0.0666864365339279,0.0,0.0,0.0012968778610229,0.2227997779846191
0.020566176623106,0.0476092211902141,0.0543744042515754,-0.1372474282979965,0.2619837522506714,-0.0674196854233741,0.0,0.0,-0.2562279105186462,-0.3844133615493774
0.0210831649601459,0.0443118922412395,0.0553230158984661,-0.1459067463874817,0.258285790681839,-0.0739593654870987,0.0,0.0,0.0065768957138061,0.4488542079925537
0.0215948112308979,0.0411091186106205,0.0549463853240013,-0.1416853070259094,0.2544240355491638,-0.077234998345375,0.0,0.0,-0.3188586831092834,0.4251657724380493
