x_pos,y_pos,x_vel,y_vel,angle,ang_vel,leg_1,leg_2,main_booster,lat_booster
-0.0014703751076012,1.4029675722122192,-0.1490817070007324,-0.3534428477287292,0.0018223570659756,0.0359520986676216,0.0,0.0,-0.6270592991029493,0.6941879586806423
-0.0028268813621252,1.3943781852722168,-0.1360161006450653,-0.3817490339279175,0.002188655314967,0.0073276297189295,0.0,0.0,-0.0437116364351193,-0.9775568931458858
-0.0041868211701512,1.3851242065429688,-0.1379688680171966,-0.4112915694713592,0.0041365050710737,0.0389604195952415,0.0,0.0,0.3826044446799457,0.6719084144155028
-0.0055482862517237,1.3758379220962524,-0.1366302967071533,-0.4127219617366791,0.0046088583767414,0.0094478633254766,0.0,0.0,-0.5107714812727135,-0.6015942282685759
-0.0068883895874023,1.365896463394165,-0.1354952156543731,-0.4418503046035766,0.0060845566913485,0.0295163393020629,0.0,0.0,0.0844481966848686,0.6782049310396041
-0.0080152507871389,1.3558332920074463,-0.1130098700523376,-0.4472499191761017,0.0064038792625069,0.0063869007863104,0.0,0.0,0.4207218000697379,0.5811220692494721
-0.0090599060058593,1.3458583354949951,-0.1036317124962806,-0.4433256685733795,0.0055802534334361,-0.0164741165935993,0.0,0.0,-0.6449325535934536,-0.6245787559511267
-0.0100797656923532,1.3352280855178833,-0.1021526232361793,-0.4724586308002472,0.0057394942268729,0.0031852349638938,0.0,0.0,-0.8773280140217903,0.5900101007593668
-0.0109916683286428,1.3239479064941406,-0.0902346670627594,-0.5013412833213806,0.0047997538931667,-0.018796419724822,0.0,0.0,-0.4135669456954438,-0.984761142652024
-0.0119178770110011,1.312016487121582,-0.0936848595738411,-0.5302920937538147,0.0058564511127769,0.021135339513421,0.0,0.0,0.7027959134219424,-0.6700150259320399
-0.0127399442717432,1.3003480434417725,-0.0848927572369575,-0.5186071991920471,0.0085086543112993,0.0530489161610603,0.0,0.0,-0.3863494244680365,0.8595545832385827
-0.0134216304868459,1.2880218029022217,-0.0689621120691299,-0.5478326678276062,0.0092895729467272,0.0156199242919683,0.0,0.0,0.8799242493451898,-0.793256066484533
-0.0139461513608694,1.276238203048706,-0.055228192359209,-0.5237329006195068,0.0120332976803183,0.0548795945942401,0.0,0.0,0.8312864298378622,-0.5591787883427092
-0.0143720628693699,1.2643839120864868,-0.0467457100749015,-0.526906430721283,0.0161419995129108,0.0821815878152847,0.0,0.0,-0.4393900185329848,-0.9210163549333996
-0.0147873880341649,1.251881122589111,-0.0471247993409633,-0.5557519793510437,0.0216678734868764,0.1105275526642799,0.0,0.0,0.6494909806259184,0.6344369807198387
-0.0149737354367971,1.2391648292541504,-0.023252623155713,-0.5652368664741516,0.0262348540127277,0.0913478434085846,0.0,0.0,-0.9782333208225896,-0.8681287454587538
-0.0151459695771336,1.2258002758026123,-0.023189915344119,-0.5941014885902405,0.0321399085223674,0.1181118041276931,0.0,0.0,-0.0308887725189963,0.8949060499165971
-0.0151632307097315,1.2117756605148315,-0.0054722391068935,-0.6233987212181091,0.0358533933758735,0.0742760002613067,0.0,0.0,0.8382407728622367,-0.7226219412876526
-0.0150844575837254,1.1984434127807615,0.0023923725821077,-0.5926811099052429,0.0412776991724967,0.10849579423666,0.0,0.0,-0.0349037829771581,0.9647662427138098
-0.014871597290039,1.1844580173492432,0.0174909941852092,-0.621679961681366,0.0450368858873844,0.0751904025673866,0.0,0.0,0.8406453873783297,0.6998755825762151
-0.0144190788269042,1.171090602874756,0.0424937903881073,-0.5941945314407349,0.0477665923535823,0.0545993261039257,0.0,0.0,-0.113356891452474,-0.7926823740794144
-0.0139590259641408,1.157057285308838,0.0416950620710849,-0.6238427758216858,0.0520309060811996,0.0852936953306198,0.0,0.0,0.6292428865820683,-0.7331495300317301
-0.013375568203628,1.143177509307861,0.0522968880832195,-0.6171056628227234,0.0580184534192085,0.1197618693113327,0.0,0.0,0.8270243917880407,0.8465067894245992
-0.0125910760834813,1.1291618347167969,0.0739625841379165,-0.623103141784668,0.0624671094119548,0.0889811590313911,0.0,0.0,-0.4796293416820147,0.7227885457767049
-0.0116938594728708,1.1144955158233645,0.0863682925701141,-0.6519819498062134,0.0657941848039627,0.0665475651621818,0.0,0.0,-0.3686697492659341,-0.8505350847453741
-0.0108098983764648,1.0991473197937012,0.082934059202671,-0.6823855042457581,0.0711974650621414,0.1080652698874473,0.0,0.0,0.0740288323850064,0.7637812766077015
-0.0098272319883108,1.0838608741760254,0.0943800434470176,-0.6795900464057922,0.0750519856810569,0.0770904198288917,0.0,0.0,-0.9578265494310052,0.66335029825021
-0.0087343212217092,1.0679291486740112,0.1064734458923339,-0.7082186937332153,0.0778390169143676,0.055740900337696,0.0,0.0,0.1727940323036259,-0.9241146197655136
-0.0077960966154932,1.0521496534347534,0.0892151445150375,-0.7015618085861206,0.0824009180068969,0.0912382453680038,0.0,0.0,-0.9006866509768245,0.9455209956455968
-0.0067161559127271,1.03571879863739,0.1052551493048667,-0.730414628982544,0.0851097851991653,0.0541773848235607,0.0,0.0,-0.6722036916058509,-0.7188308715403195
-0.0056221960112452,1.0186322927474976,0.1053064689040184,-0.7596386671066284,0.0891652703285217,0.0811095386743545,0.0,0.0,-0.081331193447113,0.1897891759872436
-0.0044588088057935,1.0008893013000488,0.1122897416353225,-0.7888304591178894,0.0931801199913024,0.0802968963980674,0.0,0.0,-0.0711631178855896,-0.0142838954925537
-0.0032260895241051,0.9824894666671752,0.119265578687191,-0.8180221915245056,0.097152329981327,0.0794441550970077,0.0,0.0,0.1395121812820434,-0.1037514805793762
-0.0019920349586755,0.9637979865074158,0.1196480542421341,-0.8309787511825562,0.1008766591548919,0.0744866132736206,0.0,0.0,0.0707322359085083,0.4896858930587768
-0.0007193565252237,0.9450579881668092,0.123507834970951,-0.8331407308578491,0.1046035587787628,0.0745379030704498,0.0,0.0,0.3290921449661255,0.1849927902221679
0.0005731582641601,0.926571488380432,0.1254799664020538,-0.8218930959701538,0.1083503887057304,0.0749367028474807,0.0,0.0,-0.0247354507446289,-0.3836069107055664
0.0019344330066815,0.9074282050132751,0.1323977261781692,-0.8510845899581909,0.1120481118559837,0.0739546865224838,0.0,0.0,0.4656754732131958,0.5129776000976562
0.0033646584488451,0.8886516094207764,0.1402968615293502,-0.8347206115722656,0.1147619485855102,0.0542764663696289,0.0,0.0,-0.1536599397659301,-0.3714442253112793
0.0048631667159497,0.8692182898521423,0.1471683084964752,-0.863911509513855,0.1174243539571762,0.0532485172152519,0.0,0.0,0.2835595607757568,-0.1891382932662964
0.0063960077241063,0.8498355746269226,0.1505592763423919,-0.8616714477539062,0.1201360151171684,0.0542330741882324,0.0,0.0,0.3934764862060547,-0.489863634109497
0.0078284265473485,0.8307577967643738,0.1409822851419448,-0.8480821251869202,0.1223779469728469,0.0448385514318943,0.0,0.0,-0.0035187005996704,0.1150956153869628
0.0093279834836721,0.8110233545303345,0.1477622538805008,-0.8772727251052856,0.1245662048459053,0.0437653213739395,0.0,0.0,0.3009753227233886,0.6311991214752197
0.0109979631379246,0.7910176515579224,0.1659543514251709,-0.8892279267311096,0.1255937367677688,0.0205506961792707,0.0,0.0,0.3879432678222656,-0.2190307378768921
0.0127614019438624,0.7710317969322205,0.1749841868877411,-0.8883812427520752,0.1269527375698089,0.0271796528249979,0.0,0.0,-0.4494072794914245,-0.8725464940071106
0.0145188327878713,0.7503647804260254,0.1725567132234573,-0.91880863904953,0.1301219314336776,0.0633842125535011,0.0,0.0,-0.3019381165504455,-0.7986161112785339
0.0162846557796001,0.7290215492248535,0.1719779819250106,-0.9489921927452089,0.1347139328718185,0.0918396636843681,0.0,0.0,0.7167550325393677,0.1256171464920044
0.0181161873042583,0.7077248096466064,0.1782957017421722,-0.9469654560089112,0.1395448893308639,0.096619114279747,0.0,0.0,0.9795262813568116,-0.2445966601371765
0.0197398178279399,0.6872274279594421,0.1582057178020477,-0.9113947749137878,0.143699049949646,0.083082802593708,0.0,0.0,0.9665709733963012,-0.286095380783081
0.0211370475590229,0.6674318909645081,0.1363336592912674,-0.8801248073577881,0.1470692753791809,0.0674046725034713,0.0,0.0,0.9630632400512696,0.4791316986083984
0.0224841125309467,0.6478710770606995,0.1315056234598159,-0.8696941137313843,0.1502705514430999,0.0640256404876709,0.0,0.0,0.8753881454467773,0.926505446434021
0.0240477565675973,0.6286714673042297,0.1547495871782302,-0.8534824252128601,0.1518785655498504,0.0321602784097194,0.0,0.0,0.8519406318664551,0.4324843883514404
0.0254847519099712,0.610024631023407,0.1424444317817688,-0.8288739323616028,0.1531372368335724,0.0251731928437948,0.0,0.0,0.863670825958252,0.4867885112762451
0.0270286556333303,0.5914925932884216,0.1526092886924743,-0.8238270282745361,0.1549167186021804,0.0355896726250648,0.0,0.0,0.8553507328033447,0.2302310466766357
0.0284986495971679,0.5736321806907654,0.145250529050827,-0.7939768433570862,0.1566644757986068,0.0349555425345897,0.0,0.0,0.4042162895202636,0.4957034587860107
0.0300890915095806,0.5557586550712585,0.1567537635564804,-0.7946227788925171,0.1589512526988983,0.0457352772355079,0.0,0.0,0.7652325630187988,0.7190432548522949
0.0316058173775672,0.5379578471183777,0.1511068642139434,-0.7912061810493469,0.1595113575458526,0.0112020717933774,0.0,0.0,0.8277777433395386,0.0340301990509033
0.0331434234976768,0.5208306908607483,0.1527699381113052,-0.7613111138343811,0.1605091094970703,0.0199550930410623,0.0,0.0,0.8259563446044922,0.1521887779235839
0.0347701087594032,0.5041870474815369,0.1609978973865509,-0.739897608757019,0.1621707826852798,0.0332336314022541,0.0,0.0,0.4150176048278808,0.1765751838684082
0.0364026054739952,0.4879459738731384,0.1613283902406692,-0.7220369577407837,0.1640889644622802,0.0383637957274913,0.0,0.0,0.3298530578613281,0.4922952651977539
0.0379268638789653,0.4719690978527069,0.1508304178714752,-0.7102630138397217,0.16568623483181,0.0319453850388526,0.0,0.0,0.7755610942840576,0.4351367950439453
0.0394943244755268,0.4559377133846283,0.154935821890831,-0.7127083539962769,0.1675029993057251,0.0363351441919803,0.0,0.0,0.7802462577819824,0.8192532062530518
0.0409356132149696,0.4403580129146576,0.1442131400108337,-0.6924203038215637,0.1674169152975082,-0.001721580279991,0.0,0.0,0.7477655410766602,-0.4274789094924927
0.042467214167118,0.4249632656574249,0.1526595503091812,-0.6842630505561829,0.167905256152153,0.0097666997462511,0.0,0.0,0.5727932453155518,-0.076401948928833
0.0439746864140033,0.4097803235054016,0.1501872837543487,-0.6748613715171814,0.168470099568367,0.0112967146560549,0.0,0.0,0.8397250175476074,0.6623637676239014
0.0455190651118755,0.3946113288402557,0.1551992297172546,-0.6740923523902893,0.1677095293998718,-0.0152113456279039,0.0,0.0,0.8967254161834717,-0.5011391043663025
0.0468121543526649,0.3797417283058166,0.1295330822467804,-0.6608453989028931,0.167480006814003,-0.0045897820964455,0.0,0.0,0.7175137996673584,0.0669342279434204
0.0480268485844135,0.3655367493629455,0.1216117963194847,-0.6313177347183228,0.1673352569341659,-0.0028948900289833,0.0,0.0,0.6808881759643555,0.1693387031555175
0.0493209846317768,0.3511358499526977,0.1291880905628204,-0.6400657296180725,0.1675615459680557,0.0045256647281348,0.0,0.0,0.8379554748535156,-0.2970601320266723
0.050531767308712,0.3374902904033661,0.1207300275564193,-0.6065108776092529,0.1679148823022842,0.0070668063126504,0.0,0.0,0.8556008338928223,0.42037034034729
0.0515935905277729,0.323947548866272,0.1063318848609924,-0.6018787622451782,0.1677705943584442,-0.0028858745936304,0.0,0.0,0.8852475881576538,0.4280354976654053
0.0524660125374794,0.3108645975589752,0.0878669172525405,-0.5813934803009033,0.1671362817287445,-0.0126863550394773,0.0,0.0,0.9223588705062866,0.8022234439849854
0.0533601753413677,0.2982230186462402,0.091570571064949,-0.5616072416305542,0.1649757921695709,-0.0432094633579254,0.0,0.0,0.9010745286941528,0.6297740936279297
0.05402622371912,0.2863427698612213,0.0704521760344505,-0.5275915265083313,0.1611357629299163,-0.0768005475401878,0.0,0.0,0.9399796724319458,0.084519624710083
0.0547074303030967,0.2748305797576904,0.0715499743819236,-0.5112837553024292,0.157700315117836,-0.0687090307474136,0.0,0.0,0.8982269763946533,0.0075596570968627
0.0553170219063758,0.2633183300495147,0.0645594000816345,-0.511277437210083,0.1540948450565338,-0.0721098035573959,0.0,0.0,0.9623136520385742,-0.36629319190979
0.0559828765690326,0.2517403364181518,0.0698054507374763,-0.514246940612793,0.1508759111166,-0.0643787086009979,0.0,0.0,0.9297723770141602,-0.260066270828247
0.0565868392586708,0.2400853186845779,0.0637836828827858,-0.5176601409912109,0.1475029587745666,-0.0674589648842811,0.0,0.0,0.9843504428863524,0.0574920177459716
0.0570737831294536,0.2291851192712783,0.0521012470126152,-0.4841226041316986,0.1441040188074112,-0.0679788440465927,0.0,0.0,0.9874587059020996,0.0263410806655883
0.0575464256107807,0.2191057354211807,0.0502060577273368,-0.4476908147335052,0.1411748528480529,-0.0585831888020038,0.0,0.0,0.9756338596343994,-0.5456960201263428
0.0577274337410926,0.209787517786026,0.0203377921134233,-0.4139338433742523,0.1389444470405578,-0.0446077920496463,0.0,0.0,0.9303627014160156,0.38306725025177
0.0577335357666015,0.2003561556339264,0.0035159047693014,-0.4189039170742035,0.1360468715429306,-0.0579511225223541,0.0,0.0,0.9766387939453124,0.6823248863220215
0.0577425956726074,0.191701278090477,0.0050132134929299,-0.3842892944812774,0.1319507956504821,-0.0819214284420013,0.0,0.0,0.7256861925125122,0.5271059274673462
0.0576273910701274,0.1832698434591293,-0.0060747722163796,-0.3742595911026001,0.1265292465686798,-0.1084312573075294,0.0,0.0,0.8890612125396729,0.4158929586410522
0.0573761947453022,0.1753234267234802,-0.0194273721426725,-0.3527006506919861,0.1208615005016326,-0.1133547648787498,0.0,0.0,0.530648946762085,-0.1369025707244873
0.0570582374930381,0.1676834225654602,-0.0260836780071258,-0.3391043543815613,0.1151901185512542,-0.1134277135133743,0.0,0.0,0.8075101375579834,0.0137302875518798
0.0567830093204975,0.1603520512580871,-0.0223128907382488,-0.3254480957984924,0.1100114360451698,-0.1035736352205276,0.0,0.0,0.1325277090072631,-0.0952478647232055
0.0565176978707313,0.1527167707681656,-0.0214448291808366,-0.3389796316623688,0.1049631237983703,-0.1009662002325058,0.0,0.0,0.7552750110626221,-0.0323607325553894
0.0563238151371479,0.1450786888599395,-0.0148245366290211,-0.3391550183296203,0.1004296466708183,-0.0906694754958152,0.0,0.0,0.6243393421173096,-0.7990397810935974
0.0561867728829383,0.1376363188028335,-0.0110829351469874,-0.3305959701538086,0.0978318303823471,-0.0519561171531677,0.0,0.0,0.860285758972168,-0.4662442207336426
0.0561779960989952,0.1302233338356018,0.0009443323942832,-0.3293497264385223,0.0960263162851333,-0.0361101031303405,0.0,0.0,0.9193727970123292,-0.853306770324707
0.056024931371212,0.123452216386795,-0.0152628924697637,-0.3009355962276459,0.0959748104214668,-0.0010299619752913,0.0,0.0,0.9367492198944092,-0.863781213760376
0.055770494043827,0.1173545941710472,-0.0272797551006078,-0.2711268067359924,0.0977953299880027,0.0364105366170406,0.0,0.0,0.8984614610671997,-0.7203218340873718
0.0555500015616416,0.1117616519331932,-0.0257812924683094,-0.2488226145505905,0.1014924496412277,0.0739424675703048,0.0,0.0,0.5090205669403076,0.2460416555404663
0.0554011352360248,0.1059711575508117,-0.0191254895180463,-0.2576470673084259,0.1056955829262733,0.0840628743171691,0.0,0.0,0.4707419872283935,-0.5777406096458435
0.0551176071166992,0.1001835912466049,-0.0337150208652019,-0.2576121389865875,0.1110188141465187,0.1064648255705833,0.0,0.0,0.4795620441436767,0.5886878967285156
0.0548838600516319,0.0949199497699737,-0.0278217736631631,-0.2342752069234848,0.1154365018010139,0.0883537083864212,0.0,0.0,0.5687801837921143,0.2995682954788208
0.054572582244873,0.0898013710975647,-0.035561230033636,-0.2278421074151992,0.1198409721255302,0.0880894809961319,0.0,0.0,0.4794671535491943,0.7791004180908203
0.0541190132498741,0.0850830376148223,-0.0481149069964885,-0.2099278718233108,0.1225851848721504,0.054884236305952,0.0,0.0,0.4383933544158935,0.5689146518707275
0.0537218078970909,0.0806387960910797,-0.0416188165545463,-0.1976771354675293,0.1244735717773437,0.0377679988741874,0.0,0.0,0.0398375988006591,0.7691397666931152
0.0532906539738178,0.0762503445148468,-0.0435500144958496,-0.1950759291648864,0.1249019652605056,0.0085677662864327,0.0,0.0,0.5162632465362549,0.3663687705993652
0.0527010932564735,0.0722139477729797,-0.0591304972767829,-0.1794112622737884,0.1250792741775512,0.0035461310762912,0.0,0.0,-0.2114230990409851,0.907666802406311
0.0521818175911903,0.0675308108329773,-0.0504658035933971,-0.2080177366733551,0.1236229911446571,-0.0291256047785282,0.0,0.0,0.5561672449111938,0.5645027160644531
0.0515201576054096,0.0630211904644966,-0.0633844807744026,-0.2001977264881134,0.1208542808890342,-0.0553743429481983,0.0,0.0,0.4872019290924072,0.6323206424713135
0.0507044792175293,0.0585381127893924,-0.0773018971085548,-0.1989102214574813,0.1166198030114173,-0.0846896320581436,0.0,0.0,0.4157972335815429,0.8238712549209595
0.0499823577702045,0.0543501488864421,-0.0665375664830207,-0.1856951713562011,0.1109788492321968,-0.1128191500902175,0.0,0.0,0.235994815826416,0.5621784925460815
0.0493227951228618,0.0499285794794559,-0.0593526437878608,-0.1960400193929672,0.1044274196028709,-0.1310289204120636,0.0,0.0,0.5794668197631836,0.7251381874084473
0.0487934127449989,0.0459775067865848,-0.0452828668057918,-0.1750871837139129,0.096833661198616,-0.1518751382827758,0.0,0.0,0.5771980285644531,0.180850863456726
0.0481679923832416,0.0424733981490135,-0.0549003668129444,-0.1552607715129852,0.0892533585429191,-0.1516060084104538,0.0,0.0,-0.0360559821128845,0.002808928489685
0.0475392341613769,0.0383134707808494,-0.0553428120911121,-0.1844572126865387,0.0817890986800193,-0.149285078048706,0.0,0.0,0.5449943542480469,-0.1201388835906982
0.0469335541129112,0.0343165509402751,-0.05348576977849,-0.1772688031196594,0.0747722685337066,-0.1403365284204483,0.0,0.0,0.2539290189743042,-0.4588193297386169
0.046271800994873,0.0305899232625961,-0.0591734275221824,-0.1652934700250625,0.067848764359951,-0.1384702771902084,0.0,0.0,0.4590803384780884,0.1701350212097168
0.0456117615103721,0.0272536128759384,-0.0593730099499225,-0.147995263338089,0.0612928196787834,-0.1311191916465759,0.0,0.0,0.0324987173080444,-0.0844719409942627
0.0449794754385948,0.0236947871744632,-0.0569533593952655,-0.1579282581806183,0.0550904609262943,-0.1240471601486206,0.0,0.0,0.408689022064209,-0.6733555793762207
0.0441448204219341,0.0202564094215631,-0.0784628838300705,-0.1526385843753814,0.0501390919089317,-0.0990272834897041,0.0,0.0,0.2028224468231201,0.19146728515625
0.043192483484745,0.0167161803692579,-0.0899081230163574,-0.1571763902902603,0.0448775365948677,-0.1052312478423118,0.0,0.0,0.7618677616119385,0.7122538089752197
0.0422389023005962,0.0134222842752933,-0.0886671394109726,-0.1462121307849884,0.0382659547030925,-0.132231667637825,0.0,0.0,0.4034334421157837,0.4107809066772461
0.0412841811776161,0.0101526351645588,-0.0890036299824714,-0.145165666937828,0.0318793915212154,-0.1277315318584442,0.0,0.0,0.8141555786132812,0.8129866123199463
0.0405326858162879,0.0068221185356378,-0.0674796029925346,-0.1478799879550933,0.0243124272674322,-0.1513394117355346,0.0,0.0,0.6670832633972168,-0.7071632146835327
0.0398099906742572,0.0038751221727579,-0.0663895681500434,,0.0185020770877599,-0.1162068620324134,0.0,0.0,0.563475489616394,-0.2386707067489624
0.0390910133719444,0.001417217310518,-0.0662559047341346,-0.109180063009262,0.0129245417192578,-0.1115505322813987,0.0,0.0,-0.2884327173233032,-0.0121406316757202
0.0383661277592182,-0.0016970420256257,-0.0669659674167633,-0.1383735686540603,0.0074699078686535,-0.1090928092598915,0.0,0.0,0.6773190498352051,-0.1117801070213317
0.0377498641610145,-0.0032129550818353,-0.05711205676198,-0.0674122348427772,0.0028883393388241,-0.0918104201555252,1.0,1.0,0.0563681125640869,0.9905694723129272
