x_pos,y_pos,x_vel,y_vel,angle,ang_vel,leg_1,leg_2,main_booster,lat_booster
-0.0014904976123943,1.4034481048583984,-0.1510481089353561,-0.3320890069007873,0.0017989408224821,0.0354880690574646,0.0,0.0,-0.2367314100265503,0.767052412033081
-0.0028796195983886,1.3958193063735962,-0.1390608847141266,-0.3390561044216156,0.0019526297692209,0.0030746879056096,0.0,0.0,-0.2804940938949585,0.566197395324707
-0.0041756629943847,1.3880096673965454,-0.1284245401620865,-0.3470921218395233,0.0007848472450859,-0.0233579277992248,0.0,0.0,-0.01650071144104,0.4809483289718628
-0.0054305074736475,1.380023717880249,-0.1243505850434303,-0.3549341857433319,-0.0003382854338269,-0.0224647428840398,0.0,0.0,-0.2392410039901733,0.7165066003799438
-0.00657320022583,1.3718634843826294,-0.1114501804113388,-0.362675279378891,-0.0031393780373036,-0.0560268685221672,0.0,0.0,0.1028573513031005,-0.0567721724510192
-0.007577228359878,1.3640705347061155,-0.098048411309719,-0.3463632464408874,-0.00546032236889,-0.0464228987693786,0.0,0.0,-0.1395977735519409,-0.7209367752075195
-0.0085916519165039,1.3561015129089355,-0.1006296873092651,-0.3541800081729889,-0.0062616756185889,-0.0160288605839014,0.0,0.0,-0.6268804669380188,0.5061585903167725
-0.0095056537538766,1.3479572534561155,-0.0893636792898178,-0.3619771003723144,-0.0082759615033864,-0.0402892120182514,0.0,0.0,-0.5925873517990112,-0.4570841789245605
-0.0103667257353663,1.3396366834640503,-0.0841059535741806,-0.3698159456253052,-0.010252995416522,-0.0395443886518478,0.0,0.0,-0.778260350227356,-0.6208047866821289
-0.0112216947600245,1.3311444520950315,-0.0847708284854888,-0.3774406015872955,-0.01096404902637,-0.0142224933952093,0.0,0.0,-0.8089258670806885,-0.1065908670425415
-0.0120194433256983,1.322475790977478,-0.079088769853115,-0.3852793276309967,-0.0116429170593619,-0.0135785583406686,0.0,0.0,-0.911756694316864,0.1962635517120361
-0.012758064083755,1.3136308193206787,-0.0732025951147079,-0.3931180238723755,-0.012290540151298,-0.0129535179585218,0.0,0.0,-0.6221517324447632,-0.0125492215156555
-0.0134354587644338,1.3046094179153442,-0.0671199411153793,-0.4009568095207214,-0.0129089569672942,-0.0123696699738502,0.0,0.0,-0.7818794846534729,0.146406888961792
-0.0140499118715524,1.2954115867614746,-0.0608482733368873,-0.4087955057621002,-0.0134999975562095,-0.0118219163268804,0.0,0.0,-0.6901958584785461,0.1312067508697509
-0.0145996091887354,1.2860374450683594,-0.0543950609862804,-0.4166342318058014,-0.0140654584392905,-0.0113101322203874,0.0,0.0,-0.9459275007247924,-0.7033129930496216
-0.0151282306760549,1.2764796018600464,-0.0534719005227088,-0.4247868359088897,-0.0134658627212047,0.0119931725785136,0.0,0.0,-0.9326973557472228,-0.3026829957962036
-0.0155887603759765,1.2667453289031982,-0.0466818213462829,-0.4326257407665252,-0.0128449285402894,0.0124197304248809,0.0,0.0,-0.7992284297943115,-0.6603180766105652
-0.0160194393247365,1.2568299770355225,-0.0447319969534873,-0.4406713247299194,-0.0112030608579516,0.0328404232859611,0.0,0.0,-0.7552578449249268,-0.0297647714614868
-0.0163789745420217,1.2467381954193115,-0.0376341193914413,-0.4485103487968445,-0.0095436070114374,0.0331921763718128,0.0,0.0,-0.7990828156471252,-0.2777892351150512
-0.0166659355163574,1.2364699840545654,-0.030391588807106,-0.4563494026660919,-0.007867781445384,0.0335196405649185,0.0,0.0,-0.9757069945335388,-0.0723670721054077
-0.0168788917362689,1.2260255813598633,-0.0230118855834007,-0.4641885757446289,-0.0061776312068104,0.033806212246418,0.0,0.0,-0.8731400370597839,-0.9513695240020752
-0.0170905105769634,1.215400218963623,-0.0247555840760469,-0.4722290635108948,-0.0026216641999781,0.0711255669593811,0.0,0.0,-0.7659039497375488,-0.2179988026618957
-0.0172258373349905,1.2045986652374268,-0.0171279571950435,-0.4800690114498138,0.0009439092245884,0.0713178217411041,0.0,0.0,-0.9941034913063048,-0.656731128692627
-0.0173294059932231,1.1936135292053225,-0.0151433795690536,-0.4882373511791229,0.0056724213063716,0.0945786088705062,0.0,0.0,-0.9640679955482484,0.4598298072814941
-0.0173545833677053,1.1824523210525513,-0.0072915470227599,-0.496078222990036,0.0104069635272026,0.094699241220951,0.0,0.0,-0.8995624780654907,0.1398999691009521
-0.0172997470945119,1.1710937023162842,0.000680462049786,-0.5048729777336121,0.015146842226386,0.0947974622249603,0.0,0.0,-0.9645069241523744,0.823350191116333
-0.0170987136662006,1.1595653295516968,0.0169700924307107,-0.512400209903717,0.0182427410036325,0.0619178302586078,0.0,0.0,-0.8348135948181152,-0.3161040544509887
-0.0168160442262887,1.1478610038757324,0.0251307431608438,-0.5202378630638123,0.0213415101170539,0.0619754008948802,0.0,0.0,-0.8778412938117981,0.2552859783172607
-0.0164508819580078,1.1359803676605225,0.0333784148097038,-0.5280755758285522,0.0244419276714324,0.0620084702968597,0.0,0.0,-0.8775619864463806,0.3378491401672363
-0.0160024650394916,1.1239235401153564,0.0417078547179698,-0.5359132885932922,0.0275427941232919,0.0620171204209327,0.0,0.0,-0.9586116671562196,0.7824234962463379
-0.0154062267392873,1.1117018461227417,0.0581056997179985,-0.5432118773460388,0.0290373768657445,0.0298915561288595,0.0,0.0,-0.8975805640220642,-0.4701130986213684
-0.0147252082824707,1.0993038415908811,0.0665837526321411,-0.551048994064331,0.0305299311876297,0.0298512913286685,0.0,0.0,-0.8908042907714844,-0.3851192593574524
-0.0139588359743356,1.086729645729065,0.0751291140913963,-0.5588859915733337,0.0320192612707614,0.0297863781452178,0.0,0.0,-0.8923633098602295,-0.2505176067352295
-0.0131064411252737,1.073979139328003,0.0837374031543731,-0.5667230486869812,0.0335040912032127,0.0296967811882495,0.0,0.0,-0.7951356172561646,-0.721854567527771
-0.0122229577973485,1.0610511302947998,0.0854312181472778,-0.5746489763259888,0.036380048841238,0.057519108057022,0.0,0.0,-0.8310758471488953,-0.13070809841156
-0.0112524032592773,1.0479469299316406,0.0941530987620353,-0.5824867486953735,0.0392490364611148,0.0573797821998596,0.0,0.0,-0.8982782363891602,-0.2400670051574707
-0.0101941106840968,1.0346662998199463,0.10292599350214,-0.5903242826461792,0.0421098060905933,0.0572153516113758,0.0,0.0,-0.7406760454177856,-0.6704695820808411
-0.0090975761413574,1.0212116241455078,0.1055010706186294,-0.5981075763702393,0.0462097935378551,0.0819998532533645,0.0,0.0,-0.8184255957603455,-0.4253515005111694
-0.00791254080832,1.0075808763504028,0.1143653988838195,-0.605945885181427,0.050299022346735,0.081784576177597,0.0,0.0,-0.8612846732139587,-0.7783785462379456
-0.0066972733475267,0.9937705993652344,0.115910455584526,-0.6139870882034302,0.0558521449565887,0.1110624074935913,0.0,0.0,-0.9193270206451416,-0.0052592158317565
-0.0053927423432469,0.9797844886779784,0.12485321611166,-0.6218264698982239,0.0613919161260128,0.1107954829931259,0.0,0.0,-0.9255146384239196,-0.6275294423103333
-0.0040379525162279,0.9656174182891846,0.1288918256759643,-0.6299315094947815,0.0679104030132293,0.130369946360588,0.0,0.0,-0.8999143242835999,-0.2616958618164062
-0.0025932311546057,0.951274573802948,0.1379011273384094,-0.6377719044685364,0.0744129419326782,0.1300506442785263,0.0,0.0,-0.8776183128356934,-0.4691017866134643
-0.0010582923423498,0.9367558360099792,0.1469395160675048,-0.6456122994422913,0.0808981731534004,0.1297048926353454,0.0,0.0,-0.9510809779167176,-0.8684824109077454
0.0004945754772052,0.9220424890518188,0.1468837559223175,-0.6544047594070435,0.0892145186662674,0.166327029466629,0.0,0.0,-0.8501518368721008,0.3998928070068359
0.0021379471290856,0.90715354681015,0.1559728980064392,-0.662247359752655,0.0975108966231346,0.1659277975559234,0.0,0.0,-0.8940823078155518,-0.164668321609497
0.0038722038734704,0.8920894265174866,0.1650836318731308,-0.6700897812843323,0.1057859882712364,0.1655018031597137,0.0,0.0,-0.9331766366958618,-0.1765657663345337
0.0056974412873387,0.8768495917320251,0.1742136180400848,-0.6779321432113647,0.1140384376049041,0.1650490760803222,0.0,0.0,-0.932928740978241,-0.2738519310951233
0.007613849826157,0.8614344000816345,0.183360606431961,-0.6857745051383972,0.1222669035196304,0.1645694375038147,0.0,0.0,-0.9323251843452454,0.0037109851837158
0.0096214292570948,0.8458438515663147,0.1925223916769027,-0.6936167478561401,0.1304700672626495,0.1640628725290298,0.0,0.0,-0.6518845558166504,0.585411548614502
0.0117774009704589,0.8300884962081909,0.2088354378938675,-0.7008415460586548,0.1371987164020538,0.1345729827880859,0.0,0.0,-0.7999768853187561,-0.8008142709732056
0.0139556881040334,0.8141486048698425,0.2093408405780792,-0.7092410326004028,0.1456499844789505,0.1690253913402557,0.0,0.0,-0.6213732361793518,0.4106857776641845
0.0162253379821777,0.7980334162712097,0.2185343503952026,-0.7170835733413696,0.1540718674659729,0.1684377491474151,0.0,0.0,-0.6545393466949463,0.5162997245788574
0.0186266899108886,0.7817568182945251,0.2327796518802642,-0.7241893410682678,0.1614218205213546,0.1469990015029907,0.0,0.0,-0.9677938222885132,-0.4705511331558227
0.0211196895688772,0.7653043270111084,0.2419836819171905,-0.7320302128791809,0.1687397509813308,0.1463582217693328,0.0,0.0,-0.934859812259674,-0.4372915029525757
0.0237042419612407,0.7486762404441833,0.2511900663375854,-0.7398710250854492,0.1760242879390716,0.1456908881664276,0.0,0.0,-0.7724308371543884,-0.0435196161270141
0.0263805389404296,0.7318724393844604,0.2603967785835266,-0.7477117776870728,0.1832741498947143,0.1449972689151764,0.0,0.0,-0.7933142185211182,-0.3004875183105469
0.0291483886539936,0.7148928046226501,0.2696017324924469,-0.7555524110794067,0.1904880404472351,0.1442777216434478,0.0,0.0,-0.957303822040558,-0.8430504202842712
0.0319494232535362,0.6977297067642212,0.2714928686618805,-0.763939619064331,0.1991410851478576,0.1730610132217407,0.0,0.0,-0.9334669709205629,0.261944055557251
0.0348418243229389,0.6803910136222839,0.280688613653183,-0.7717819809913635,0.2077556252479553,0.1722907423973083,0.0,0.0,-0.8846673965454102,-0.0074324607849121
0.0378256812691688,0.6628770232200623,0.2898763120174408,-0.7796242833137512,0.216330423951149,0.1714962422847747,0.0,0.0,-0.9339489936828612,-0.4915022850036621
0.0409005172550678,0.6451873183250427,0.2990536689758301,-0.7874664664268494,0.2248643040657043,0.170678049325943,0.0,0.0,-0.9283087849617004,0.0505937337875366
0.0440666191279888,0.6273221969604492,0.3082184195518493,-0.795308530330658,0.2333561480045318,0.1698368489742279,0.0,0.0,-0.6859650611877441,0.2204705476760864
0.0473235137760639,0.6092814803123474,0.31736820936203,-0.803150475025177,0.2418048083782196,0.1689733266830444,0.0,0.0,-0.4040590524673462,-0.3956581354141235
0.050671100616455,0.5910651683807373,0.3265004456043243,-0.8109923005104065,0.2502091825008392,0.1680883765220642,0.0,0.0,0.0428485870361328,-0.8352851867675781
0.0538640022277832,0.5731576085090637,0.3094616830348968,-0.7975977063179016,0.2602413296699524,0.200642392039299,0.0,0.0,0.6602528095245361,0.7602028846740723
0.0570051185786724,0.5563620924949646,0.3058193624019623,-0.7479624152183533,0.2687258422374725,0.1696904450654983,0.0,0.0,-0.0995778441429138,0.2940707206726074
0.060236357152462,0.539391040802002,0.3148830533027649,-0.7558041214942932,0.2771631777286529,0.1687468588352203,0.0,0.0,0.5300816297531128,0.2596502304077148
0.0633650794625282,0.5233953595161438,0.3045819997787475,-0.7125138640403748,0.2856681942939758,0.170100912451744,0.0,0.0,0.5200380086898804,0.8353762626647949
0.066431239247322,0.5078340172767639,0.3001821637153625,-0.6928882598876953,0.292296290397644,0.1325627118349075,0.0,0.0,0.5153794288635254,-0.0911670923233032
0.0693268775939941,0.4929524660110473,0.2835667729377746,-0.6626207232475281,0.2984851002693176,0.1237769946455955,0.0,0.0,-0.6007827520370483,0.6387847661972046
0.0723614692687988,0.4779191613197326,0.2988463044166565,-0.6691006422042847,0.3032566010951996,0.0954297557473182,0.0,0.0,0.0044149160385131,-0.415712833404541
0.0752562507987022,0.4634094834327698,0.2852745354175567,-0.6457568407058716,0.3076147139072418,0.0871619284152984,0.0,0.0,0.1036605834960937,0.1471134424209594
0.0781689658761024,0.4492974281311035,0.2868900895118713,-0.6281388401985168,0.3121480941772461,0.0906675308942794,0.0,0.0,0.2777488231658935,0.0370104312896728
0.0810512527823448,0.4354288280010223,0.2840208411216736,-0.6172947287559509,0.3165085017681122,0.0872082933783531,0.0,0.0,0.3296049833297729,-0.2275721430778503
0.0839907675981521,0.4217823147773742,0.2895635664463043,-0.6074751019477844,0.3210692405700683,0.0912146046757698,0.0,0.0,0.2689220905303955,0.084965705871582
0.0869110077619552,0.4083191156387329,0.2878075838088989,-0.5993069410324097,0.3254644274711609,0.0879040360450744,0.0,0.0,0.1362700462341308,-0.1057811379432678
0.0897368416190147,0.3954521715641022,0.2784442603588104,-0.572801411151886,0.3297793567180633,0.086299143731594,0.0,0.0,0.0489952564239501,-0.2622052431106567
0.0925277695059776,0.3831686675548553,0.2747796177864074,-0.5469221472740173,0.3342755138874054,0.0899232327938079,0.0,0.0,-0.0147362947463989,0.2026028633117675
0.0954024344682693,0.3707089126110077,0.2832238972187042,-0.5547592043876648,0.3387175798416137,0.0888419151306152,0.0,0.0,0.1117722988128662,0.2670478820800781
0.0982039421796798,0.358344703912735,0.2763482332229614,-0.5504192113876343,0.3427028059959411,0.0797045677900314,0.0,0.0,0.8544543981552124,-0.3004909753799438
0.1008320823311805,0.3470804989337921,0.2588622272014618,-0.501574695110321,0.3468433618545532,0.0828109160065651,0.0,0.0,0.7659115791320801,-0.1498661041259765
0.103230282664299,0.3364525139331817,0.2364052087068557,-0.4731830060482025,0.3504288792610168,0.071710504591465,0.0,0.0,0.5757877826690674,0.7044661045074463
0.1054840087890625,0.3265606760978699,0.2234901934862136,-0.4400989711284637,0.3524021506309509,0.0394658185541629,0.0,0.0,0.776864767074585,0.1502882242202758
0.1075448021292686,0.3175443112850189,0.2043115347623825,-0.4011599123477936,0.3542623817920685,0.0372050032019615,0.0,0.0,0.7791998386383057,0.2597594261169433
0.1095539107918739,0.3092818260192871,0.1987701058387756,-0.3677490055561065,0.3565038442611694,0.0448300018906593,0.0,0.0,0.1295722723007202,0.2271794080734253
0.1115724593400955,0.3011802434921264,0.199705958366394,-0.3606038987636566,0.3587677180767059,0.0452773980796337,0.0,0.0,0.4603281021118164,0.1056010723114013
0.1136174201965332,0.2934452593326568,0.202031210064888,-0.3443939983844757,0.3613589406013489,0.0518242008984088,0.0,0.0,0.6993449926376343,0.2756445407867431
0.1156689673662185,0.2864382565021515,0.2020971775054931,-0.3122009634971618,0.3645989894866943,0.0648008435964584,0.0,0.0,0.7074220180511475,0.260809063911438
0.1177810654044151,0.2799030542373657,0.2075536698102951,-0.291386067867279,0.368455171585083,0.0771234855055809,0.0,0.0,0.5567512512207031,0.4610522985458374
0.1197022423148155,0.2741792201995849,0.1885527372360229,-0.2553189396858215,0.3722374141216278,0.0756446793675422,0.0,0.0,0.7911133766174316,-0.3773097991943359
0.1214228644967079,0.2694463729858398,0.1683862656354904,-0.2113101184368133,0.376126766204834,0.0777871832251548,0.0,0.0,0.7711509466171265,-0.6255559325218201
0.1230329498648643,0.2655892074108124,0.1558534055948257,-0.1727982014417648,0.3816059827804565,0.109584167599678,0.0,0.0,0.9931795597076416,-0.3812344074249267
0.1246717423200607,0.262172132730484,0.1582547575235366,-0.1533901691436767,0.3876028656959533,0.1199373826384544,0.0,0.0,0.9953705072402954,-0.5535368323326111
0.1260359734296798,0.259368896484375,0.1299615055322647,-0.1263640224933624,0.3945066630840301,0.1380753368139267,0.0,0.0,0.9584624767303468,-0.3173872232437134
0.1271570175886154,0.2578638792037964,0.105261780321598,-0.0688058510422706,0.4018328189849853,0.1465230733156204,0.0,0.0,0.7661101818084717,-0.1589515805244445
0.1280715018510818,0.2570081949234009,0.0847721025347709,-0.0399354100227355,0.4090039730072021,0.1434231102466583,0.0,0.0,0.3278399705886841,-0.1379508376121521
0.1286911964416504,0.2567969858646393,0.0557829663157463,-0.0111936870962381,0.4156749546527862,0.1334198862314224,0.0,0.0,-0.6340616345405579,-0.1937355399131775
0.1293589621782302,0.2564098238945007,0.0606392323970794,-0.0190328042954206,0.4223107099533081,0.1327151507139206,0.0,0.0,-0.4380732774734497,0.5283606052398682
0.1301046311855316,0.2558731734752655,0.0694125443696975,-0.0254090242087841,0.4279086291790008,0.1119583696126937,0.0,0.0,-0.1314765214920044,0.1897313594818115
0.1308916062116623,0.2551604211330414,0.0735617205500602,-0.0332472585141658,0.4334763288497925,0.1113540083169937,0.0,0.0,-0.3195376396179199,0.0022093057632446
0.1317157745361328,0.2542716264724731,0.0773306638002395,-0.0410855412483215,0.4390165209770202,0.1108040064573288,0.0,0.0,0.142702579498291,0.655107855796814
0.1323607414960861,0.2537468671798706,0.0607960633933544,-0.0244873184710741,0.4430572986602783,0.0808154493570327,0.0,0.0,-0.3238152265548706,0.6437022686004639
0.133069708943367,0.2530688643455505,0.0681310594081878,-0.0310109071433544,0.4460715353488922,0.0602848045527935,0.0,0.0,-0.3552284240722656,0.474725604057312
0.1338035613298416,0.2522144913673401,0.0706582739949226,-0.0388478077948093,0.4490672051906585,0.0599135346710681,0.0,0.0,0.138784646987915,-0.0668753385543823
0.1344859153032302,0.2515550255775451,0.0653330460190773,-0.0302439853549003,0.4522431492805481,0.0635182857513427,0.0,0.0,-0.2717194557189941,0.3761615753173828
0.1351842880249023,0.2507193088531494,0.0669620782136917,-0.03808119520545,0.455407053232193,0.063277743756771,0.0,0.0,-0.3167458772659302,0.8835349082946777
0.1359518021345138,0.2497576624155044,0.07550098747015,-0.0431467033922672,0.4567750096321106,0.0273593477904796,0.0,0.0,-0.1492308378219604,0.97557270526886
0.1368073523044586,0.2486921399831771,0.0866274237632751,-0.0470032505691051,0.455598384141922,-0.0235325898975133,0.0,0.0,-0.6708210706710815,0.702866792678833
0.1377206742763519,0.2474913746118545,0.0939060598611831,-0.0525280311703681,0.452764630317688,-0.0566748082637786,0.0,0.0,-0.4812262058258056,0.6618373394012451
0.1386752128601074,0.2461539804935455,0.0992877706885337,-0.0582042261958122,0.4485572874546051,-0.0841471850872039,0.0,0.0,-0.3369019627571106,0.754063606262207
0.1396786719560623,0.2446887791156768,0.1057771444320678,-0.0633905753493309,0.4426134824752807,-0.1188753023743629,0.0,0.0,-0.2645596265792846,0.4016402959823608
0.1406696289777755,0.2430476993322372,0.1045402884483337,-0.0712304785847663,0.4366791844367981,-0.1186861172318458,0.0,0.0,-0.0921355485916137,0.964127779006958
0.141697496175766,0.2412705719470977,0.1097008809447288,-0.076850302517414,0.4291556179523468,-0.1504715979099273,0.0,0.0,0.4899433851242065,-0.6080441474914551
0.1423529684543609,0.2398412078619003,0.0715439468622207,-0.0617093406617641,0.4226496517658233,-0.1301184296607971,0.0,0.0,-0.3146425485610962,0.7373358011245728
0.1430327445268631,0.2382702231407165,0.0753539502620697,-0.0676347091794014,0.414688229560852,-0.1592289209365844,0.0,0.0,0.0574033260345459,0.6760320663452148
0.1436102837324142,0.2370349019765854,0.066400907933712,-0.0523873530328273,0.4053671658039093,-0.1864213198423385,0.0,0.0,-0.6843973994255066,0.8227455615997314
0.144226461648941,0.2356644719839096,0.0722088366746902,-0.0579226166009902,0.3940112590789795,-0.2271182239055633,0.0,0.0,-0.86713045835495,-0.149837851524353
0.1448027640581131,0.2341193705797195,0.0682545453310012,-0.0657704770565033,0.3826871514320373,-0.2264821082353592,0.0,0.0,-0.8939653635025024,0.7325849533081055
0.1453890800476074,0.2324399501085281,0.070755161345005,-0.0714400187134742,0.3698161542415619,-0.2574196755886078,0.0,0.0,-0.8360516428947449,0.5893270969390869
0.1459769308567047,0.2306084036827087,0.0722020342946052,-0.0780024081468582,0.3556515872478485,-0.2832919955253601,0.0,0.0,-0.9733563661575316,-0.6816213130950928
0.1464710235595703,0.2285806536674499,0.0617428719997406,-0.0871249213814735,0.3426991105079651,-0.2590503096580505,0.0,0.0,-0.9770674705505372,-0.6112697720527649
