x_pos,y_pos,x_vel,y_vel,angle,ang_vel,leg_1,leg_2,main_booster,lat_booster
-0.001522445701994,1.4031598567962646,-0.1543942093849182,-0.3448987305164337,0.0019184007542207,0.0378538556396961,0.0,0.0,-0.401268361228448,0.6526322796124037
-0.002988243009895,1.3949551582336426,-0.1471900343894958,-0.3646519482135772,0.0025250397156924,0.012134357355535,0.0,0.0,0.3150967273686504,-0.3665362135316905
-0.0043470384553074,1.386768102645874,-0.1371521353721618,-0.3638677895069122,0.0037710738833993,0.0249234251677989,0.0,0.0,-0.9440430367460872,0.9794547270225178
-0.0056427954696118,1.3781135082244873,-0.1293790936470031,-0.3846464455127716,0.0035815136507153,-0.0037915054708719,0.0,0.0,-0.91617536199869,-0.5357488462845561
-0.0069701196625828,1.368996024131775,-0.1335027068853378,-0.4052285254001617,0.0043384563177824,0.0151401851326227,0.0,0.0,-0.1694811476184416,0.9673403455830888
-0.0082026477903127,1.3594130277633667,-0.121742233633995,-0.4259050190448761,0.002848629374057,-0.0297995749861001,0.0,0.0,-0.3987923281895387,0.2396103963503996
-0.0094335554167628,1.3493655920028689,-0.1216825619339943,-0.446553498506546,0.0014555481029674,-0.0278643313795328,0.0,0.0,0.9638500582222312,0.217699611790501
-0.0104864118620753,1.3400074243545532,-0.1048183292150497,-0.4159170091152191,0.0009955810382962,-0.0092001501470804,0.0,0.0,0.7517443280122376,0.8157887297910659
-0.0114884376525878,1.33152437210083,-0.0981542021036148,-0.37702476978302,-0.0010302967857569,-0.0405210480093956,0.0,0.0,0.0702207781919435,0.2295945275768176
-0.0124889370054006,1.3232823610305786,-0.0980705320835113,-0.3663103878498077,-0.002985997358337,-0.0391175262629985,0.0,0.0,-0.9027602064254812,-0.289971805658354
-0.0134879108518362,1.3145759105682373,-0.0979838296771049,-0.386959433555603,-0.0048782555386424,-0.0378485210239887,0.0,0.0,-0.134054074650783,0.6205824023797052
-0.0144307138398289,1.3054033517837524,-0.0910388082265853,-0.4076845049858093,-0.0080884648486971,-0.0642103478312492,0.0,0.0,0.043655153205786,-0.1595220098897509
-0.0152863506227731,1.296428084373474,-0.0827470123767852,-0.3989192247390747,-0.0108599662780761,-0.0554348938167095,0.0,0.0,0.5503641154030405,-0.0932472733397765
-0.0160720832645893,1.287486910820007,-0.0761196836829185,-0.3974018692970276,-0.0132843079045414,-0.0484916009008884,0.0,0.0,0.0048405857749327,-0.523405909246172
-0.0167956352233886,1.2788376808166504,-0.0711529403924942,-0.3844251632690429,-0.0144739719107747,-0.0237953998148441,0.0,0.0,-0.5639595868038698,-0.8539608547656019
-0.0175733566284179,1.2697147130966189,-0.0779945030808448,-0.405456930398941,-0.0142502002418041,0.0044758329167962,0.0,0.0,-0.5742169432247912,0.2260014772985465
-0.0183500293642282,1.2601274251937866,-0.0779184401035308,-0.4261024892330169,-0.0140050053596496,0.0049045761115849,0.0,0.0,0.7471961649097965,-0.492291915498813
-0.0189696308225393,1.2506667375564575,-0.062943086028099,-0.4204715192317962,-0.0130376853048801,0.0193479172885417,0.0,0.0,0.2745298080718963,-0.7752479595582908
-0.0195568092167377,1.2416768074035645,-0.0613726787269115,-0.3995248675346374,-0.0104191126301884,0.0523764006793499,0.0,0.0,-0.7335801594705704,0.2655705054496188
-0.0201435089111328,1.232222557067871,-0.0613264851272106,-0.4201790690422058,-0.0077970237471163,0.0524463057518005,0.0,0.0,-0.3555764411627575,0.680720355555294
-0.0206646919250488,1.222307801246643,-0.0531096085906028,-0.4406462609767914,-0.0068140439689159,0.0196613278239965,0.0,0.0,0.2480566617589266,0.8321444378170739
-0.0211074836552143,1.2124245166778564,-0.0435974970459938,-0.4392638206481933,-0.0074805743061006,-0.0133319366723299,0.0,0.0,0.7318036287574294,-0.1208974583569411
-0.0214097015559673,1.2029311656951904,-0.0301822777837514,-0.421933501958847,-0.0075240302830934,-0.0008692556875757,0.0,0.0,0.7047971018566366,0.3259532996337955
-0.0216376297175884,1.1934552192687988,-0.0230665020644664,-0.4211477637290954,-0.0072478968650102,0.0055231396108865,0.0,0.0,-0.0531398363789517,-0.3546808978035299
-0.0218658447265625,1.1835145950317385,-0.0230815447866916,-0.4417972862720489,-0.0069897952489554,0.0051623741164803,0.0,0.0,0.0583761210742119,-0.0483181975444592
-0.0221848487854003,1.1737656593322754,-0.0317070968449115,-0.4332877397537231,-0.0071849110536277,-0.0039024800062179,0.0,0.0,-0.0963037757404148,-0.2180428602009638
-0.022504711523652,1.1635522842407229,-0.03175925090909,-0.4539346098899841,-0.0074044652283191,-0.004391155205667,0.0,0.0,-0.3290468720270736,-0.0785640868522954
-0.0228255279362201,1.152874231338501,-0.0318325944244861,-0.4745813906192779,-0.0076511413790285,-0.0049331532791256,0.0,0.0,0.5459524056364029,-0.5972375238106062
-0.0233216285705566,1.142825722694397,-0.0502225048840045,-0.4465934634208679,-0.0070470026694238,0.0120826568454504,0.0,0.0,0.6142117769305964,0.1627102660147671
-0.0238364227116107,1.1330275535583496,-0.0519612319767475,-0.4354728162288666,-0.0065690958872437,0.0095581877976655,0.0,0.0,-0.0050601273565455,-0.0173689345346563
-0.02435302734375,1.1227649450302124,-0.0521067157387733,-0.4561196267604828,-0.0061239399947226,0.0089031048119068,0.0,0.0,-0.9744594097137452,0.579676628112793
-0.0248315818607807,1.1120338439941406,-0.047268021851778,-0.4769372344017029,-0.0067165405489504,-0.0118517149239778,0.0,0.0,-0.9355867505073548,-0.6837651133537292
-0.0253742225468158,1.1008453369140625,-0.0551853962242603,-0.4972640872001648,-0.0057974215596914,0.0183820948004722,0.0,0.0,-0.9583679437637328,-0.5326136946678162
-0.0259660724550485,1.089187741279602,-0.0612652190029621,-0.5181034803390503,-0.0037419921718537,0.0411084741353988,0.0,0.0,-0.9030347466468812,0.3255600929260254
-0.0265607833862304,1.0770658254623413,-0.0615256130695343,-0.5387507677078247,-0.0017212776001542,0.0404143966734409,0.0,0.0,-0.9901961088180542,0.1417484283447265
-0.0271588321775198,1.0644793510437012,-0.0618178024888038,-0.5593979358673096,0.0002653256815392,0.0397325381636619,0.0,0.0,-0.9296550154685974,0.8679771423339844
-0.0276947971433401,1.0514239072799685,-0.0538996458053588,-0.5802411437034607,0.0005680247559212,0.0060539343394339,0.0,0.0,-0.9593350887298584,-0.3591483831405639
-0.028234576806426,1.0379040241241455,-0.0542587339878082,-0.6008879542350769,0.0008390004513785,0.0054197600111365,0.0,0.0,-0.8288862705230713,-0.1531444191932678
-0.0287786480039358,1.0239194631576538,-0.0546528175473213,-0.6215347051620483,0.0010801069438457,0.0048221442848443,0.0,0.0,-0.9274901151657104,-0.3197352290153503
-0.029327392578125,1.0094704627990725,-0.0550828203558921,-0.6421815156936646,0.0012935966951772,0.0042695319280028,0.0,0.0,-0.2138978242874145,-0.8420701026916504
-0.0299593918025493,0.9945636987686156,-0.065393678843975,-0.662521481513977,0.0034533911384642,0.0431958436965942,0.0,0.0,-0.8520113229751587,-0.3711395859718323
-0.0305967330932617,0.979192554950714,-0.065898098051548,-0.6831685900688171,0.0055913287214934,0.0427587479352951,0.0,0.0,-0.5989120006561279,0.2065694332122802
-0.0312396995723247,0.963356912136078,-0.0664408355951309,-0.7038156986236572,0.0077109462581574,0.0423922352492809,0.0,0.0,-0.1710926294326782,0.5317119359970093
-0.0318395607173442,0.947056233882904,-0.0608719512820243,-0.7244795560836792,0.0085845226421952,0.0174714289605617,0.0,0.0,0.5752925872802734,-0.2961944937705993
-0.0324869155883789,0.9307116866111756,-0.065427079796791,-0.7264285683631897,0.0092687970027327,0.0136855263262987,0.0,0.0,0.1275514364242553,-0.5968618392944336
-0.0331552512943744,0.9142383337020874,-0.0687809437513351,-0.7321584224700928,0.0111894225701689,0.0384124666452407,0.0,0.0,0.1659022569656372,0.4829635620117187
-0.0337910652160644,0.8977742791175842,-0.065731480717659,-0.7317517399787903,0.0133091509342193,0.0423946343362331,0.0,0.0,-0.1393550038337707,0.7027530670166016
-0.0343891158699989,0.8808543086051941,-0.0608051605522632,-0.7520132064819336,0.0142973791807889,0.0197642855346202,0.0,0.0,0.2532434463500976,0.4240511655807495
-0.0351040847599506,0.8643640875816345,-0.0720329210162162,-0.7328985333442688,0.0148316174745559,0.0106851179152727,0.0,0.0,-0.3186419010162353,-0.4062348008155823
-0.035827063024044,0.8474095463752747,-0.0728575140237808,-0.7535454630851746,0.0153839047998189,0.0110455797985196,0.0,0.0,-0.678851842880249,-0.0146055817604064
-0.0365584380924701,0.8299903273582458,-0.0737232938408851,-0.7741922736167908,0.01596100628376,0.0115422029048204,0.0,0.0,0.0353279113769531,0.3506693840026855
-0.0373419746756553,0.8127982020378113,-0.0788042694330215,-0.7641022801399231,0.016403192654252,0.008843719959259,0.0,0.0,0.7595338821411133,0.3682844638824463
-0.0380258560180664,0.7958545088768005,-0.0694315955042839,-0.7530673146247864,0.0174234993755817,0.0204064100980758,0.0,0.0,0.3570369482040405,0.3287765979766845
-0.0387280471622943,0.7794288992881775,-0.071309670805931,-0.7300374507904053,0.0185034442692995,0.0215988904237747,0.0,0.0,-0.7041885256767273,-0.0753636360168457
-0.0394398681819438,0.7625388503074646,-0.0723391622304916,-0.7506844401359558,0.0196391902863979,0.0227151159197092,0.0,0.0,-0.0878259539604187,0.4665614366531372
-0.0401617065072059,0.7451843619346619,-0.0734089240431785,-0.7713314294815063,0.0208393931388854,0.0240040197968482,0.0,0.0,-0.1223744750022888,0.5163493156433105
-0.040846824645996,0.7273714542388916,-0.0685986131429672,-0.7916851043701172,0.020925372838974,0.0017197811976075,0.0,0.0,0.1196827888488769,0.3332089185714721
-0.0414586067199707,0.7097824811935425,-0.0617897436022758,-0.7817422151565552,0.0215266793966293,0.012026141397655,0.0,0.0,0.5847930908203125,0.7879377603530884
-0.0419568046927452,0.6929261684417725,-0.0490635856986045,-0.7491647601127625,0.0207896251231431,-0.0147412959486246,0.0,0.0,-0.507591962814331,0.4181272983551025
-0.0424660667777061,0.6756051182746887,-0.0502895824611187,-0.7698118090629578,0.0201546680182218,-0.0126988943666219,0.0,0.0,0.3131928443908691,0.1818354129791259
-0.0429521575570106,0.6582624316215515,-0.0482676997780799,-0.7707879543304443,0.0198201853781938,-0.0066896663047373,0.0,0.0,0.040993332862854,-0.1309760212898254
-0.0435218811035156,0.6411160826683044,-0.0564634874463081,-0.7620562314987183,0.0193160399794578,-0.0100831156596541,0.0,0.0,0.5416901111602783,0.9087607860565186
-0.0439109802246093,0.6242324709892273,-0.0368715822696685,-0.7503563761711121,0.0173004139214754,-0.0403125658631324,0.0,0.0,-0.2195480465888977,0.4161754846572876
-0.0443123802542686,0.6068844199180603,-0.0382431000471115,-0.7710037231445312,0.0154288234189152,-0.0374316871166229,0.0,0.0,0.3843133449554443,-0.2508454918861389
-0.0447248443961143,0.5895757079124451,-0.0395414419472217,-0.7692558765411377,0.0137425698339939,-0.0337250158190727,0.0,0.0,0.7976181507110596,0.6091160774230957
-0.0452552810311317,0.5727655291557312,-0.0498949997127056,-0.7470942139625549,0.0106370570138096,-0.0621102638542652,0.0,0.0,0.3241539001464844,0.6350291967391968
-0.0457366928458213,0.5565283298492432,-0.043929174542427,-0.7216300964355469,0.0064804321154952,-0.0831325501203537,0.0,0.0,-0.2912071943283081,0.6961861848831177
-0.0461685173213481,0.5398192405700684,-0.037573929876089,-0.7426140904426575,0.0009398159454576,-0.1108122020959854,0.0,0.0,0.788680911064148,0.1834367513656616
-0.0465852729976177,0.5240322947502136,-0.0364022366702556,-0.7016459703445435,-0.004264990799129,-0.1040961891412735,0.0,0.0,-0.655910074710846,0.4673298597335815
-0.0470154769718647,0.5077812075614929,-0.0379656478762626,-0.7222949862480164,-0.0092577245086431,-0.0998549610376358,0.0,0.0,0.8167401552200317,-0.0284214615821838
-0.047553539276123,0.4921840727329254,-0.0484899058938026,-0.6932476162910461,-0.014493903145194,-0.1047236546874046,0.0,0.0,0.7824485301971436,0.5448079109191895
-0.0480169281363487,0.4771291613578796,-0.0402843207120895,-0.6691783666610718,-0.0204800050705671,-0.1197220683097839,0.0,0.0,-0.3809828758239746,-0.6520333886146545
-0.0485569946467876,0.4616191983222961,-0.0497777536511421,-0.6893962621688843,-0.0246444884687662,-0.0832897499203682,0.0,0.0,0.7930972576141357,0.1956210136413574
-0.0490158088505268,0.4465816617012024,-0.0423038005828857,-0.6683986186981201,-0.0281814988702535,-0.0707401558756828,0.0,0.0,0.5551514625549316,0.3378320932388305
-0.0495102889835834,0.4316328763961792,-0.0459847971796989,-0.6644566059112549,-0.0315950959920883,-0.0682721883058548,0.0,0.0,0.95879864692688,0.889967679977417
-0.0498480796813964,0.4167806804180145,-0.0289938002824783,-0.6602100729942322,-0.0363252311944961,-0.0946025997400283,0.0,0.0,0.3018814325332641,-0.1517471671104431
-0.0502155311405658,0.4018662273883819,-0.0321346744894981,-0.6629809141159058,-0.0408774018287658,-0.0910437405109405,0.0,0.0,0.9778015613555908,-0.2199663519859314
-0.0505686774849891,0.3879110813140869,-0.0309676229953765,-0.6203522086143494,-0.0451715402305126,-0.0858826860785484,0.0,0.0,0.828394889831543,-0.4013513326644897
-0.0508071891963481,0.3748382925987243,-0.0202363394200801,-0.5811281204223633,-0.0487403571605682,-0.0713763684034347,0.0,0.0,-0.1061075329780578,-0.3859925270080566
-0.051060389727354,0.3613007962703705,-0.0220381524413824,-0.6017746329307556,-0.0519825592637062,-0.0648440793156623,0.0,0.0,0.0734400749206543,-0.1996639966964721
-0.0514010414481163,0.3476276695728302,-0.0307411011308431,-0.6078155636787415,-0.055276233702898,-0.0658732205629348,0.0,0.0,0.9830152988433838,-0.8331304788589478
-0.0517169013619422,0.3349193036556244,-0.0304039716720581,-0.564859926700592,-0.0564494952559471,-0.0234653782099485,0.0,0.0,0.7378733158111572,-0.4001520276069641
-0.0521200187504291,0.322661817073822,-0.0389825403690338,-0.5448290109634399,-0.057757306843996,-0.0261564888060092,0.0,0.0,-0.4552187919616699,0.585962176322937
-0.0524958595633506,0.3099383413791656,-0.0355610959231853,-0.5655682682991028,-0.0597560107707977,-0.0399740636348724,0.0,0.0,0.6366910934448242,-0.3484091162681579
-0.0528571121394634,0.2977882921695709,-0.0344314500689506,-0.5400689244270325,-0.0614308528602123,-0.0334968827664852,0.0,0.0,0.839958667755127,0.5359551906585693
-0.0530481338500976,0.2861301898956299,-0.0170265119522809,-0.5182231664657593,-0.0634894296526908,-0.0411713309586048,0.0,0.0,0.7368253469467163,0.1069140434265136
-0.0532065406441688,0.2745437026023865,-0.0142795201390981,-0.5150269865989685,-0.0650348961353302,-0.0309089627116918,0.0,0.0,0.4690251350402832,-0.1712670922279358
-0.0532744415104389,0.2630200088024139,-0.0060249241068959,-0.5121949315071106,-0.0657917484641075,-0.0151370633393526,0.0,0.0,0.7874784469604492,-0.4106689691543579
-0.0531579032540321,0.2519405484199524,0.0112493820488452,-0.4924052357673645,-0.0653963461518287,0.007908234372735,0.0,0.0,0.3711862564086914,-0.8165411353111267
-0.0529694557189941,0.240873321890831,0.0162105243653059,,-0.0627934113144874,0.0520586855709552,0.0,0.0,0.7876594066619873,-0.4436570405960083
-0.0527511611580848,0.2305588275194168,0.0187841616570949,-0.4582964777946472,-0.0597859434783458,0.0601494088768959,0.0,0.0,-0.3005598783493042,-0.0277729630470275
-0.0525479316711425,0.2197796404361724,0.0168300531804561,-0.4789418578147888,-0.0563374608755111,0.0689696073532104,0.0,0.0,0.6032493114471436,0.0436199903488159
-0.0522027015686035,0.2094949036836624,0.0300175044685602,-0.4569331109523773,-0.0518811903893947,0.0891253277659416,0.0,0.0,0.0441697835922241,0.5757535696029663
-0.0517451278865337,0.1990395188331604,0.0418339595198631,-0.464553564786911,-0.0480126291513443,0.0773715376853942,0.0,0.0,0.4559817314147949,-0.1395926475524902
-0.0513273254036903,0.188795194029808,0.0376098155975341,-0.4551745355129242,-0.0438949018716812,0.0823543667793273,0.0,0.0,0.168647289276123,-0.0717602968215942
-0.0508379936218261,0.1789969801902771,0.0440162047743797,-0.4353409111499786,-0.0390300564467906,0.0972969979047775,0.0,0.0,0.0321394205093383,-0.1618645191192627
-0.0503642074763774,0.1692680716514587,0.0420401468873024,-0.432266354560852,-0.0337558314204216,0.1054845005273819,0.0,0.0,0.1797555685043335,-0.2856178283691406
-0.0499750152230262,0.1599308997392654,0.0335153862833976,-0.4148748517036438,-0.0284096598625183,0.1069233641028404,0.0,0.0,-0.0418648123741149,0.4051904678344726
-0.0496005043387413,0.1501293927431106,0.031535480171442,-0.4355228841304779,-0.0225744992494583,0.1167031675577163,0.0,0.0,0.5377265214920044,0.4078900814056396
-0.0492748245596885,0.1409124732017517,0.0263861268758773,-0.4095576405525207,-0.0164752323180437,0.121985375881195,0.0,0.0,0.2606363296508789,0.7979376316070557
-0.0489629730582237,0.1320942193269729,0.0261749662458896,-0.391876071691513,-0.0115365600213408,0.0987737327814102,0.0,0.0,0.2065463066101074,0.8696668148040771
-0.0486138351261615,0.1233533024787902,0.0311640854924917,-0.3884606659412384,-0.0078349662944674,0.074032038450241,0.0,0.0,0.3593144416809082,-0.1953879594802856
-0.0483714118599891,0.1148912534117698,0.0204314831644296,-0.3760741055011749,-0.0040674824267625,0.0753493756055831,0.0,0.0,0.4005002975463867,0.7124378681182861
-0.0482268333435058,0.106629692018032,0.0117924725636839,-0.3671761751174927,-0.0014384851092472,0.0525801554322242,0.0,0.0,0.8078107833862305,0.8581311702728271
-0.0478997230529785,0.0990876778960228,0.0310123469680547,-0.3351962864398956,0.0002386615815339,0.033543013036251,0.0,0.0,0.2882164716720581,0.522705078125
-0.0474934577941894,0.0915083289146423,0.039327397942543,-0.3368645906448364,0.0015143532073125,0.0255138222128152,0.0,0.0,0.2398062944412231,0.0465030670166015
-0.0469934456050396,0.0843233689665794,0.0476677864789962,-0.3193333745002746,0.0038198374677449,0.0461097359657287,0.0,0.0,-0.2617461681365967,0.4769980907440185
-0.0465074554085731,0.0766739919781684,0.0457265302538871,-0.3399807810783386,0.0066550294868648,0.0567036978900432,0.0,0.0,0.6973471641540527,0.928849458694458
-0.0458037368953228,0.0698901489377021,0.0685897544026374,-0.3015121817588806,0.0084160743281245,0.0352210327982902,0.0,0.0,-0.0255850553512573,-0.5539764761924744
-0.0451520904898643,0.0626415312290191,0.0618660859763622,-0.3221844434738159,0.0116748856380581,0.065176136791706,0.0,0.0,0.8195590972900391,0.1732361316680908
-0.0445323958992958,0.0562771894037723,0.0581547543406486,-0.2828949689865112,0.0154352458193898,0.0752070695161819,0.0,0.0,0.1741137504577636,0.8701807260513306
-0.0438160896301269,0.0502983666956424,0.0690100491046905,-0.2657542526721954,0.0180304329842329,0.0519037246704101,0.0,0.0,0.0648256540298461,0.7003498077392578
-0.043003462255001,0.0442979447543621,0.0794364437460899,-0.266706645488739,0.0198297332972288,0.035986240953207,0.0,0.0,0.3696696758270263,0.127851128578186
-0.0423154830932617,0.0385989286005497,0.0668967217206955,-0.2533160150051117,0.0217046588659286,0.0374988093972206,0.0,0.0,0.4908145666122436,0.5915932655334473
-0.04172945022583,0.0331280082464218,0.0576323978602886,-0.2431667447090149,0.0226644352078437,0.0191953852772712,0.0,0.0,0.6125280857086182,0.1239277124404907
-0.0411895737051963,0.0280170775949955,0.0525609068572521,-0.227173626422882,0.0240746587514877,0.0282043423503637,0.0,0.0,0.3252128362655639,0.8014564514160156
-0.040585421025753,0.0230851024389266,0.0600166991353035,-0.2192045897245407,0.0244674310088157,0.0078556127846241,0.0,0.0,0.3247524499893188,0.7782117128372192
-0.0398208610713481,0.0181206557899713,0.0769240260124206,-0.2206351310014724,0.0240115411579608,-0.0091179646551609,0.0,0.0,0.7039966583251953,-0.0234709382057189
-0.0389845855534076,0.0137530183419585,0.0830592289566993,-0.1941272765398025,0.0245709493756294,0.0111881447955966,0.0,0.0,0.3403180837631225,-0.6237231492996216
-0.0382031425833702,0.0099072670564055,0.0757221132516861,-0.1709614247083664,0.0269633643329143,0.0478481687605381,0.0,0.0,-0.0039551258087158,-0.0925327539443969
-0.0374331474304199,0.0055973506532609,0.0740260332822799,-0.1916099935770034,0.0299066137522459,0.0588649436831474,0.0,0.0,0.6205952167510986,0.2715418338775635
