x_pos,y_pos,x_vel,y_vel,angle,ang_vel,leg_1,leg_2,main_booster,lat_booster
-0.0015198707114905,1.4029706716537476,-0.154837816953659,-0.3533183932304382,0.0025528215337544,0.0504156947135925,0.0,0.0,0.7710847762584208,0.6042093906516415
-0.0029314993880689,1.3951294422149658,-0.1434198319911956,-0.3485037982463836,0.0047924984246492,0.0447981543838977,0.0,0.0,0.2401311229637164,0.8963488118266496
-0.0041569708846509,1.3870834112167358,-0.1238991245627403,-0.3576096892356872,0.0061254645697772,0.0266616996377706,0.0,0.0,0.7071707541303476,-0.7324091654961936
-0.0055779456160962,1.3791534900665283,-0.145380824804306,-0.3524537682533264,0.0093782162293791,0.0650611892342567,0.0,0.0,0.5544526722703855,0.7693147726248071
-0.0068115233443677,1.371495485305786,-0.1261444389820099,-0.3403884172439575,0.0121373580768704,0.0551877617835998,0.0,0.0,-0.7545361747947159,0.9375982998727228
-0.0079575534909963,1.3631834983825684,-0.1158744096755981,-0.3694297969341278,0.0133913299068808,0.025081742554903,0.0,0.0,0.2716963028533141,-0.901133046934686
-0.0092050554230809,1.3548825979232788,-0.1285796016454696,-0.368960976600647,0.0171836391091346,0.0758529901504516,0.0,0.0,-0.1596782111217385,-0.8251396864397456
-0.0105074886232614,1.345929503440857,-0.1360945552587509,-0.3979998230934143,0.0229713767766952,0.1157654374837875,0.0,0.0,-0.5569333462181203,-0.9571814698051686
-0.0118945119902491,1.3363308906555176,-0.1472859531641006,-0.4267544150352478,0.0314565151929855,0.1697184741497039,0.0,0.0,-0.7959840083061867,0.7169886575065882
-0.0132344244047999,1.3260868787765503,-0.1419109255075454,-0.4554820954799652,0.039283026009798,0.1565446853637695,0.0,0.0,-0.6541739820295482,0.8984747085770911
-0.0145042417570948,1.315195083618164,-0.1336034834384918,-0.4842626452445984,0.045833297073841,0.131017655134201,0.0,0.0,-0.6929673950535897,0.9208950595458172
-0.0157051086425781,1.3036539554595947,-0.1254127621650695,-0.5131106972694397,0.0510992892086505,0.105329655110836,0.0,0.0,0.3166786263348498,0.6479807394416874
-0.0167825706303119,1.2923107147216797,-0.1127323657274246,-0.5043194890022278,0.0560442246496677,0.0989075601100921,0.0,0.0,-0.9596327828825528,-0.6109799615332369
-0.0179174430668354,1.2803051471710205,-0.1203238517045974,-0.5338524580001831,0.06281129270792,0.135353609919548,0.0,0.0,0.832286060002323,-0.9563581115430192
-0.0190284736454486,1.2690351009368896,-0.1208866983652114,-0.5013335943222046,0.0725094825029373,0.1939813643693924,0.0,0.0,-0.1215935538072439,0.6732335576790461
-0.0200947765260934,1.2571113109588623,-0.1155650615692138,-0.5303951501846313,0.0813647583127021,0.1771215945482254,0.0,0.0,-0.0521219063973574,0.6019190187601726
-0.0211231224238872,1.2445495128631592,-0.111017420887947,-0.5587620139122009,0.0894802436232566,0.1623243242502212,0.0,0.0,0.9043950925318648,0.800557534644665
-0.0219696052372455,1.232006311416626,-0.0923445969820022,-0.557948887348175,0.0971239730715751,0.152888536453247,0.0,0.0,-0.5608276059129012,-0.9376133068237228
-0.0229012481868267,1.218810796737671,-0.1031500697135925,-0.5871455669403076,0.1070476248860359,0.1984908431768417,0.0,0.0,0.36165389158585,0.7725309233197357
-0.0239205360412597,1.2056565284729004,-0.1109690517187118,-0.5853021740913391,0.1160366386175155,0.1797966957092285,0.0,0.0,0.1378728975290795,-0.8164822801491024
-0.0249892231076955,1.1926345825195312,-0.1182970181107521,-0.5796825885772705,0.1274181902408599,0.2276513576507568,0.0,0.0,0.0969467078295969,-0.7686244914199286
-0.0261734966188669,1.1793845891952517,-0.1320773065090179,-0.5901104807853699,0.1410316228866577,0.2722931206226349,0.0,0.0,-0.4584247531114471,0.7082470440103608
-0.0273192413151264,1.1654975414276123,-0.127150148153305,-0.6184480786323547,0.1536058634519577,0.2515073120594024,0.0,0.0,-0.6777012416673047,0.931563265643086
-0.0284127239137887,1.1509681940078735,-0.1205087751150131,-0.6469419598579407,0.1647764444351196,0.2234316170215606,0.0,0.0,0.3660768178661744,-0.9673080249658956
-0.0298343654721975,1.136526107788086,-0.1557932198047638,-0.6434410214424133,0.1784519106149673,0.2735336422920227,0.0,0.0,0.2163548346360173,-0.6136577117575901
-0.0315434448421001,1.1221367120742798,-0.1861917376518249,-0.6414347887039185,0.1938002556562423,0.3069668114185333,0.0,0.0,0.8857379502019296,0.8688724533405885
-0.0333747863769531,1.108344793319702,-0.1972706615924835,-0.614882230758667,0.2080382257699966,0.2847597301006317,0.0,0.0,-0.9695856138053928,-0.7133957761735503
-0.0353095047175884,1.0938899517059326,-0.2098901718854904,-0.6448409557342529,0.2246294468641281,0.3318237364292145,0.0,0.0,-0.8802314886419156,-0.6432915319304136
-0.0373419746756553,1.078771471977234,-0.2217290699481964,-0.6748650074005127,0.2433878928422927,0.3751688599586487,0.0,0.0,-0.0335956733654434,0.75120878486053
-0.0393563285470008,1.0630230903625488,-0.2189714163541793,-0.7029364705085754,0.2612598538398742,0.3574393987655639,0.0,0.0,0.3997318806737406,0.8893240596755855
-0.0415117256343364,1.047709584236145,-0.2317792177200317,-0.6835839152336121,0.2778944075107574,0.3326913714408874,0.0,0.0,0.0480448336304102,-0.7852135599910426
-0.0438973419368267,1.0320955514907837,-0.2567749917507171,-0.6975294947624207,0.2966349124908447,0.3748095333576202,0.0,0.0,-0.3548657036790261,-0.6994247880566604
-0.0463857650756835,1.0158134698867798,-0.2689980566501617,-0.7278968095779419,0.3174931704998016,0.4171656668186188,0.0,0.0,0.8003965990098827,0.7139945553108451
-0.0490565299987793,0.9994295835494996,-0.2860098481178283,-0.7324488759040833,0.3372159600257873,0.3944560587406158,0.0,0.0,-0.5647131158540333,0.8095406019235205
-0.0517098419368267,0.9824320673942566,-0.2829364240169525,-0.7596653699874878,0.3556893765926361,0.3694686889648437,0.0,0.0,0.9491405703363728,0.7792489934097018
-0.0546406731009483,0.9660909175872804,-0.3095003068447113,-0.7304357290267944,0.3730320930480957,0.3468541502952575,0.0,0.0,-0.5188340618800367,-0.8368224753967133
-0.0576799400150775,0.949060559272766,-0.3222943246364593,-0.761823832988739,0.392571747303009,0.3907924294471741,0.0,0.0,-0.4070945186539549,0.6360029898496959
-0.0607181563973426,0.9314173460006714,-0.3210745751857757,-0.7890157699584961,0.4110699295997619,0.3699640929698944,0.0,0.0,0.3182806504300681,-0.6033558552979562
-0.0641494765877723,0.9140081405639648,-0.361632227897644,-0.7792565822601318,0.4310740530490875,0.4000822603702545,0.0,0.0,0.0985155178111811,0.8910743893022356
-0.067714974284172,0.8965603709220886,-0.3734532296657562,-0.780754804611206,0.4495153427124023,0.3688265681266784,0.0,0.0,0.9660613059521586,-0.7098867775876048
-0.0719073265790939,0.8795961737632751,-0.4372708201408386,-0.7598959803581238,0.4693618416786194,0.3969295918941498,0.0,0.0,-0.4979404807090759,0.9938766956329346
-0.0760653465986251,0.8620449900627136,-0.4316047132015228,-0.7854985594749451,0.4869202971458435,0.3511691093444824,0.0,0.0,-0.6292715072631836,0.972776174545288
-0.0801919922232627,0.8438966274261475,-0.4263924658298492,-0.8115134835243225,0.5022991299629211,0.3075781762599945,0.0,0.0,-0.7825935482978821,0.9737452268600464
-0.0842909812927246,0.8251599669456482,-0.4215133786201477,-0.8370598554611206,0.5154293179512024,0.2626037001609802,0.0,0.0,-0.6322001814842224,0.9872874021530152
-0.0883742347359657,0.8058144450187683,-0.4182506203651428,-0.8635873794555664,0.5267322063446045,0.226056307554245,0.0,0.0,-0.1931992769241333,0.8613450527191162
-0.0924427062273025,0.7858638167381287,-0.4150814116001129,-0.8899131417274475,0.5361453890800476,0.1882636696100235,0.0,0.0,-0.6580772399902344,0.8911019563674927
-0.0964948683977127,0.7653146386146545,-0.4116196036338806,-0.9158489108085632,0.5435037016868591,0.1471670418977737,0.0,0.0,-0.6109377145767212,0.5882997512817383
-0.1005687713623046,0.7441462278366089,-0.4128516316413879,-0.9430364370346068,0.5498172640800476,0.1262711733579635,0.0,0.0,-0.6015182733535767,0.5698177814483643
-0.1046664267778396,0.72235506772995,-0.4143329560756683,-0.9703725576400756,0.5551205277442932,0.1060649007558822,0.0,0.0,-0.597621738910675,0.6168581247329712
-0.1087754219770431,0.6999448537826538,-0.4142930507659912,-0.997423529624939,0.5590627193450928,0.0788441151380539,0.0,0.0,-0.5275434851646423,0.5184602737426758
-0.1128935813903808,0.676919162273407,-0.4138999581336975,-1.024232029914856,0.5615024566650391,0.0487943366169929,0.0,0.0,-0.5765264630317688,0.4135162830352783
-0.1170630455017089,0.6532386541366577,-0.4188903272151947,-1.053291082382202,0.5637742877006531,0.0454364791512489,0.0,0.0,0.0341776609420776,0.2132207155227661
-0.1213746070861816,0.6293103098869324,-0.4331945478916168,,0.5661589503288269,0.0476933643221855,0.0,0.0,-0.4479398131370544,-0.6563133001327515
-0.1257822066545486,0.6046906113624573,-0.4437872767448425,-1.0954941511154177,0.5696924924850464,0.070670448243618,0.0,0.0,-0.2496411800384521,-0.7502334117889404
-0.1302766799926757,0.5793772339820862,-0.4532532691955566,-1.126674771308899,0.57416832447052,0.0895172357559204,0.0,0.0,-0.7411603331565857,-0.6949267983436584
-0.1348729133605957,0.5533543825149536,-0.4646387100219726,-1.158745050430298,0.5800720453262329,0.1180747151374816,0.0,0.0,-0.7138620615005493,-0.6074854731559753
-0.1395545899868011,0.5266473889350891,-0.473803848028183,-1.1894537210464478,0.5867330431938171,0.1332196444272995,0.0,0.0,-0.8182501196861267,-0.5787487030029297
-0.1443155258893966,0.4992573857307434,-0.4822002053260803,-1.2200576066970823,0.5939862132072449,0.1450635939836502,0.0,0.0,-0.5936336517333984,-0.813337504863739
-0.1491744071245193,0.4711715877056122,-0.4929090440273285,-1.2514445781707764,0.6023688316345215,0.1676528304815292,0.0,0.0,-0.853151798248291,-0.7250130772590637
-0.1541361808776855,0.4423807561397552,-0.5042674541473389,-1.2833333015441897,0.6120861172676086,0.1943460404872894,0.0,0.0,-0.9488615393638612,-0.7587511539459229
-0.1591867506504058,0.4128819704055786,-0.5139867067337036,-1.3152713775634766,0.6228744983673096,0.2157677859067917,0.0,0.0,-0.9590225219726562,-0.7305105924606323
-0.1643392592668533,0.3826721906661987,-0.5252211689949036,-1.3474838733673096,0.6350389719009399,0.2432889491319656,0.0,0.0,-0.989704728126526,-0.780189037322998
-0.169575497508049,0.351762056350708,-0.5341863632202148,-1.3790476322174072,0.6480684876441956,0.2605901062488556,0.0,0.0,-0.985546350479126,-0.7870274186134338
-0.174903392791748,0.3201436102390289,-0.544174075126648,-1.411087155342102,0.6622377634048462,0.2833856642246246,0.0,0.0,-0.983584761619568,-0.7199056148529053
-0.1803158819675445,0.2878143489360809,-0.5533309578895569,-1.443226337432861,0.6774445176124573,0.3041352927684784,0.0,0.0,-0.9784258008003236,-0.716153621673584
-0.1858227699995041,0.2547667324542999,-0.5636886358261108,-1.475856900215149,0.6940016150474548,0.3311422169208526,0.0,0.0,-0.9649505615234376,-0.255940318107605
-0.1913706809282302,0.2210630923509597,-0.5671693682670593,-1.504910945892334,0.7099975943565369,0.3199196755886078,0.0,0.0,-0.93526029586792,0.2188938856124878
-0.1969577819108963,0.1867028623819351,-0.5704828500747681,-1.5339620113372805,0.7254167795181274,0.3083841204643249,0.0,0.0,-0.9012647271156312,0.6869208812713623
-0.2025443613529205,0.1517463773488998,-0.5686213374137878,-1.55958354473114,0.7386366724967957,0.2643977105617523,0.0,0.0,-0.8068039417266846,0.810988187789917
-0.2081253975629806,0.1161826476454734,-0.5663785934448242,-1.5856841802597046,0.7497340440750122,0.2219479382038116,0.0,0.0,-0.6879163384437561,0.6435494422912598
-0.2137099206447601,0.0800051540136337,-0.5652859807014465,-1.6121670007705688,0.7589911222457886,0.1851413697004318,0.0,1.0,0.9658632278442384,0.9986259937286376
-0.2159670889377594,0.0706478208303451,-0.3594200015068054,-0.5718141794204712,0.9182083010673524,2.820830583572388,0.0,1.0,-0.9967756271362304,-0.8974091410636902
-0.2188077419996261,0.0590709075331687,-0.3638555407524109,-0.607125461101532,1.0630372762680054,2.875473976135254,0.0,1.0,-0.990922749042511,-0.8325286507606506
-0.2216819822788238,0.048212181776762,-0.3642461597919464,-0.6414875388145447,1.2306065559387207,2.9081029891967773,0.0,1.0,-0.9888918399810792,-0.6174110770225525
-0.2250815331935882,0.0376106612384319,-0.3665447831153869,-0.6582412123680115,1.407432198524475,3.074485540390014,0.0,0.0,-0.8665536046028137,0.7564337253570557
-0.2285273522138595,0.0279729459434747,-0.3445983827114105,-0.6110750436782837,1.6015114784240725,3.49207067489624,0.0,1.0,-0.9953051209449768,-0.8101249933242798
-0.2301409244537353,0.0245040282607078,-0.05245041847229,0.0283263362944126,1.6755636930465698,0.2027237862348556,0.0,0.0,-0.9953051209449768,-0.8101249933242798
