x_pos,y_pos,x_vel,y_vel,angle,ang_vel,leg_1,leg_2,main_booster,lat_booster
-0.0015439987182617,1.403343677520752,-0.156260073184967,-0.3367412984371185,0.0016655190847814,0.0328467339277267,0.0,0.0,-0.6519923994058068,-0.6812252414428923
-0.0031559944618493,1.395505666732788,-0.1639534533023834,-0.3483585715293884,0.0043941480107605,0.0545783713459968,0.0,0.0,0.699968854411321,0.878937842899058
-0.0045651434920728,1.3880047798156738,-0.1420609503984451,-0.3333750665187835,0.0055278576910495,0.0226764138787984,0.0,0.0,0.666123360688593,-0.6968498513957904
-0.00617818813771,1.3809748888015747,-0.1633989214897155,-0.3124575316905975,0.0075995926745235,0.0414386056363582,0.0,0.0,-0.7146908355591612,-0.6830053957646807
-0.0078470231965184,1.3736653327941897,-0.1699113100767135,-0.3248836100101471,0.0105910534039139,0.0598347708582878,0.0,0.0,0.8544630629448211,0.93233687658301
-0.0092898365110158,1.3669917583465576,-0.1456205248832702,-0.2966092824935913,0.0119057362899184,0.0262961722910404,0.0,0.0,0.1344375754708393,0.91734284665209
-0.0106931682676076,1.3606326580047607,-0.1396642029285431,-0.2826166450977325,0.0112454500049352,-0.0132070826366543,0.0,0.0,-0.389796181763185,0.8885686904532272
-0.0120168682187795,1.353996753692627,-0.1293224096298217,-0.2949114739894867,0.0082319611683487,-0.0602751374244689,0.0,0.0,0.3696617838448883,0.7513512347349953
-0.0133037567138671,1.3481292724609375,-0.1239628940820694,-0.2607543170452118,0.003548945300281,-0.0936688110232353,0.0,0.0,-0.3008849559696167,-0.7351694440569556
-0.0146520612761378,1.3419852256774902,-0.1314083039760589,-0.273068368434906,0.0001554567134007,-0.0678758397698402,0.0,0.0,0.038072493112508,0.845002733473294
-0.0158717148005962,1.3361213207244873,-0.1166678294539451,-0.260626345872879,-0.0050702528096735,-0.1045237407088279,0.0,0.0,-0.1470832662394874,-0.6684625294475872
-0.0171368606388568,1.3299756050109863,-0.1222374811768531,-0.2731652855873108,-0.0093049025163054,-0.0847009569406509,0.0,0.0,0.168382487380265,0.8548119855124636
-0.0182204246520996,1.3242931365966797,-0.1022365093231201,-0.2526027262210846,-0.015350267291069,-0.1209181398153305,0.0,0.0,0.0260451466913782,0.6008219014366452
-0.0191996581852436,1.318653225898743,-0.0904880464076995,-0.2507585287094116,-0.0227102935314178,-0.1472138911485672,0.0,0.0,-0.8402770944915463,-0.8128053151610012
-0.0202206615358591,1.3127429485321045,-0.0957066267728805,-0.2627868056297302,-0.0290286988019943,-0.1263798475265503,0.0,0.0,0.1001310553008996,-0.8130338470014118
-0.0212061889469623,1.3068386316299438,-0.0936385616660118,-0.2625208795070648,-0.0338849052786827,-0.0971330404281616,0.0,0.0,0.927656072800018,0.7254753444584854
-0.0219151489436626,1.3021466732025146,-0.0647514387965202,-0.2086844146251678,-0.0399594791233539,-0.1215026751160621,0.0,0.0,0.8904465302696862,0.6742944957005204
-0.0223648063838481,1.2977972030639648,-0.0377145744860172,-0.1935186833143234,-0.0471345707774162,-0.1435150206089019,0.0,0.0,-0.1623928814688437,0.875385816532445
-0.0227182395756244,1.2931702136993408,-0.025843396782875,-0.2059637755155563,-0.0565409250557422,-0.1881438493728637,0.0,0.0,-0.1670186043738892,0.7500803692129716
-0.0230026245117187,1.2882591485977173,-0.017419571056962,-0.2187198102474212,-0.0674551874399185,-0.2183051407337188,0.0,0.0,0.8968836463746774,0.9976223127001168
-0.0229671485722064,1.284343957901001,0.0165172964334487,-0.1746446639299392,-0.0803097411990165,-0.2571142613887787,0.0,0.0,0.0173647320939784,-0.8016833373583416
-0.0229429248720407,1.2805590629577637,0.0139898564666509,-0.1688772290945053,-0.0917925760149955,-0.2296770811080932,0.0,0.0,-0.7505490190717199,-0.9388612866745424
-0.0229532234370708,1.2765016555786133,0.0092855719849467,-0.1809916347265243,-0.1020391657948494,-0.2049500197172165,0.0,0.0,-0.4940740022572503,-0.7657950026661589
-0.0229920390993356,1.2721645832061768,0.0053023640066385,-0.1934138834476471,-0.1111732870340347,-0.1826986372470855,0.0,0.0,0.7328581918714989,-0.6381796949021565
-0.0231389999389648,1.2685906887054443,-0.0061589516699314,-0.1594838500022888,-0.1196616664528846,-0.169782742857933,0.0,0.0,0.6626424429967799,0.7608025391091373
-0.0232745166867971,1.265793800354004,-0.0029401984065771,-0.1252014487981796,-0.1302193850278854,-0.2111544162034988,0.0,0.0,0.4859215721633869,0.6379552680600833
-0.0232411380857229,1.2636829614639282,0.0154527621343731,-0.0949182659387588,-0.1422871053218841,-0.2413547486066818,0.0,0.0,0.0487841470930405,-0.6185580210300783
-0.0232423786073923,1.2621079683303833,0.0110932271927595,-0.0711119845509529,-0.153478741645813,-0.2238331586122512,0.0,0.0,0.5439612082093599,-0.7034250854414186
-0.0232867244631052,1.2613762617111206,0.0058536753058433,-0.0336174108088016,-0.1637700796127319,-0.2058267295360565,0.0,0.0,0.7181616419022419,-0.7287342570048047
-0.0232949256896972,1.261133074760437,0.008304345421493,-0.0118468897417187,-0.1729076206684112,-0.18275086581707,0.0,0.0,0.6471459227404801,-0.7735953825105737
-0.0231614112854003,1.2618764638900757,0.0211300607770681,0.032117836177349,-0.1807076036930084,-0.1559994518756866,0.0,0.0,0.4880005268508463,0.8588188221960218
-0.0229317657649517,1.2629212141036987,0.0328061953186988,0.0451956279575824,-0.1905932873487472,-0.1977139413356781,0.0,0.0,0.4688214031172546,0.9686277711290068
-0.0225354190915823,1.2647478580474854,0.0517207160592079,0.0795780047774314,-0.2027508616447448,-0.2431518584489822,0.0,0.0,-0.938359741924579,0.606861243404152
-0.0220588687807321,1.26627779006958,0.0610466226935386,0.0661088526248931,-0.216265395283699,-0.2702909409999847,0.0,0.0,-0.59308609162621,0.7722062487371102
-0.0214809421449899,1.2675117254257202,0.0729816555976867,0.052543144673109,-0.2316390872001648,-0.3074739575386047,0.0,0.0,0.8854921995943139,0.7975657072060359
-0.020579433068633,1.2697055339813232,0.1070692986249923,0.0947440341114997,-0.2488342076539993,-0.3439029455184936,0.0,0.0,-0.0359858687561231,0.8494954572029604
-0.0195746421813964,1.2715953588485718,0.1192137375473976,0.0807129368185997,-0.2679415047168731,-0.3821466565132141,0.0,0.0,-0.1590182292324065,0.885704131505
-0.0184535980224609,1.2731876373291016,0.1328251957893371,0.0668296292424202,-0.2892177999019623,-0.425525814294815,0.0,0.0,-0.5818672010486927,-0.948375966612755
-0.0173627845942974,1.2745492458343506,0.1279449462890625,0.0566551759839057,-0.3087001144886017,-0.3896457850933075,0.0,0.0,-0.4292548443432002,-0.9101351781037306
-0.0162921901792287,1.275667667388916,0.1243695020675659,0.0459235347807407,-0.3266839385032654,-0.3596762120723724,0.0,0.0,-0.5534291389734984,0.9408409752327642
-0.0151168825104832,1.2764889001846311,0.1365003436803817,0.0320900976657867,-0.3465107381343841,-0.396536111831665,0.0,0.0,-0.5611520409584045,-0.9997965097427368
-0.013954734429717,1.277064561843872,0.1337537318468094,0.0212559718638658,-0.3649822175502777,-0.3694298863410949,0.0,0.0,-0.5800872445106506,-0.9925989508628844
-0.0128100393339991,1.277389407157898,0.1305562108755111,0.010244489647448,-0.382027268409729,-0.3409004211425781,0.0,0.0,-0.9257528781890868,-0.9987266063690186
-0.0116797443479299,1.2774724960327148,0.127656489610672,-0.0002999567659571,-0.397627055644989,-0.3119965195655823,0.0,0.0,-0.8289783000946045,-0.9994269013404846
-0.0105824470520019,1.2773164510726929,0.1224667802453041,-0.0105653516948223,-0.4113084673881531,-0.2736284136772156,0.0,0.0,-0.6252548098564148,-0.9997535943984984
-0.0095067974179983,1.2769169807434082,0.1187199354171752,-0.0210470035672187,-0.4233614504337311,-0.2410591840744018,0.0,0.0,-0.6537399888038635,-0.9981088042259216
-0.0084490776062011,1.2762778997421265,0.1154208779335022,-0.0313360020518302,-0.4338304698467254,-0.2093795537948608,0.0,0.0,-0.8236048221588135,-0.9817444682121276
-0.0074230195023119,1.2754275798797607,0.1102243661880493,-0.0401719361543655,-0.442131757736206,-0.1660260111093521,0.0,0.0,-0.4807501435279846,-0.9940035343170166
-0.0064318655058741,1.274367094039917,0.1046279817819595,-0.0488833375275135,-0.4481633007526397,-0.1206306815147399,0.0,0.0,-0.5590497255325317,-0.986195981502533
-0.005465030670166,1.2730770111083984,0.1004865914583206,-0.0585672929883003,-0.4523389935493469,-0.0835132300853729,0.0,0.0,-0.7534624934196472,-0.947811245918274
-0.004500389099121,1.271544337272644,0.0991398468613624,-0.0689861103892326,-0.4552769958972931,-0.058759905397892,0.0,0.0,-0.8619756698608398,-0.9949429035186768
-0.003561210585758,1.269794464111328,0.0947440415620803,-0.0780435055494308,-0.4561965763568878,-0.0183917507529258,0.0,0.0,-0.557954728603363,-0.9895751476287842
-0.0026314735878258,1.2678022384643557,0.0925233289599418,-0.0883977934718132,-0.4556995034217834,0.0099413376301527,0.0,0.0,-0.7869275808334351,-0.9960025548934937
-0.0017189979553222,1.265589952468872,0.089138776063919,-0.0976396426558494,-0.4533860087394714,0.0462697818875312,0.0,0.0,-0.8744274377822876,-0.9461861252784728
-0.0008080482366494,1.263131618499756,0.0878833904862403,-0.108214259147644,-0.4498563110828399,0.0705931633710861,0.0,0.0,-0.9531266093254088,-0.8576902747154236
8.172988600563258e-05,1.260441541671753,0.0841070413589477,-0.1180028691887855,-0.4445223212242126,0.1066790670156478,0.0,0.0,-0.3052519559860229,-0.938423216342926
0.0009683609241619,1.2575201988220217,0.0824929475784301,-0.1278998106718063,-0.4377883672714233,0.1346791237592697,0.0,0.0,-0.9834151268005372,-0.8572849035263062
0.0018595695728436,1.2543559074401855,0.0819035694003105,-0.1384045928716659,-0.4299353659152984,0.1570601165294647,0.0,0.0,-0.9938591718673706,-0.9271219372749328
0.0027462958823889,1.250961422920227,0.0801056623458862,-0.148277923464775,-0.4206407964229584,0.1858915835618972,0.0,0.0,-0.9782753586769104,-0.9354397654533386
0.0036109923385083,1.2473465204238892,0.0760534107685089,-0.1575993150472641,-0.4094060659408569,0.2246948033571243,0.0,0.0,-0.9979923963546752,-0.9197819828987122
0.0044641494750976,1.243485689163208,0.0734670162200927,-0.1682125478982925,-0.3966948390007019,0.2542248666286468,0.0,0.0,-0.99496328830719,-0.9352945685386658
0.0052909851074218,1.2394018173217771,0.0688971504569053,-0.1777297556400299,-0.3819764852523803,0.2943669855594635,0.0,0.0,-0.999747395515442,-0.9304206371307372
0.0061149597167968,1.235071301460266,0.0673334524035453,-0.1885139197111129,-0.3659883141517639,0.3197636604309082,0.0,0.0,-0.9984261393547058,-0.912656843662262
0.0069270133972167,1.230502963066101,0.064550444483757,-0.1988948285579681,-0.3484449386596679,0.3508677184581756,0.0,0.0,-0.999222993850708,-0.9144771695137024
0.00772266369313,1.2256886959075928,0.0612956099212169,-0.2096564471721649,-0.3293057084083557,0.3827845752239227,0.0,0.0,-0.9984519481658936,-0.4001672863960266
0.0085706710815429,1.2205990552902222,0.0666293352842331,-0.2221810072660446,-0.3104099035263061,0.3779162168502807,0.0,0.0,-0.998197615146637,-0.5565418601036072
0.0094319339841604,1.2152595520019531,0.0670241862535476,-0.2333438694477081,-0.290653645992279,0.3951250612735748,0.0,0.0,-0.9966211318969728,-0.8352386951446533
0.0102893831208348,1.2096604108810425,0.0653142035007476,-0.2449255734682083,-0.2696779370307922,0.4195139408111572,0.0,0.0,-0.9967410564422609,-0.4330759048461914
0.0111989974975585,1.2037866115570068,0.0706635862588882,-0.2574551999568939,-0.2489346414804458,0.4148660600185394,0.0,0.0,-0.9929469227790833,-0.6724114418029785
0.0121012683957815,1.1976580619812012,0.0684849619865417,-0.2688416838645935,-0.2268510460853576,0.4416719377040863,0.0,0.0,-0.9974900484085084,-0.6174668669700623
0.0130017278715968,1.1912776231765747,0.0669927597045898,-0.2802031636238098,-0.2035549730062484,0.4659219682216644,0.0,0.0,-0.9975237250328064,-0.4476571083068847
0.0139546394348144,1.1846235990524292,0.0723513513803482,-0.2927402853965759,-0.1804775893688202,0.4615479409694671,0.0,0.0,-0.9958388805389404,0.5789653062820435
0.0149962427094578,1.177692413330078,0.08223707228899,-0.3055338859558105,-0.1585222035646438,0.4391078054904938,0.0,0.0,-0.9975044131278992,0.3322000503540039
0.016090203076601,1.1704869270324707,0.0876019150018692,-0.3180654942989349,-0.1367743462324142,0.4349570274353027,0.0,0.0,-0.9964399337768556,0.8844714164733887
0.0173009876161813,1.1629862785339355,0.1011202931404113,-0.3316539525985718,-0.1168998926877975,0.3974892497062683,0.0,0.0,-0.989486038684845,0.7131582498550415
0.0186258312314748,1.1551910638809204,0.1142579168081283,-0.3451235592365265,-0.0988074243068695,0.3618494272232055,0.0,0.0,-0.9764516949653624,0.9439945220947266
0.0200724601745605,1.1470991373062134,0.1284035146236419,-0.3586420118808746,-0.0826894342899322,0.3223599791526794,0.0,0.0,-0.9676345586776732,0.925551176071167
0.0216436386108398,1.1387287378311155,0.1428488940000534,-0.3712824285030365,-0.0685676932334899,0.2824351489543915,0.0,0.0,-0.9329754114151,0.7315554618835449
0.0233325958251953,1.1300806999206543,0.1564578413963318,-0.3838410675525665,-0.056267000734806,0.2460139244794845,0.0,0.0,-0.5866155624389648,-0.0098122954368591
0.0250736232846975,1.1211538314819336,0.161819502711296,-0.3963434994220733,-0.0441308058798313,0.2427238225936889,0.0,0.0,-0.6289022564888,-0.6536799669265747
0.026803683489561,1.111945390701294,0.1592791974544525,-0.4089130163192749,-0.0305717382580041,0.2711814045906067,0.0,0.0,-0.6750539541244507,-0.1214747428894043
0.0285858158022165,1.1024585962295532,0.1646309196949005,-0.4214178025722503,-0.0171598475426435,0.2682378888130188,0.0,0.0,-0.937122404575348,0.0571002960205078
0.0304200164973735,1.092693328857422,0.1699765771627426,-0.4339220821857452,-0.0038858279585838,0.2654803395271301,0.0,0.0,-0.6137886643409729,0.2790677547454834
0.0323063842952251,1.0826491117477417,0.1753152906894683,-0.4464258849620819,0.0092599773779511,0.2629163861274719,0.0,0.0,-0.8823813796043396,0.0840479135513305
0.0342447273433208,1.072326421737671,0.1806460618972778,-0.4589292705059051,0.0222876742482185,0.260553777217865,0.0,0.0,-0.9558698534965516,-0.2384664416313171
0.0362352356314659,1.0617247819900513,0.1859679371118545,-0.4714322984218597,0.0352076478302478,0.2583998441696167,0.0,0.0,-0.8813896775245667,-0.4153769016265869
0.0382778160274028,1.0508441925048828,0.1912798285484314,-0.483934998512268,0.0480307228863239,0.2564614415168762,0.0,0.0,-0.8491731882095337,0.2827980518341064
0.0403724685311317,1.039684772491455,0.19658063352108,-0.4964374601840973,0.0607679821550846,0.2547451257705688,0.0,0.0,-0.9355847239494324,-0.5141237378120422
0.0424884781241416,1.0282435417175293,0.1980190575122833,-0.5091019868850708,0.0742041692137718,0.268723726272583,0.0,0.0,-0.8835909366607666,-0.3721712231636047
0.044656466692686,1.0165237188339231,0.2032942473888397,-0.5216057300567627,0.0875775814056396,0.2674682438373565,0.0,0.0,-0.7160980105400085,-0.5424298048019409
0.0468329414725303,1.004523754119873,0.2031156122684478,-0.5342513918876648,0.1019898429512977,0.2882453203201294,0.0,0.0,-0.6678145527839661,-0.329922080039978
0.0490612983703613,0.9922452569007874,0.2083600461483001,-0.5467574596405029,0.1163632944226265,0.2874689698219299,0.0,0.0,-0.706452488899231,-0.2474669218063354
0.0513414368033409,0.97968852519989,0.2135867625474929,-0.5592634081840515,0.1307101547718048,0.2869376540184021,0.0,0.0,-0.3754082918167114,0.1966389417648315
0.0536731705069541,0.9668533802032472,0.2187939882278442,-0.5717694163322449,0.1450428515672683,0.2866536378860473,0.0,0.0,-0.4986054301261902,-0.564906656742096
0.0560086257755756,0.9537283182144164,0.217959925532341,-0.5849342346191406,0.1606027036905288,0.3111971020698547,0.0,0.0,-0.4795280694961548,-0.2196868062019348
0.0583954825997352,0.9403252601623536,0.2231233417987823,-0.5974435210227966,0.1761731952428817,0.3114097714424133,0.0,0.0,0.0249960422515869,-0.6302571892738342
0.060706328600645,0.927148699760437,0.214318186044693,-0.5877078175544739,0.1930123567581176,0.3367835283279419,0.0,0.0,0.0939581394195556,0.308089017868042
0.0628862380981445,0.9144465923309326,0.2016199380159378,-0.5667607188224792,0.2095058411359787,0.3298694491386413,0.0,0.0,-0.1210935115814209,0.3095372915267944
0.0651168823242187,0.9014670252799988,0.2067011296749115,-0.5792729258537292,0.2260469645261764,0.3308224081993103,0.0,0.0,-0.4411417245864868,0.1157314777374267
0.0673979744315147,0.8882102966308594,0.2117495089769363,-0.5917854309082031,0.2426478266716003,0.332017183303833,0.0,0.0,0.4314074516296386,0.3237693309783935
0.0695036873221397,0.8755949139595032,0.1945446133613586,-0.5634090304374695,0.2589888572692871,0.3268203437328338,0.0,0.0,-0.2246285676956176,0.7218210697174072
0.0717126876115799,0.8627209067344666,0.2062039822340011,-0.5748511552810669,0.2740153074264526,0.3005291223526001,0.0,0.0,0.1329646110534668,0.8575558662414551
0.0738349929451942,0.85015469789505,0.1992310732603073,-0.5609912276268005,0.2873640358448028,0.2669750452041626,0.0,0.0,0.5848337411880493,0.5244981050491333
0.0757557898759841,0.8379831910133362,0.1804499924182891,-0.5432872176170349,0.2993532717227936,0.2397845536470413,0.0,0.0,0.3178308010101318,0.9045898914337158
0.0777162536978721,0.8264340758323669,0.1860651969909668,-0.5153874754905701,0.3096804618835449,0.2065434008836746,0.0,0.0,0.3434138298034668,0.9591416120529176
0.0797624588012695,0.8150870203971863,0.1963923275470733,-0.5060932040214539,0.3182209134101867,0.1708088666200637,0.0,0.0,0.7754185199737549,0.8621442317962646
0.0818269699811935,0.8047474026679993,0.1995206177234649,-0.4610790312290191,0.3254294991493225,0.1441719979047775,0.0,0.0,0.8577772378921509,0.957705020904541
0.0837026610970497,0.7953979969024658,0.1824473142623901,-0.4166899621486664,0.3307753503322601,0.1069171875715255,0.0,0.0,0.91235613822937,0.9548683166503906
0.0855459198355674,0.7873079180717468,0.1806446611881256,-0.3604037463665008,0.3346142470836639,0.0767776817083358,0.0,0.0,0.8738408088684082,0.9893722534179688
0.0873842239379882,0.7799550890922546,0.1817953139543533,-0.327267974615097,0.3367379605770111,0.0424740388989448,0.0,0.0,0.8890831470489502,0.9349963665008544
0.0890183448791503,0.7736842632293701,0.1630697548389434,-0.278776466846466,0.3370959460735321,0.0071595236659049,0.0,0.0,0.8655612468719482,0.9361729621887208
0.0905423164367675,0.7684743404388428,0.1536094546318054,-0.2312755584716797,0.3358339667320251,-0.0252394285053014,0.0,0.0,0.5176265239715576,0.905653715133667
0.0921186432242393,0.7636529803276062,0.160327672958374,-0.2136589884757995,0.3330075144767761,-0.0565289743244648,0.0,0.0,0.4685138463973999,0.8562588691711426
0.0935055762529373,0.759304940700531,0.1430399715900421,-0.1922462284564972,0.3284774124622345,-0.0906021371483802,0.0,0.0,-0.0157843232154846,0.8198814392089844
0.0949828177690506,0.7546996474266052,0.1531270146369934,-0.2034543454647064,0.3228344619274139,-0.1128590106964111,0.0,0.0,0.3501981496810913,0.8670847415924072
0.0963998809456825,0.7504928112030029,0.1486544609069824,-0.185443103313446,0.315613329410553,-0.1444223821163177,0.0,0.0,-0.0643976926803588,0.942112684249878
0.0979298576712608,0.7460410594940186,0.1616770625114441,-0.1959946602582931,0.3066058456897735,-0.1801497340202331,0.0,0.0,0.5514779090881348,0.9209150075912476
0.0995980277657508,0.7418807148933411,0.1769677102565765,-0.1827968209981918,0.2961139976978302,-0.2098370492458343,0.0,0.0,0.3678892850875854,0.7937929630279541
0.1012826934456825,0.7383244633674622,0.1798956245183944,-0.1557708829641342,0.2843440473079681,-0.2353992015123367,0.0,0.0,0.1003863811492919,0.1842846870422363
0.102866843342781,0.7352704405784607,0.1695729494094848,-0.1336000710725784,0.2728844583034515,-0.2291916906833648,0.0,0.0,-0.7298831343650818,0.6831817626953125
0.1045419722795486,0.7319551110267639,0.1799698323011398,-0.1450821012258529,0.2601393461227417,-0.254902184009552,0.0,0.0,-0.5177618265151978,0.5330088138580322
