x_pos,y_pos,x_vel,y_vel,angle,ang_vel,leg_1,leg_2,main_booster,lat_booster
-0.0016227721935138,1.4034498929977417,-0.1637667715549469,-0.3320132195949554,0.0013286004541441,0.0261758267879486,0.0,0.0,-0.3419759152504371,-0.7409287342727733
-0.0033988952636718,1.395824313163757,-0.1797507107257843,-0.3389142453670501,0.0034462872426956,0.0423584803938865,0.0,0.0,0.0310503219553253,-0.6802640984592111
-0.0052342414855957,1.388397216796875,-0.1866034269332885,-0.3301055133342743,0.0064892848022282,0.060865294188261,0.0,0.0,-0.6149368161958391,0.9505826125751752
-0.0071095465682446,1.3807927370071411,-0.1885481923818588,-0.3379802703857422,0.0074941450729966,0.0200988091528415,0.0,0.0,0.5982094515587768,0.5295348513445218
-0.0089142797514796,1.373963475227356,-0.1802709549665451,-0.3035227656364441,0.0072919367812573,-0.0040446547791361,0.0,0.0,-0.0765995985292706,-0.5410188896601312
-0.0108519550412893,1.3669581413269043,-0.1938546597957611,-0.311347633600235,0.0073776058852672,0.0017138144467025,0.0,0.0,0.0432066211075834,0.8450867029137799
-0.0128426551818847,1.3603256940841677,-0.1969030797481537,-0.2947647273540497,0.005240008700639,-0.0427562221884727,0.0,0.0,0.0725202465740015,-0.8059584897191416
-0.0148862842470407,1.3541513681411743,-0.2033201456069946,-0.2744172215461731,0.0042174723930656,-0.0204527769237756,0.0,0.0,-0.4659965217951864,-0.9789560559041603
-0.0171084403991699,1.3478121757507324,-0.2226262092590332,-0.2817377150058746,0.0046177059412002,0.0080054029822349,0.0,0.0,-0.0299627318151509,0.9776754485182082
-0.0193538665771484,1.3413050174713137,-0.2224134653806686,-0.2891968786716461,0.0025254308711737,-0.0418493971228599,0.0,0.0,0.1457538367393809,0.8372217650816061
-0.0215647704899311,1.3352429866790771,-0.2167821377515792,-0.2694238126277923,-0.001739154336974,-0.0852995216846466,0.0,0.0,-0.9874549952670406,-0.8312403083294563
-0.023933220654726,1.3290047645568848,-0.2334371358156204,-0.2772607803344726,-0.0051133297383785,-0.0674897655844688,0.0,0.0,-0.6370674343491094,0.8627504067808021
-0.0263186451047658,1.3225960731506348,-0.2324487268924713,-0.2848615050315857,-0.0111356833949685,-0.1204580664634704,0.0,0.0,-0.8793021790042237,0.7568606382811731
-0.0287370681762695,1.3160055875778198,-0.2334748953580856,-0.2930029332637787,-0.0193997677415609,-0.1652971059083938,0.0,0.0,-0.9872646336698688,-0.5356499845484464
-0.0312869064509868,1.3092478513717651,-0.2468723803758621,-0.3004730641841888,-0.0274214763194322,-0.1604489237070083,0.0,0.0,-0.6275577455763672,-0.5622537522792204
-0.0339722633361816,1.3023113012313845,-0.260764867067337,-0.3084527552127838,-0.035106386989355,-0.1537121385335922,0.0,0.0,-0.6118700145259406,-0.5295534207381936
-0.036788560450077,1.2952091693878174,-0.2741021513938904,-0.3158527016639709,-0.0425567850470542,-0.1490215808153152,0.0,0.0,-0.1094104445554484,0.5171528042854476
-0.0396533012390136,1.2879258394241333,-0.2770751416683197,-0.3239971399307251,-0.0518566817045211,-0.186014786362648,0.0,0.0,-0.9469838109169192,-0.7322101837402157
-0.0426646247506141,1.2804796695709229,-0.2923874855041504,-0.3312527537345886,-0.0605148151516914,-0.1731785088777542,0.0,0.0,0.1368531168112849,-0.9571700160485864
-0.0458916649222373,1.2734558582305908,-0.3152833878993988,-0.3124825060367584,-0.0678581818938255,-0.1468807309865951,0.0,0.0,0.1593798962973709,-0.8508308812416668
-0.0491439811885356,1.2670507431030271,-0.3190087974071502,-0.2849732935428619,-0.0740329325199127,-0.1235058158636093,0.0,0.0,-0.0378708194268309,0.6795601262066795
-0.0524396896362304,1.2604620456695557,-0.3213562071323395,-0.2932572662830353,-0.0821731835603714,-0.1628197729587555,0.0,0.0,0.5601176962777661,-0.5314920731810278
-0.055701158940792,1.254456877708435,-0.3187578022480011,-0.2673121690750122,-0.0894988551735878,-0.1465265750885009,0.0,0.0,-0.5516632388126017,0.5704329794075369
-0.0590097419917583,1.2482656240463257,-0.3216078579425812,-0.2757483422756195,-0.0986833125352859,-0.1837057918310165,0.0,0.0,-0.4499470141768522,0.558470065824936
-0.0623808875679969,1.2418982982635498,-0.3264370560646057,-0.2837319374084472,-0.1093051955103874,-0.2124567329883575,0.0,0.0,0.6433372006261544,-0.5305364914685509
-0.0659689903259277,1.236416578292847,-0.3481781184673309,-0.2444445043802261,-0.1198720484972,-0.2113367319107055,0.0,0.0,0.5195845662546987,-0.7449520466322985
-0.0696271881461143,1.2317720651626587,-0.3561013340950012,-0.2072313576936721,-0.1295350193977356,-0.1932594329118728,0.0,0.0,0.7925374820632498,0.7138264849659466
-0.0733609199523925,1.2283135652542114,-0.3612977266311645,-0.1547992378473281,-0.1415601372718811,-0.2405023276805877,0.0,0.0,0.5004912083425093,-0.7374273986423474
-0.0772767066955566,1.2257744073867798,-0.380190908908844,-0.113980121910572,-0.1529315412044525,-0.2274280339479446,0.0,0.0,0.4631399580988646,0.7363656700503269
-0.0811838135123252,1.2236924171447754,-0.3772242367267608,-0.0939672291278839,-0.1664082705974578,-0.269534707069397,0.0,0.0,0.2632540452443688,0.8790512533307189
-0.0849906951189041,1.2223862409591677,-0.3649061024188995,-0.0599010102450847,-0.1822254061698913,-0.3163429498672485,0.0,0.0,-0.8100101947784424,-0.7933234572410583
-0.088959977030754,1.2209243774414062,-0.3823722004890442,-0.0668192580342292,-0.1968467384576797,-0.2924266159534454,0.0,0.0,-0.8738536834716797,-0.5388660430908203
-0.0930672660470008,1.2193114757537842,-0.3968497216701507,-0.0735934898257255,-0.2108328938484192,-0.2797229886054992,0.0,0.0,-0.6962835788726807,-0.6305257678031921
-0.0973195061087608,1.217539668083191,-0.4121824204921722,-0.0806638672947883,-0.2240207940340042,-0.2637577950954437,0.0,0.0,-0.4681248664855957,-0.6759427189826965
-0.101711556315422,1.2156157493591309,-0.4269092679023742,-0.0874217227101326,-0.2364837229251861,-0.2492587566375732,0.0,0.0,-0.7162557244300842,-0.771998941898346
-0.1062482818961143,1.2135473489761353,-0.4423150420188904,-0.0937955603003501,-0.2480334192514419,-0.2309937179088592,0.0,0.0,-0.3209697008132934,-0.8532651662826538
-0.110940933227539,1.211329460144043,-0.4591036736965179,-0.1003204509615898,-0.2583906650543213,-0.2071447372436523,0.0,0.0,-0.3295788764953613,-0.8113444447517395
-0.1157761588692665,1.2089693546295166,-0.47430619597435,-0.1065484061837196,-0.2678082287311554,-0.1883517205715179,0.0,0.0,-0.214012861251831,-0.7636314630508423
-0.1207560524344444,1.20647132396698,-0.4898134171962738,-0.1125405058264732,-0.2761743664741516,-0.1673227548599243,0.0,0.0,0.2055181264877319,-0.8429222702980042
-0.1257385313510894,1.204460382461548,-0.4911888241767883,-0.0907325446605682,-0.2834197878837585,-0.1449086964130401,0.0,0.0,-0.2542124390602112,-0.3459677696228027
-0.1308019608259201,1.2022775411605835,-0.4987187385559082,-0.0985118821263313,-0.2912703156471252,-0.1570108234882354,0.0,0.0,-0.0646288394927978,-0.5112842917442322
-0.1359753608703613,1.199936032295227,-0.5099514722824097,-0.105568490922451,-0.298901617527008,-0.1526260673999786,0.0,0.0,-0.1943076252937317,0.1767721176147461
-0.1412259042263031,1.1974231004714966,-0.5170900225639343,-0.113349050283432,-0.3071388602256775,-0.1647448688745498,0.0,0.0,-0.0122192502021789,-0.2311495542526245
-0.1465513259172439,1.1947388648986816,-0.5240081548690796,-0.1211307793855667,-0.3159823715686798,-0.1768704503774643,0.0,0.0,0.2676664590835571,-0.4836084842681885
-0.151908591389656,1.1922203302383425,-0.5264910459518433,-0.1139797940850257,-0.3255766928195953,-0.1918869018554687,0.0,0.0,0.0480766296386718,-0.4597901701927185
-0.1572400033473968,1.1898181438446045,-0.5235013365745544,-0.1089673042297363,-0.3356429934501648,-0.2013267576694488,0.0,0.0,0.3030009269714355,-0.8036340475082397
-0.1625316590070724,1.1877446174621582,-0.5205798745155334,-0.0941835716366767,-0.3446213603019714,-0.1795670688152313,0.0,0.0,0.6577816009521484,-0.5605219602584839
-0.1677585542201995,1.1867704391479492,-0.5143643617630005,-0.0453112162649631,-0.3533589243888855,-0.1747521013021469,0.0,0.0,0.4279932975769043,0.2691781520843506
-0.1729180365800857,1.1866438388824463,-0.5065737366676331,-0.0079660909250378,-0.3632340431213379,-0.1975020766258239,0.0,0.0,0.5496759414672852,0.0482538938522338
-0.1779837608337402,1.1870261430740356,-0.4965819418430328,0.0144258458167314,-0.3738079369068146,-0.2114779502153396,0.0,0.0,0.6731932163238525,-0.2042468190193176
-0.182756707072258,1.187966227531433,-0.4674040377140045,0.0391589887440204,-0.3843165636062622,-0.2101727724075317,0.0,0.0,-0.0234191417694091,-0.4487382173538208
-0.1875794380903244,1.1887359619140625,-0.4718553125858307,0.0313703976571559,-0.3954316079616546,-0.2223007977008819,0.0,0.0,-0.0076882243156433,-0.3228214383125305
-0.1924477517604828,1.1893360614776611,-0.4759053587913513,0.0235803294926881,-0.4071525037288666,-0.2344181984663009,0.0,0.0,0.2982734441757202,-0.3634623289108276
-0.1971069276332855,1.1906282901763916,-0.4544904232025146,0.0540978796780109,-0.4194669127464294,-0.2462882995605468,0.0,0.0,0.2210419178009033,-0.4671924114227295
-0.2015555799007415,1.192177414894104,-0.4334166646003723,0.0653949826955795,-0.4318760931491852,-0.2481840401887893,0.0,0.0,0.2850730419158935,-0.4520934820175171
-0.2059505432844162,1.1941032409667969,-0.4272405207157135,0.0817681178450584,-0.4452320337295532,-0.2671189904212951,0.0,0.0,0.0774028301239013,-0.3565181493759155
-0.2100935876369476,1.1965240240097046,-0.4018425941467285,0.1035649701952934,-0.4589057862758636,-0.2734750807285309,0.0,0.0,0.1132054328918457,-0.2985861897468567
-0.2139743864536285,1.1993253231048584,-0.3755410313606262,0.1203112453222274,-0.4727489054203033,-0.2768625319004059,0.0,0.0,-0.2713552713394165,-0.1846917867660522
-0.2178723812103271,1.2019580602645874,-0.3768207728862762,0.1125131696462631,-0.48718923330307,-0.2888065576553345,0.0,0.0,-0.1420139074325561,-0.2244458198547363
-0.2217824906110763,1.2044224739074707,-0.3775970339775085,0.1047134101390838,-0.5022239685058594,-0.3006945252418518,0.0,0.0,0.0037753582000732,-0.4166845083236694
-0.2255637645721435,1.2069920301437378,-0.3644352257251739,0.1091073304414749,-0.5177058577537537,-0.3096383213996887,0.0,0.0,0.0340220928192138,-0.5451791882514954
-0.2292260229587555,1.2100517749786377,-0.3530662655830383,0.1309054642915725,-0.5327142477035522,-0.300167441368103,0.0,0.0,0.3419350385665893,-0.5007227063179016
-0.2326120883226394,1.21343195438385,-0.3261920809745788,0.1452814042568206,-0.5469976663589478,-0.285668671131134,0.0,0.0,-0.0067914128303527,-0.4481595754623413
-0.2359894216060638,1.2166441679000854,-0.3249295055866241,0.1374806463718414,-0.5618584156036377,-0.2972146570682525,0.0,0.0,-0.020168662071228,-0.4448940753936767
-0.2393527925014495,1.2196882963180542,-0.3231684267520904,0.1296784579753875,-0.5772902965545654,-0.3086380660533905,0.0,0.0,0.1761468648910522,-0.4152939319610595
-0.2425413578748703,1.223165512084961,-0.3049938082695007,0.1484346538782119,-0.5936939716339111,-0.3280738890171051,0.0,0.0,0.1685758829116821,-0.5127612948417664
-0.2453841716051101,1.2272520065307615,-0.2710606157779693,0.175593227148056,-0.6095088720321655,-0.3162985444068908,0.0,0.0,-0.3667410612106323,-0.7125518918037415
-0.2482407093048095,1.2312049865722656,-0.2732168138027191,0.1698151230812072,-0.6245556473731995,-0.3009358048439026,0.0,0.0,-0.1954500079154968,-0.1785536408424377
-0.2510639131069183,1.234990119934082,-0.2695807218551636,0.162012368440628,-0.6401397585868835,-0.3116820752620697,0.0,0.0,-0.3835298418998718,-0.4987905025482178
-0.2538492679595947,1.238607406616211,-0.2655182480812073,0.1542086601257324,-0.65625,-0.3222047388553619,0.0,0.0,-0.2302638888359069,-0.6497002243995667
-0.2566373348236084,1.2421118021011353,-0.2668443620204925,0.1495315432548523,-0.6712336540222168,-0.2996725440025329,0.0,0.0,-0.2567598819732666,-0.5141856670379639
-0.2594086229801178,1.2454841136932373,-0.2657485604286194,0.1437773555517196,-0.6856462359428406,-0.2882512509822845,0.0,0.0,-0.1955087184906005,-0.2419584393501281
-0.2621300220489502,1.248687982559204,-0.2605215013027191,0.1359770745038986,-0.7005440592765808,-0.2979561984539032,0.0,0.0,0.0928562879562377,-0.5485448837280273
-0.2645429968833923,1.2521504163742063,-0.2304497063159942,0.1477141827344894,-0.714622974395752,-0.2815782427787781,0.0,0.0,-0.4508849382400512,-0.3959901928901672
-0.2668991088867187,1.2554445266723633,-0.224553108215332,0.1399158090353012,-0.7291530966758728,-0.290602445602417,0.0,0.0,-0.458705186843872,-0.7594364881515503
-0.2692374587059021,1.2586156129837036,-0.2237137109041214,0.1348302513360977,-0.7426327466964722,-0.2695926427841186,0.0,0.0,-0.5748744010925293,-0.6699296236038208
-0.2715561389923095,1.2616674900054932,-0.2227048426866531,0.1299810111522674,-0.7549641132354736,-0.2466276437044143,0.0,0.0,-0.5885513424873352,-0.4329090714454651
-0.2738090455532074,1.2645500898361206,-0.2159579992294311,0.1221883594989776,-0.767684817314148,-0.2544146180152893,0.0,0.0,-0.2429812550544738,-0.5482935905456543
-0.2760173678398132,1.267304539680481,-0.212124302983284,0.1167644560337066,-0.7796953916549683,-0.2402114421129226,0.0,0.0,0.1217272281646728,-0.2928041815757751
-0.2778189778327942,1.270561456680298,-0.1710577011108398,0.1386863142251968,-0.7923990488052368,-0.2540734708309173,0.0,0.0,-0.5786775946617126,-0.2119008898735046
-0.2795473635196686,1.2736481428146362,-0.1636383235454559,0.1308970302343368,-0.8054168820381165,-0.2603567540645599,0.0,0.0,-0.5529146790504456,-0.5327823758125305
-0.281224638223648,1.2766090631484983,-0.1592331081628799,0.1256368458271026,-0.8175879120826721,-0.2434200346469879,0.0,0.0,-0.5907907485961914,-0.3787970542907715
-0.282824695110321,1.2793989181518557,-0.1514478623867035,0.1178516373038292,-0.8300159573554993,-0.2485605031251907,0.0,0.0,-0.5567527413368225,-0.1347053050994873
-0.2843456864356994,1.2820181846618652,-0.1435030996799469,0.1100678741931915,-0.8426705002784729,-0.2530912756919861,0.0,0.0,-0.6051013469696045,-0.2170003056526184
-0.2857858538627624,1.28446626663208,-0.1354122459888458,0.1022857278585434,-0.8555200099945068,-0.2569896280765533,0.0,0.0,-0.5268568992614746,-0.3811033964157104
-0.2871435582637787,1.2867426872253418,-0.1271878033876419,0.0945053547620773,-0.8685317635536194,-0.2602353692054748,0.0,0.0,-0.23993980884552,-0.5298693776130676
-0.2884453237056732,1.2888882160186768,-0.1223837286233902,0.0891585797071456,-0.8805134296417236,-0.2396328747272491,0.0,0.0,-0.4307883977890014,-0.4574542045593261
-0.2896619439125061,1.2908616065979004,-0.1139228194952011,0.0813837870955467,-0.892589807510376,-0.2415270805358886,0.0,0.0,-0.5151135921478271,0.0298178195953369
-0.2907921373844147,1.2926621437072754,-0.1053600683808326,0.0736111775040626,-0.9047262072563172,-0.2427285462617874,0.0,0.0,-0.4117493629455566,-0.3805896043777466
-0.2918347418308258,1.2942895889282229,-0.096704363822937,0.0658408850431442,-0.9168877601623536,-0.2432307749986648,0.0,0.0,-0.4040225148200989,-0.1705894470214843
-0.2927886843681335,1.295743465423584,-0.0879638642072677,0.0580729879438877,-0.9290392994880676,-0.2430313527584076,0.0,0.0,-0.4815472364425659,-0.187690794467926
-0.2936530113220215,1.2970234155654907,-0.0791460424661636,0.0503075793385505,-0.9411458969116212,-0.2421318739652633,0.0,0.0,-0.450111985206604,-0.2841073274612427
-0.2944268584251404,1.2981290817260742,-0.0702576711773872,0.0425447262823581,-0.95317280292511,-0.2405377179384231,0.0,0.0,-0.6153436899185181,-0.3812166452407837
-0.2951093316078186,1.2990598678588867,-0.061304934322834,0.0347844809293746,-0.9650856256484984,-0.2382580935955047,0.0,0.0,-0.2928001880645752,-0.1421008706092834
-0.2956996560096741,1.299815654754639,-0.0522934682667255,0.0270268637686967,-0.976850926876068,-0.2353059947490692,0.0,0.0,-0.0379628539085388,-0.0709903240203857
-0.2961971759796142,1.3003957271575928,-0.0432284027338027,0.0192718897014856,-0.9884358048439026,-0.2316975891590118,0.0,0.0,-0.0106330513954162,-0.2158967852592468
-0.2966012060642242,1.3007997274398804,-0.0341144017875194,0.0115195559337735,-0.9998083710670472,-0.2274519503116607,0.0,0.0,-0.385096788406372,0.1254662275314331
-0.2969112396240234,1.3010274171829224,-0.024955715984106,0.0037698342930525,-1.0109379291534424,-0.222590759396553,0.0,0.0,-0.5093249678611755,0.5233466625213623
-0.2971010208129883,1.3010218143463137,-0.0124334711581468,-0.0072907288558781,-1.0232080221176147,-0.2454010546207428,0.0,0.0,-0.1180171966552734,0.1932989358901977
-0.2971956133842468,1.3008394241333008,-0.0032001726794987,-0.0150367738679051,-1.0351769924163818,-0.2393798828125,0.0,0.0,-0.297034740447998,-0.2566205263137817
-0.297194629907608,1.300479531288147,0.0060672601684927,-0.022780267521739,-1.0468177795410156,-0.2328180074691772,0.0,0.0,-0.1890466213226318,0.4431302547454834
-0.2970976829528808,0.0,0.015365881845355,-0.0305212829262018,-1.0581049919128418,-0.2257431745529174,0.0,0.0,-0.201331079006195,0.5516116619110107
-0.2968876361846924,1.2991821765899658,0.0269024111330509,-0.0408265106379985,-1.070075511932373,-0.2394097596406936,0.0,0.0,-0.5170276761054993,0.0656255483627319
-0.2965807914733886,1.2982443571090698,0.0362528823316097,-0.0485638156533241,-1.081645131111145,-0.2313919365406036,0.0,0.0,-0.37896728515625,0.75392746925354
-0.2961427569389343,1.2970411777496338,0.0500472262501716,-0.0614128299057483,-1.0949121713638306,-0.2653406262397766,0.0,0.0,0.4167938232421875,0.3990399837493896
-0.2953019738197326,1.2958065271377563,0.089861050248146,-0.0624558590352535,-1.107493281364441,-0.2516213357448578,0.0,0.0,-0.1860893368721008,0.0244039297103881
-0.2943634986877441,1.294392466545105,0.0992720052599906,-0.0701882094144821,-1.1196128129959106,-0.2423917949199676,0.0,0.0,-0.2973610162734985,0.6159718036651611
-0.2933046221733093,1.2927409410476685,0.1115878075361251,-0.0813679844141006,-1.1326770782470703,-0.2612845301628113,0.0,0.0,-0.326303482055664,0.581335186958313
-0.2921203970909118,1.2908390760421753,0.1244821697473526,-0.0933038517832756,-1.1469767093658447,-0.2859931588172912,0.0,0.0,0.2326428890228271,0.6012575626373291
-0.2903989255428314,1.2888766527175903,0.1783685982227325,-0.0965842381119728,-1.1621456146240234,-0.3033770322799682,0.0,0.0,-0.2048056125640869,0.2231042385101318
-0.2885786890983581,1.2867343425750732,0.187829241156578,-0.1043126136064529,-1.176789402961731,-0.2928755581378937,0.0,0.0,0.4736542701721191,0.2827718257904053
-0.285990297794342,1.2847415208816528,0.2641496062278747,-0.0972366631031036,-1.1906447410583496,-0.2771058678627014,0.0,0.0,-0.0172516703605651,0.5529630184173584
-0.2832872271537781,1.282501459121704,0.2757876813411712,-0.1088828593492508,-1.205484390258789,-0.2967923283576965,0.0,0.0,-0.1598854660987854,0.1693201065063476
-0.2804852426052093,1.2800809144973757,0.2852778732776642,-0.1166065633296966,-1.2197623252868652,-0.2855584323406219,0.0,0.0,0.2322721481323242,0.2853826284408569
-0.2772567868232727,1.2778124809265137,0.3276922702789306,-0.1098147332668304,-1.2339109182357788,-0.2829726338386535,0.0,0.0,0.3813055753707886,-0.014144480228424
-0.2734905779361725,1.2756222486495972,0.3811129033565521,-0.1060702726244926,-1.2475610971450806,-0.2730039656162262,0.0,0.0,-0.0377764701843261,-0.0529243946075439
-0.2696256041526794,1.2732504606246948,0.3906244337558746,-0.113789327442646,-1.2606207132339478,-0.2611927986145019,0.0,0.0,-0.0466195344924926,-0.1355296373367309
-0.2656620144844055,1.2706973552703855,0.4001413285732269,-0.121506929397583,-1.273081660270691,-0.2492189705371856,0.0,0.0,-0.3964412212371826,-0.5499958992004395
-0.2616086900234222,1.268012523651123,0.4084676802158355,-0.1262560337781906,-1.2837955951690674,-0.2142794877290725,0.0,0.0,0.2190772294998169,-0.1290928125381469
-0.2568811774253845,1.265371799468994,0.4755799174308777,-0.1238661333918571,-1.2938110828399658,-0.2003103047609329,0.0,0.0,-0.6654822826385498,-0.282841145992279
