x_pos,y_pos,x_vel,y_vel,angle,ang_vel,leg_1,leg_2,main_booster,lat_booster
-0.001537799835205,1.4034957885742188,-0.1548785120248794,-0.3299735188484192,0.000983441947028,0.0193415451794862,0.0,0.0,0.267450920159674,-0.7046262850649492
-0.0031012534163892,1.3964931964874268,-0.1579990088939666,-0.3112311363220215,0.0026071495376527,0.0324780754745006,0.0,0.0,0.2538094091323415,-0.6665798755404168
-0.0046198843047022,1.389816403388977,-0.1542257219552993,-0.2967496812343597,0.0049433233216404,0.0467278510332107,0.0,0.0,0.1517317708960939,0.7876120796157747
-0.0061885835602879,1.3835304975509644,-0.1567524522542953,-0.2793773412704468,0.0048277284950017,-0.0023120711557567,0.0,0.0,-0.4096169990459892,-0.7981557235681839
-0.0078217508271336,1.3771177530288696,-0.1636387556791305,-0.2850112915039062,0.0051513314247131,0.006472451146692,0.0,0.0,-0.7491432192491623,-0.9674984993084456
-0.0095288278535008,1.3705744743347168,-0.1717185378074646,-0.2908192276954651,0.0061475792899727,0.0199269857257604,0.0,0.0,-0.4574307705423694,-0.62263796844961
-0.0113019943237304,1.3639018535614014,-0.178802341222763,-0.2965680360794067,0.0076143858022987,0.0293389055877923,0.0,0.0,-0.9717445740143992,0.9893561223924056
-0.0129933357238769,1.3571045398712158,-0.1673208028078079,-0.3021009862422943,0.0058276313357055,-0.0357383750379085,0.0,0.0,-0.9480317176222176,-0.7620272849736881
-0.0147609710693359,1.3501859903335571,-0.1756930500268936,-0.3074857294559479,0.00477124331519,-0.0211297068744897,0.0,0.0,0.2184842112502369,0.9874496125707092
-0.0164690967649221,1.3439490795135498,-0.1669431924819946,-0.2771891355514526,0.000945592590142,-0.0765202566981315,0.0,0.0,-0.1081444958427835,0.6181691429735995
-0.0181363113224506,1.3375840187072754,-0.1606188267469406,-0.2828955948352813,-0.0050910837016999,-0.1207446008920669,0.0,0.0,0.4639662732266543,-0.6957350519655671
-0.0198015216737985,1.3317912817001345,-0.1611198931932449,-0.2574764788150787,-0.0104266041889786,-0.10672028362751,0.0,0.0,0.7346562267643064,-0.6759752228059203
-0.0213783271610736,1.326973795890808,-0.1531771868467331,-0.2141497731208801,-0.0148798236623406,-0.089072436094284,0.0,0.0,0.9257750090117816,-0.7920130656291091
-0.0229378696531057,1.3226407766342163,-0.1524274051189422,-0.1926217079162597,-0.0183784570544958,-0.0699788928031921,0.0,0.0,0.2631327008775659,-0.8050972381426091
-0.0244405753910541,1.3191311359405518,-0.1476455330848693,-0.1560165286064148,-0.0209613870829343,-0.0516631193459034,0.0,0.0,-0.8161979478608625,-0.6231080392804911
-0.0259969718754291,1.3154869079589844,-0.1532229483127594,-0.1620014458894729,-0.0233505982905626,-0.0477888248860836,0.0,0.0,-0.9733213145986784,-0.6527557496913301
-0.0276061054319143,1.311723232269287,-0.1586750745773315,-0.1673071980476379,-0.025557292625308,-0.0441379398107528,0.0,0.0,-0.7889632547304912,0.7491021883517701
-0.0291546825319528,1.3078222274780271,-0.1499470621347427,-0.1734719276428222,-0.0304215047508478,-0.0972932875156402,0.0,0.0,-0.670739129266726,-0.7119566136527407
-0.0307622905820608,1.3038017749786377,-0.1562205255031585,-0.1787808239459991,-0.0349163301289081,-0.0899045243859291,0.0,0.0,-0.6284748006422212,0.6385084389136799
-0.032337762415409,1.2996509075164795,-0.1510604172945022,-0.1846497058868408,-0.041329551488161,-0.1282761693000793,0.0,0.0,0.0135175814709052,-0.9534134395615192
-0.0338857658207416,1.2960692644119265,-0.1493781358003616,-0.1593464761972427,-0.0467014200985431,-0.1074466705322265,0.0,0.0,0.5806446291046776,0.8111951037934539
-0.0353478416800498,1.2929840087890625,-0.1383440196514129,-0.137382835149765,-0.0544865243136882,-0.1557160913944244,0.0,0.0,0.8812367620037036,-0.6125983959229284
-0.0366758331656456,1.2906901836395264,-0.1257749497890472,-0.1022232100367546,-0.0614470355212688,-0.1392225921154022,0.0,0.0,0.5261668498755718,0.6584418539855459
-0.0378727912902832,1.288681983947754,-0.110655166208744,-0.0896474942564964,-0.0703929290175437,-0.1789337247610092,0.0,0.0,-0.830780592364696,-0.9873705185870354
-0.0391736030578613,1.2865593433380127,-0.1226784139871597,-0.0946941450238227,-0.0777279213070869,-0.1467132717370987,0.0,0.0,0.496839070465505,-0.8895013324704423
-0.0406516082584857,1.2852725982666016,-0.1411705911159515,-0.0575507953763008,-0.0842939168214798,-0.1313198059797287,0.0,0.0,0.6622547895016606,-0.6029962357800736
-0.0421174988150596,1.2849602699279783,-0.1403652131557464,-0.0142478011548519,-0.090469129383564,-0.1235041171312332,0.0,0.0,-0.6641128036655222,-0.6766038664344407
-0.0436533913016319,1.284536361694336,-0.1481829583644867,-0.0191750992089509,-0.095823235809803,-0.1070823296904563,0.0,0.0,0.4276861587484108,0.8615815987753279
-0.0451881401240825,1.2850004434585571,-0.1453808099031448,0.0200869217514991,-0.1038641184568405,-0.1608175039291381,0.0,0.0,0.8035526970062685,0.6214266996202226
-0.0466470718383789,1.2861261367797852,-0.1356492489576339,0.0492819957435131,-0.1140302345156669,-0.2033224105834961,0.0,0.0,-0.9726445498203702,-0.7458975110757804
-0.048164464533329,1.287143588066101,-0.1421357691287994,0.0444600656628608,-0.123573213815689,-0.1908595710992813,0.0,0.0,-0.823529065415953,0.7596236033732728
-0.0496314987540245,1.288021206855774,-0.1349659115076065,0.0379873476922512,-0.135261133313179,-0.2337583601474762,0.0,0.0,0.9011726401769278,0.6302147102545527
-0.051025103777647,1.2901611328125,-0.1252964437007904,0.0937698185443878,-0.1492943167686462,-0.2806636691093445,0.0,0.0,0.9488052154780068,0.8966163816561132
-0.0523668304085731,1.292802810668945,-0.1173521280288696,0.1156319379806518,-0.1661049425601959,-0.336212545633316,0.0,0.0,-0.1640715640881314,0.923453980723241
-0.0536319725215435,1.295305252075195,-0.1070175543427467,0.1089219748973846,-0.1856352984905243,-0.3906070590019226,0.0,0.0,0.053642717025071,0.96529209131805
-0.0547143928706646,1.298379898071289,-0.0860900729894638,0.1337255388498306,-0.2079231590032577,-0.4457575678825378,0.0,0.0,0.7722097724829546,-0.968690428683466
-0.0557967200875282,1.302079439163208,-0.0872641131281852,0.1613425761461258,-0.229131743311882,-0.4241717457771301,0.0,0.0,-0.1836784864801814,-0.8339655692522634
-0.0569313988089561,1.3056857585906982,-0.0933396965265274,0.1570217907428741,-0.2495795786380767,-0.4089563488960266,0.0,0.0,0.2155421360599021,0.768189737709364
-0.0578763969242572,1.3100712299346924,-0.0721365213394165,0.1909452229738235,-0.2724229097366333,-0.4568670690059662,0.0,0.0,0.8437188144063452,0.9984624131567496
-0.0585189834237098,1.3152737617492676,-0.0393256917595863,0.2263715118169784,-0.2980544865131378,-0.5126323103904724,0.0,0.0,0.5459973566969376,-0.8311540947959967
-0.0591036789119243,1.3214881420135498,-0.0344260372221469,0.2710740268230438,-0.3229660987854004,-0.4982329905033111,0.0,0.0,-0.930162250995636,-0.9086675047874452
-0.0597296729683876,1.327609896659851,-0.0393831208348274,0.2667135596275329,-0.3472189307212829,-0.4850565493106842,0.0,0.0,-0.8157731890678406,-0.9785001277923584
-0.060404397547245,1.3336365222930908,-0.0452689938247203,0.2623198926448822,-0.3706145584583282,-0.4679122865200043,0.0,0.0,-0.9252281785011292,-0.9453784823417664
-0.0611214637756347,1.3395767211914062,-0.0504681691527366,0.25834521651268,-0.3931982517242431,-0.451674073934555,0.0,0.0,-0.8683294057846069,-0.8859087824821472
-0.0618926063179969,1.345431566238403,-0.0571211501955986,0.2545273900032043,-0.4146497249603271,-0.4290297627449035,0.0,0.0,-0.9134181141853333,-0.948497474193573
-0.062710665166378,1.351199746131897,-0.0629178136587143,0.2506885230541229,-0.4351024925708771,-0.4090552926063537,0.0,0.0,-0.9624826908111572,-0.912227749824524
-0.0635683983564376,1.3568847179412842,-0.0678788274526596,0.2469955533742904,-0.4546578228473663,-0.3911067843437195,0.0,0.0,-0.9743507504463196,-0.8837891817092896
-0.0644754394888877,1.3625125885009766,-0.0742646306753158,0.2446478754281997,-0.4728070199489593,-0.3629839420318603,0.0,0.0,-0.9742259979248048,-0.8538459539413452
-0.0654301643371582,1.368082046508789,-0.0804186537861824,0.242315337061882,-0.4895550906658172,-0.3349621593952179,0.0,0.0,-0.9421665668487548,-0.8910075426101685
-0.0664253234863281,1.373579740524292,-0.0856149941682815,0.2393160760402679,-0.5051572322845459,-0.3120428919792175,0.0,0.0,-0.9314786791801452,-0.8029139637947083
-0.0674369782209396,1.378990888595581,-0.0878323763608932,0.2354988902807235,-0.5202549695968628,-0.3019549250602722,0.0,0.0,-0.94014972448349,-0.847837507724762
-0.0684829726815223,1.384339690208435,-0.0924174711108207,0.2330084294080734,-0.5341577529907227,-0.278055727481842,0.0,0.0,-0.9572576284408568,-0.7990187406539917
-0.0695462226867675,1.3896023035049438,-0.0947900414466857,0.2292771637439727,-0.5474540591239929,-0.2659264206886291,0.0,0.0,-0.9316290020942688,-0.6936975121498108
-0.0706239715218544,1.394790768623352,-0.0969245284795761,0.2261346280574798,-0.5600393414497375,-0.2517061233520508,0.0,0.0,-0.9438625574111938,-0.8196819424629211
-0.0717128738760948,1.399893045425415,-0.0986005440354347,0.2224247455596923,-0.5720741748809814,-0.240696907043457,0.0,0.0,-0.9615954756736756,-0.8075723052024841
-0.0728324875235557,1.4049298763275146,-0.102800503373146,0.2198840677738189,-0.5828649401664734,-0.2158158719539642,0.0,0.0,-0.970227599143982,-0.7620867490768433
-0.0739582031965255,1.4098916053771973,-0.1040073037147522,0.2167285829782486,-0.5930092334747314,-0.2028858959674835,0.0,0.0,-0.9642383456230164,-0.6475906372070312
-0.0750805884599685,1.4147658348083496,-0.1040300950407981,0.2129131853580474,-0.6028115749359131,-0.1960467100143432,0.0,0.0,-0.9565485715866088,-0.5206178426742554
-0.0761945694684982,1.4195523262023926,-0.1034517511725425,0.2090624868869781,-0.6123477220535278,-0.1907227933406829,0.0,0.0,-0.9864271879196168,-0.8483920097351074
-0.0773293524980545,1.4242864847183228,-0.10672427713871,0.2072145491838455,-0.6205202341079712,-0.1634498685598373,0.0,0.0,-0.928111970424652,-0.3504980206489563
-0.0784262642264366,1.4288980960845947,-0.1023859158158302,0.2014543414115905,-0.6293958425521851,-0.177512377500534,0.0,0.0,-0.9471727013587952,-0.5427876710891724
-0.0795224159955978,1.4334328174591064,-0.1029262319207191,0.1982680708169937,-0.6375817060470581,-0.1637171059846878,0.0,0.0,-0.971559464931488,-0.7875116467475891
-0.0806179046630859,1.4378864765167236,-0.1034640297293663,0.1949096769094467,-0.6450843811035156,-0.1500535309314727,0.0,0.0,-0.973850429058075,-0.6131466627120972
-0.0817081481218338,1.4422593116760254,-0.1034659892320633,0.1915342956781387,-0.6519607305526733,-0.1375267505645752,0.0,0.0,-0.9332634210586548,-0.5938677191734314
-0.0827937126159668,1.4465466737747192,-0.1035369783639907,0.1879815012216568,-0.6582070589065552,-0.1249271035194397,0.0,0.0,-0.9379047751426696,-0.5083863139152527
-0.0838729888200759,1.4507545232772827,-0.1035148277878761,0.1847236901521682,-0.66373610496521,-0.1105814129114151,0.0,0.0,-0.9689346551895142,-0.2601575851440429
-0.0849077254533767,1.4548388719558716,-0.0985886454582214,0.1789692193269729,-0.6698675155639648,-0.1226275190711021,0.0,0.0,-0.9251127243041992,-0.6879847049713135
-0.0859362632036209,1.4588361978530884,-0.0985536947846412,0.175376608967781,-0.6752916574478149,-0.1084829196333885,0.0,0.0,-0.9546929597854614,-0.7690990567207336
-0.0869586020708084,1.4627697467803955,-0.0987992361187934,0.172981321811676,-0.6796452403068542,-0.0870717391371727,0.0,0.0,-0.9554656147956848,-0.2128881216049194
-0.0879333466291427,1.4665791988372805,-0.0936276391148567,0.1672307103872299,-0.6845305562019348,-0.0977066531777381,0.0,0.0,-0.9572216868400574,-0.5874139070510864
-0.0888988524675369,1.4703160524368286,-0.0935007631778717,0.1644068509340286,-0.6884278655052185,-0.0779458135366439,0.0,0.0,-0.9801353216171264,-0.5750033855438232
-0.0898469910025596,1.4739691019058228,-0.0923333317041397,0.1609971970319748,-0.6915987730026245,-0.0634184256196022,0.0,0.0,-0.9096372723579408,-0.6902192234992981
-0.0907912254333496,1.477565050125122,-0.0930469557642936,0.159063309431076,-0.6933568120002747,-0.035160481929779,0.0,0.0,-0.9809181690216064,-0.5131420493125916
-0.0917108505964279,1.4810692071914673,-0.0910480171442031,0.1552307605743408,-0.6945366263389587,-0.0235961657017469,0.0,0.0,-0.9774408340454102,-0.5867928266525269
-0.0926172286272049,1.4844903945922852,-0.090473785996437,0.1519643664360046,-0.6947400569915771,-0.0040680924430489,0.0,0.0,-0.9367533326148988,-0.3425440788269043
-0.0934705734252929,1.487785816192627,-0.0849072784185409,0.1462244242429733,-0.6952897906303406,-0.0109951812773942,0.0,0.0,-0.9576235413551332,-0.698514997959137
-0.094316765666008,1.491004467010498,-0.0852041840553283,0.1433740109205246,-0.6945415139198303,0.0149661200121045,0.0,0.0,-0.9751563668251038,-0.6098544597625732
-0.0951426476240158,1.4941465854644775,-0.0840295255184173,0.1404535621404647,-0.692693293094635,0.0369640216231346,0.0,0.0,-0.9796579480171204,-0.5004950761795044
-0.0959367752075195,1.497198224067688,-0.0814248770475387,0.1367303431034088,-0.6901143193244934,0.0515785738825798,0.0,0.0,-0.9608887434005736,-0.3217194080352783
-0.0966747254133224,1.5001225471496582,-0.0756632760167121,0.1309981644153595,-0.6877302527427673,0.0476821586489677,0.0,0.0,-0.9609794020652772,-0.7170966267585754
-0.0974110588431358,1.5029782056808472,-0.0768742561340332,0.128683939576149,-0.6835969090461731,0.0826665237545967,0.0,0.0,-0.9756087064743042,-0.3910835981369018
-0.0980897918343544,1.5057061910629272,-0.0710340216755867,0.1229554489254951,-0.679577648639679,0.0803851932287216,0.0,0.0,-0.9750151634216307,-0.5249853730201721
-0.0987470597028732,1.508350849151611,-0.0699095800518989,0.1197859123349189,-0.6742845773696899,0.1058616414666175,0.0,0.0,-0.9514649510383606,-0.5464891195297241
-0.0993803963065147,1.510912537574768,-0.0685435831546783,0.1166115701198577,-0.6677117347717285,0.1314567625522613,0.0,0.0,-0.9633427262306212,0.1281031370162964
-0.0999539345502853,1.5133458375930786,-0.062607429921627,0.1108878180384635,-0.6611303091049194,0.1316281408071518,0.0,0.0,-0.9191054701805116,-0.0173010826110839
-0.1004673019051551,1.515650510787964,-0.056643970310688,0.1051661223173141,-0.6544999480247498,0.1326075792312622,0.0,0.0,-0.9587990641593932,-0.4646186232566833
-0.1009197235107421,1.5178261995315552,-0.0506558194756507,0.0994463935494422,-0.6477807760238647,0.134383350610733,0.0,0.0,-0.9532167315483092,-0.2255671024322509
-0.1013107299804687,1.519872546195984,-0.044645506888628,0.0937284976243972,-0.6409338116645813,0.1369397640228271,0.0,0.0,-0.9475910663604736,-0.1561826467514038
-0.1016397476196289,1.5217894315719604,-0.0386155024170875,0.0880123153328895,-0.6339209079742432,0.1402575522661209,0.0,0.0,-0.9375293850898744,-0.6510358452796936
-0.1019395813345909,1.5236070156097412,-0.0367767103016376,0.0840847194194793,-0.6256265640258789,0.1658867597579956,0.0,0.0,-0.9581592679023744,-0.5868629813194275
-0.1022119522094726,1.525338649749756,-0.0353284962475299,0.0808263048529625,-0.6158015131950378,0.1965001225471496,0.0,0.0,-0.901967704296112,-0.5364143252372742
-0.1024513244628906,1.5269781351089478,-0.0332343652844429,0.0772094950079917,-0.6045956611633301,0.2241168469190597,0.0,0.0,-0.96258282661438,-0.4766947627067566
-0.1026265174150466,1.5284879207611084,-0.0271541364490985,0.0714940801262855,-0.5930843353271484,0.2302261292934417,0.0,0.0,-0.8916465640068054,-0.6378201842308044
-0.1027739495038986,1.5298974514007568,-0.0256961025297641,0.0675002336502075,-0.580104410648346,0.2595986723899841,0.0,0.0,-0.8993160128593445,-0.6675140261650085
-0.1029043197631836,1.5312224626541138,-0.0257133152335882,0.0643513724207878,-0.5652034282684326,0.2980197966098785,0.0,0.0,-0.8120458722114563,-0.3559348583221435
-0.1029690727591514,1.532418727874756,-0.0196212548762559,0.0586320906877517,-0.5499082207679749,0.3059056997299194,0.0,0.0,-0.8588947653770447,-0.0316641330718994
-0.102968119084835,1.5334856510162354,-0.0135281383991241,0.0529125407338142,-0.5341922044754028,0.3143203258514404,0.0,0.0,-0.906120777130127,-0.5249353647232056
-0.1029416099190712,1.534466028213501,-0.0126967299729585,0.0495147183537483,-0.5166770815849304,0.350302904844284,0.0,0.0,-0.9373464584350586,-0.1674345731735229
-0.1028486266732215,1.53531813621521,-0.0066111893393099,0.043790552765131,-0.4986931383609772,0.3596791625022888,0.0,0.0,-0.9555069208145142,-0.0973349809646606
-0.1026887893676757,1.5360424518585205,-0.0005313944420777,0.0380651988089084,-0.4802185595035553,0.3694911599159241,0.0,0.0,-0.9815443754196168,-0.3989121913909912
-0.1024620085954666,1.536638855934143,0.0055403541773557,0.0323383994400501,-0.4612330794334411,0.379709929227829,0.0,0.0,-0.9913690686225892,-0.6018982529640198
-0.1022126227617263,1.5371391773223877,0.0059620845131576,0.0283788964152336,-0.4404089450836181,0.4164823889732361,0.0,0.0,-0.9924838542938232,0.7944824695587158
-0.1018503159284591,1.537481427192688,0.0177912302315235,0.0208664536476135,-0.4203715026378631,0.4007492959499359,0.0,0.0,-0.991447925567627,0.3085979223251343
-0.1014207825064659,1.5376968383789062,0.0238246694207191,0.015133824199438,-0.3997702002525329,0.4120260179042816,0.0,0.0,-0.9967281222343444,0.6847374439239502
-0.100864790380001,1.5377521514892578,0.0373174138367176,0.0074880174361169,-0.3802500367164612,0.3904033303260803,0.0,0.0,-0.9917460680007936,0.5061101913452148
-0.1002023667097091,1.5376522541046145,0.0483541414141655,0.0002014674100792,-0.3612915873527527,0.3791689276695251,0.0,0.0,-0.9962068200111388,0.4773664474487304
-0.0994730964303016,1.5374250411987305,0.0543318167328834,-0.0055299848318099,-0.3417267799377441,0.3912959396839142,0.0,0.0,-0.9952050447463988,0.4991376399993896
-0.0986769646406173,1.5370714664459229,0.0602835789322853,-0.0112640801817178,-0.3215435743331909,0.4036642014980316,0.0,0.0,-0.9970630407333374,0.7559150457382202
-0.0977426543831825,1.536564588546753,0.0752052217721939,-0.0185882952064275,-0.3026298582553863,0.3782744705677032,0.0,0.0,-0.9978625178337096,-0.0839979648590087
-0.0967421531677246,1.5359313488006592,0.0810991674661636,-0.0243221875280141,-0.2830761075019836,0.3910754024982452,0.0,0.0,-0.9971941113471984,0.3320858478546142
-0.0956755653023719,1.5351718664169312,0.0869579091668129,-0.0300590135157108,-0.2628727555274963,0.4040672183036804,0.0,0.0,-0.997933030128479,0.3637387752532959
-0.0945431739091873,1.5342867374420166,0.092778094112873,-0.035798966884613,-0.2420109957456588,0.4172353148460388,0.0,0.0,-0.997668206691742,0.6916413307189941
-0.0932860374450683,1.5332508087158203,0.1060644164681434,-0.0429357327520847,-0.2220687568187713,0.3988451957702636,0.0,0.0,-0.9967557191848756,0.94907546043396
-0.0919054970145225,1.532070875167847,0.1191505789756774,-0.0497097857296466,-0.2029743492603302,0.3818880617618561,0.0,0.0,-0.993269979953766,0.9832956790924072
-0.0904010757803917,1.5307440757751465,0.1323292851448059,-0.0565948262810707,-0.1847556084394455,0.3643746972084045,0.0,0.0,-0.9866322875022888,0.997844696044922
-0.088758185505867,1.5292692184448242,0.1473493874073028,-0.0635284259915351,-0.167779803276062,0.3395163118839264,0.0,0.0,-0.98771333694458,0.9920320510864258
-0.0869718566536903,1.5276453495025637,0.1630384773015976,-0.0704882815480232,-0.1521840244531631,0.3119154572486877,0.0,0.0,-0.9795962572097778,0.9999068975448608
-0.0850289314985275,1.5258631706237793,0.1804051399230957,-0.0778432786464691,-0.1383277922868728,0.2771253585815429,0.0,0.0,-0.9879242777824402,0.9533884525299072
-0.0829369574785232,1.523939609527588,0.1967862099409103,-0.0843967199325561,-0.1259781718254089,0.2469923943281173,0.0,0.0,-0.960031270980835,0.9926303625106812
-0.0807021111249923,1.5218818187713623,0.2124257087707519,-0.0905630588531494,-0.114978902041912,0.2199853956699371,0.0,0.0,-0.9805858731269836,0.998375654220581
