x_pos,y_pos,x_vel,y_vel,angle,ang_vel,leg_1,leg_2,main_booster,lat_booster
-0.0015253067249432,1.4032468795776367,-0.1544470489025116,-0.3410300016403198,0.0017101863631978,0.0337312296032905,0.0,0.0,0.8465694545620961,-0.8515209472672904
-0.0030566216446459,1.395988702774048,-0.156582623720169,-0.3225976824760437,0.0051288763061165,0.0683808997273445,0.0,0.0,0.317123998540916,-0.7369601516675767
-0.0045300484634935,1.3888306617736816,-0.1523886024951934,-0.3181585073471069,0.0101229334250092,0.0998904630541801,0.0,0.0,0.5030879315741847,-0.6226921035677893
-0.0061769485473632,1.3819726705551147,-0.1706300973892212,-0.3048500120639801,0.0159983225166797,0.1175184696912765,0.0,0.0,-0.1837047405575012,-0.556998361969187
-0.0078601837158203,1.3747385740280151,-0.1750693619251251,-0.321603924036026,0.022664250805974,0.1333309113979339,0.0,0.0,0.661762615979619,-0.7400153022106595
-0.0094647407531738,1.3679490089416504,-0.1689294874668121,-0.301908791065216,0.0310422386974096,0.1675755381584167,0.0,0.0,-0.6550061921701553,-0.7332533956664097
-0.0111312866210937,1.360779881477356,-0.1765565127134323,-0.3188552558422088,0.0408430509269237,0.1960342228412628,0.0,0.0,-0.7745881289557484,-0.6366572023697071
-0.0128376008942723,1.3532344102859497,-0.1814118772745132,-0.3356847763061523,0.0515068061649799,0.2132946699857711,0.0,0.0,-0.4983506266287785,-0.9674238844421688
-0.0146241188049316,1.3453174829483032,-0.1913064420223236,-0.3523404002189636,0.0640357509255409,0.2506020665168762,0.0,0.0,0.5709138460916774,0.8870592754270974
-0.0163885112851858,1.3380709886550903,-0.1872098296880722,-0.3225646913051605,0.0747108086943626,0.2135207653045654,0.0,0.0,-0.1085227252797922,-0.9640225157561316
-0.018220042809844,1.33044171333313,-0.195476233959198,-0.3397377431392669,0.0869329646229744,0.2444655001163482,0.0,0.0,0.6067272268379289,-0.7630144696847249
-0.0200828555971384,1.3232053518295288,-0.2001595050096511,-0.3224818408489227,0.1007214412093162,0.2757948338985443,0.0,0.0,0.5249764681421116,-0.6413204984736877
-0.0219328887760639,1.316572904586792,-0.2003471404314041,-0.2958783507347107,0.1159771308302879,0.3051415085792541,0.0,0.0,0.4772724651999018,-0.9482403982192352
-0.0238258354365825,1.3100297451019287,-0.2064882814884185,-0.2922306060791015,0.1330968588590622,0.3424258828163147,0.0,0.0,-0.6671845089382193,-0.9433520265093486
-0.0257789604365825,1.3031114339828491,-0.2137897908687591,-0.3092372715473175,0.1515475213527679,0.3690470457077026,0.0,0.0,0.3975893840965347,0.7563700222547816
-0.0276104919612407,1.2962205410003662,-0.2001415789127349,-0.3080821335315704,0.1685486137866974,0.3400528132915497,0.0,0.0,0.8587798700752525,0.8715314454455207
-0.0293713565915823,1.290448546409607,-0.19150111079216,-0.2583530843257904,0.1840236783027649,0.3095299303531647,0.0,0.0,-0.9164893014527538,0.9313528076998092
-0.031044578179717,1.2843183279037476,-0.1802994906902313,-0.2741186022758484,0.1970889121294021,0.261328637599945,0.0,0.0,0.6275946399175432,-0.5738851760728964
-0.0328191742300987,1.2789982557296753,-0.1916973739862442,-0.2384043037891388,0.2114539891481399,0.2873274981975555,0.0,0.0,0.2094147574050864,-0.7881443105458343
-0.0348098762333393,1.273869514465332,-0.2146516591310501,-0.2302501499652862,0.2272252291440963,0.3154532313346863,0.0,0.0,0.5622422758991994,-0.9388926097726906
-0.0369039550423622,1.2694331407546997,-0.2268237620592117,-0.1999523490667343,0.2449295669794082,0.3541190028190613,0.0,0.0,-0.8743749386884552,0.5735225223783706
-0.0389555916190147,1.2646360397338867,-0.2212462872266769,-0.2159701436758041,0.2613404095172882,0.3282466232776642,0.0,0.0,0.6359096817311995,-0.5026918362692585
-0.0410552024841308,1.2602828741073608,-0.2272093743085861,-0.1966447830200195,0.2790316939353943,0.3538571298122406,0.0,0.0,-0.7888729391723095,-0.5226809215935362
-0.043191622942686,1.255535125732422,-0.2316081225872039,-0.214552491903305,0.2975465953350067,0.3703305125236511,0.0,0.0,-0.443111610812545,0.6532046949995041
-0.0452939979732036,1.2504322528839111,-0.2269988358020782,-0.2303178012371063,0.3149257600307464,0.3476142585277557,0.0,0.0,-0.464262538192985,-0.5100042667931541
-0.0474427230656147,1.2449142932891846,-0.2326832115650177,-0.2492203712463379,0.3334762752056122,0.3710094392299652,0.0,0.0,0.344209193500262,-0.8110356498036448
-0.0498456954956054,1.2398359775543213,-0.25946244597435,-0.230258896946907,0.3535658419132232,0.4017912447452545,0.0,0.0,0.7122526833355958,0.9420044319322394
-0.0526225082576274,1.2355566024780271,-0.2945649027824402,-0.1944496035575866,0.3713858425617218,0.3564009070396423,0.0,0.0,-0.1155525939824393,0.9045598024048832
-0.0553518310189247,1.2309401035308838,-0.2882147431373596,-0.2092351019382476,0.3876202404499054,0.3246878683567047,0.0,0.0,-0.2227166577125636,-0.70709237848314
-0.0581362731754779,1.2259138822555542,-0.294912725687027,-0.2279719710350036,0.4052496552467346,0.3525881469249725,0.0,0.0,0.2518858407609556,0.7794121670584524
-0.0611074455082416,1.2214510440826416,-0.3118757009506225,-0.202650636434555,0.421150654554367,0.3180194497108459,0.0,0.0,-0.9484670162200928,0.98498272895813
-0.064017966389656,1.216648817062378,-0.3039643466472626,-0.2173531502485275,0.4351598918437958,0.2801846861839294,0.0,0.0,-0.985129415988922,0.9837578535079956
-0.0668729767203331,1.211520791053772,-0.2965957522392273,-0.2313969731330871,0.4472708106040954,0.2422179877758026,0.0,0.0,-0.913069486618042,0.9866209030151368
-0.0696647614240646,1.2060528993606567,-0.288456529378891,-0.2460121810436248,0.4574356973171234,0.2032976448535919,0.0,0.0,-0.9434606432914734,0.9510829448699952
-0.0723904594779014,1.2002604007720947,-0.2798267602920532,-0.259854644536972,0.4654381275177002,0.1600484549999237,0.0,0.0,-0.9850761294364928,0.9810816049575806
-0.075049303472042,1.1941497325897217,-0.2710900604724884,-0.273333340883255,0.4711966216564178,0.1151704937219619,0.0,0.0,-0.973313570022583,0.9902135133743286
-0.077642060816288,1.1877071857452393,-0.2625710070133209,-0.2874602377414703,0.4748613238334656,0.0732939392328262,0.0,0.0,-0.8378848433494568,0.9434399604797364
-0.080168530344963,1.180946707725525,-0.253943532705307,-0.3009067177772522,0.4762960970401764,0.028695210814476,0.0,0.0,-0.8334015011787415,0.989227533340454
-0.0826354995369911,1.1738675832748413,-0.2461282312870025,-0.314435213804245,0.4756607711315155,-0.0127065423876047,0.0,0.0,-0.9934303164482116,0.986323356628418
-0.0850323662161827,1.1664668321609497,-0.2370572388172149,-0.3280242681503296,0.4727447032928467,-0.0583211779594421,0.0,0.0,-0.9929850101470948,0.944833517074585
-0.0873788818717002,1.1587365865707395,-0.2304323017597198,-0.3421365320682525,0.4680764675140381,-0.0933646857738494,0.0,0.0,-0.9915478825569152,0.4121581315994262
-0.0897265449166297,1.1506284475326538,-0.2304455488920211,-0.3589118123054504,0.4633001387119293,-0.0955264568328857,0.0,0.0,-0.991810977458954,0.8679744005203247
-0.0920020118355751,1.142186999320984,-0.2212061583995819,-0.373083233833313,0.4563212096691131,-0.1395793259143829,0.0,0.0,-0.9931644201278688,0.8266295194625854
-0.0942105278372764,1.1334165334701538,-0.2125698029994964,-0.3871158063411712,0.4472275078296661,-0.1818742752075195,0.0,0.0,-0.9919812679290771,0.6948870420455933
-0.0963722243905067,1.1242947578430176,-0.2065283507108688,-0.4023692309856415,0.436691552400589,-0.2107193171977996,0.0,0.0,-0.9900825023651124,0.1002819538116455
-0.0985354408621788,1.1147960424423218,-0.2065284997224807,-0.4191518127918243,0.4260566234588623,-0.2126988172531128,0.0,0.0,-0.987407684326172,0.555042028427124
-0.1006554588675499,1.104947805404663,-0.2009101212024688,-0.4343835711479187,0.4140591025352478,-0.239950343966484,0.0,0.0,-0.9969121813774108,0.4429453611373901
-0.1027769073843956,1.0947234630584717,-0.2009052038192749,-0.4511691331863403,0.4019683599472046,-0.2418148964643478,0.0,0.0,-0.9972060918807985,0.7538337707519531
-0.1048591583967208,1.084156513214111,-0.1956944763660431,-0.4661588668823242,0.3885626792907715,-0.2681135237216949,0.0,0.0,-0.9916236996650696,0.896577000617981
-0.1068794280290603,1.0732500553131104,-0.1876626759767532,-0.4808824956417084,0.3732880353927612,-0.3054931461811065,0.0,0.0,-0.9922786951065063,0.877493143081665
-0.1088218688964843,1.0620157718658447,-0.1775889247655868,-0.4950602650642395,0.3556940257549286,-0.3518803715705871,0.0,0.0,-0.9888246655464172,0.5773172378540039
-0.1107283607125282,1.050432562828064,-0.1727961897850036,-0.510494589805603,0.3369447886943817,-0.3749851286411285,0.0,0.0,-0.9918909668922424,0.4822320938110351
-0.1126366630196571,1.0384761095046997,-0.1727762818336486,-0.5272979140281677,0.3181205689907074,-0.3764843344688415,0.0,0.0,-0.9872605204582214,0.0782325267791748
-0.1145464926958084,1.0261461734771729,-0.172755941748619,-0.5441017746925354,0.2992256283760071,-0.3778987526893616,0.0,0.0,-0.9700196981430054,0.4059705734252929
-0.1164578422904014,1.013443112373352,-0.172735333442688,-0.5609063506126404,0.2802644371986389,-0.3792240619659424,0.0,0.0,-0.9529456496238708,0.4257316589355469
-0.1183705329895019,1.0003671646118164,-0.1727145910263061,-0.5777114629745483,0.2612416446208954,-0.3804559111595154,0.0,0.0,-0.9593648314476012,0.2167308330535888
-0.1202845573425293,0.986918032169342,-0.1726939231157302,-0.5945171117782593,0.2421621531248092,-0.3815898895263672,0.0,0.0,-0.969660222530365,0.4552421569824219
-0.1221998184919357,0.9730960130691528,-0.1726734787225723,-0.6113232970237732,0.2230310589075088,-0.382621705532074,0.0,0.0,-0.9608981609344482,0.0988544225692749
-0.1241161376237869,0.9589011669158936,-0.1726534217596054,-0.6281299591064453,0.2038536965847015,-0.3835471272468567,0.0,0.0,-0.9643391966819764,0.0168315172195434
-0.1260333955287933,0.9443334341049194,-0.1726339310407638,-0.6449369788169861,0.1846356093883514,-0.3843618631362915,0.0,0.0,-0.9776230454444884,0.6324417591094971
-0.1278977394104004,0.929402768611908,-0.1658487617969513,-0.6611502766609192,0.1640093475580215,-0.4125252664089203,0.0,0.0,-0.975386679172516,-0.5531685948371887
-0.1298132836818695,0.9140902757644652,-0.1721831411123275,-0.6785343289375305,0.1446446478366851,-0.3872941136360168,0.0,0.0,-0.9855316281318665,0.1979211568832397
-0.1317295134067535,0.898405134677887,-0.1721663326025009,-0.6953428387641907,0.1252570152282714,-0.3877526521682739,0.0,0.0,-0.9789228439331056,-0.1399850845336914
-0.1336461007595062,0.8823473453521729,-0.1721507459878921,-0.7121515274047852,0.1058527529239654,-0.3880848586559295,0.0,0.0,-0.9611808061599731,-0.6554157137870789
-0.1356138288974762,0.865903913974762,-0.178490549325943,-0.7296274304389954,0.0877304002642631,-0.362446665763855,0.0,0.0,-0.9313313364982604,-0.3050909042358398
-0.1375816315412521,0.8490872383117676,-0.1784784942865371,-0.7464325428009033,0.0696045309305191,-0.3625176548957824,0.0,0.0,-0.9657752513885498,-0.6318338513374329
-0.1395979821681976,0.8318993449211121,-0.1845374107360839,-0.7631915211677551,0.0526932105422019,-0.3382266461849212,0.0,0.0,-0.9149636626243592,0.069085955619812
-0.1416143476963043,0.814337968826294,-0.1845288574695587,-0.7799932360649109,0.0357920303940773,-0.338023841381073,0.0,0.0,-0.8393264412879944,-0.6559426188468933
-0.1436801850795745,0.7964074015617371,-0.190756693482399,-0.7966061234474182,0.0201532561331987,-0.3127751648426056,0.0,0.0,-0.7333142161369324,0.215470552444458
-0.1457459479570388,0.778102695941925,-0.1907517611980438,-0.813404381275177,0.0045388448052108,-0.3122883141040802,0.0,0.0,-0.2264384627342224,-0.3353657722473144
-0.1478112190961837,0.7594234943389893,-0.1907486319541931,-0.8302025198936462,-0.0110439453274011,-0.3116557002067566,0.0,0.0,0.8385868072509766,0.0793267488479614
-0.1498342454433441,0.7414083480834961,-0.1867174804210662,-0.8008548617362976,-0.0264294371008873,-0.30771005153656,0.0,0.0,-0.1173665523529052,-0.1727766394615173
-0.1518568098545074,0.7230187058448792,-0.1867184042930603,-0.8176523447036743,-0.0417685322463512,-0.3067818284034729,0.0,0.0,0.564852237701416,-0.473281979560852
-0.1537863761186599,0.7050701975822449,-0.1778080910444259,-0.7982016801834106,-0.0567319057881832,-0.2992677092552185,0.0,0.0,0.357598066329956,-0.9741809964179992
-0.1558062583208084,0.6872297525405884,-0.1888538897037506,-0.7934595346450806,-0.0697162598371505,-0.2596872448921203,0.0,0.0,0.6214010715484619,-0.3266481161117553
-0.1577364951372146,0.6694840788841248,-0.1802924126386642,-0.7893301844596863,-0.0823232308030128,-0.2521395087242126,0.0,0.0,0.3740696907043457,-0.7663827538490295
-0.1597330123186111,0.6517885327339172,-0.1885003447532653,-0.7871266007423401,-0.0933710038661956,-0.2209555357694625,0.0,0.0,0.8693946599960327,-0.7671941518783569
-0.1617152243852615,0.6350740194320679,-0.1886873692274093,-0.7434982061386108,-0.1028263568878173,-0.1891068816184997,0.0,0.0,0.1364945173263549,-0.6988341212272644
-0.1636313498020172,0.6188258528709412,-0.1836569756269455,-0.7227081656455994,-0.1107252836227417,-0.1579785346984863,0.0,0.0,0.4135386943817138,0.6089358329772949
-0.1655252426862716,0.6032591462135315,-0.1801035702228546,-0.6925739645957947,-0.1199561133980751,-0.184616819024086,0.0,0.0,-0.7829498648643494,-0.2126063108444214
-0.1674181967973709,0.5873157382011414,-0.1801226288080215,-0.7093576788902283,-0.1290814876556396,-0.1825074851512909,0.0,0.0,0.074657917022705,-0.3991959691047668
-0.169217973947525,0.5717554688453674,-0.1710435599088668,-0.6923616528511047,-0.1379729509353637,-0.1778294146060943,0.0,0.0,-0.4383350610733032,-0.8300777077674866
-0.1710925996303558,0.555834174156189,-0.1806076020002365,-0.7082646489143372,-0.144806906580925,-0.136679008603096,0.0,0.0,-0.0093865990638732,-0.5884252786636353
-0.1730161607265472,0.5395490527153015,-0.186919704079628,-0.7243226170539856,-0.1502296030521392,-0.1084537953138351,0.0,0.0,0.7840681076049805,0.7016255855560303
-0.1747841835021972,0.5240008234977722,-0.1700742691755294,-0.6917288899421692,-0.156952828168869,-0.1344646662473678,0.0,0.0,0.654053807258606,-0.9098103046417236
-0.1764345169067382,0.5089322924613953,-0.160412460565567,-0.6702089309692383,-0.161575511097908,-0.0924535542726516,0.0,0.0,0.5622738599777222,-0.6162855625152588
-0.1780564337968826,0.493965208530426,-0.1589991897344589,-0.6655535101890564,-0.1647668629884719,-0.0638268738985061,0.0,0.0,0.1544146537780761,0.2782894372940063
-0.1795670539140701,0.4790207147598266,-0.1483277827501297,-0.6645033359527588,-0.167506456375122,-0.0547918751835823,0.0,0.0,0.8753460645675659,-0.4810076951980591
-0.1808037757873535,0.4646154046058655,-0.1218655258417129,-0.6404405832290649,-0.1693157702684402,-0.0361863151192665,0.0,0.0,0.9650729894638062,-0.5547639727592468
-0.181830495595932,0.4504882395267486,-0.102648064494133,-0.627876877784729,-0.1693429797887802,-0.0005441446555778,0.0,0.0,0.9836509227752686,-0.3723545670509338
-0.1827107369899749,0.4373186826705932,-0.0881311446428299,-0.5853056311607361,-0.1692324727773666,0.0022101001814007,0.0,0.0,0.6279056072235107,0.4886592626571655
-0.1834337264299392,0.424868494272232,-0.0727278292179107,-0.5532909631729126,-0.1688064932823181,0.0085197575390338,0.0,0.0,0.9596304893493652,0.4756801128387451
-0.1838769018650055,0.4131731986999511,-0.0456083342432975,-0.5196449160575867,-0.1675177216529846,0.0257757306098938,0.0,0.0,0.9856066703796388,-0.6090428829193115
-0.1841741502285003,0.4016537964344024,-0.0327694937586784,-0.5116366744041443,-0.1644719243049621,0.0609160177409648,0.0,0.0,0.967989444732666,-0.1248891353607177
-0.1844325065612793,0.3906694650650024,-0.0287841856479644,-0.4878677725791931,-0.1615263521671295,0.0589111521840095,0.0,0.0,0.9285926818847656,0.2632619142532348
-0.1844301223754882,0.3807746171951294,-0.0033557428978383,-0.4393838942050934,-0.1579301655292511,0.0719238519668579,0.0,0.0,0.6285651922225952,0.6603649854660034
-0.1843113005161285,0.3713263869285583,0.0094591956585645,-0.4196661412715912,-0.1555130630731582,0.048342041671276,0.0,0.0,0.1583163738250732,0.0243963003158569
-0.184191033244133,0.3623471260070801,0.0098101096227765,-0.3988498151302337,-0.1532973945140838,0.0443133637309074,0.0,0.0,-0.5638059973716736,0.5340943336486816
-0.1840214729309082,0.3529815077781677,0.0157593321055173,-0.416124939918518,-0.1520974487066269,0.0239988677203655,0.0,0.0,0.910683274269104,0.8130654096603394
-0.1837217360734939,0.3445311188697815,0.030325248837471,-0.3756109476089477,-0.1524532288312912,-0.0071155270561575,0.0,0.0,-0.0427302122116088,0.660236120223999
-0.1833758354187011,0.3356971442699432,0.0358783900737762,-0.3927504122257232,-0.153732880949974,-0.0255929119884967,0.0,0.0,-0.4875718355178833,-0.1384840011596679
-0.1830285042524337,0.326485276222229,0.0357891544699668,-0.4095254838466644,-0.154796153306961,-0.0212654713541269,0.0,0.0,-0.0873334407806396,0.3519413471221924
-0.1826800405979156,0.3168954253196716,0.0356961674988269,-0.4263004958629608,-0.1556399464607238,-0.0168759431689977,0.0,0.0,0.396253228187561,0.0414021015167236
-0.1823872625827789,0.3076131939888,0.0304874721914529,-0.4126706421375274,-0.1568495333194732,-0.0241914018988609,0.0,0.0,0.6250877380371094,-0.5831027626991272
-0.1819169968366623,0.2989881336688995,0.0465618930757045,-0.3832866847515106,-0.1563884615898132,0.0092214504256844,0.0,0.0,-0.3008037209510803,0.7748278379440308
-0.1813797056674957,0.2899626791477203,0.0547636821866035,-0.4012391865253448,-0.1574120819568634,-0.0204726252704858,0.0,0.0,0.1126914024353027,-0.6686922907829285
-0.1807030737400055,0.2813121080398559,0.0669836178421974,-0.384401261806488,-0.1567348539829254,0.0135449348017573,0.0,0.0,-0.0796956419944763,-0.242405891418457
-0.1800251901149749,0.2722834944725036,0.0668721497058868,-0.4011760056018829,-0.155825063586235,0.0181953720748424,0.0,0.0,0.7133266925811768,0.0725429058074951
-0.1790624558925628,0.264155626296997,0.0944456309080123,-0.3610492050647735,-0.1539963185787201,0.0365746207535266,0.0,0.0,-0.4549243450164795,0.0216621160507202
-0.1780984848737716,0.2556498050689697,0.0943269655108451,-0.3778241872787475,-0.151930883526802,0.0413086153566837,0.0,0.0,-0.3890389204025268,-0.3854315280914306
-0.1771333664655685,0.2467660307884216,0.0942047908902168,-0.3945992588996887,-0.1496268659830093,0.0460804477334022,0.0,0.0,0.4665666818618774,0.1081792116165161
-0.1760096549987793,0.2385293543338775,0.1095784530043602,-0.3657981157302856,-0.1468334347009658,0.0558685585856437,0.0,0.0,-0.2903550863265991,0.3336935043334961
-0.1748847067356109,0.2299147397279739,0.1094494089484214,-0.3825735449790954,-0.1437980085611343,0.0607089288532733,0.0,0.0,0.1970685720443725,-0.1190912127494812
-0.1737821549177169,0.2216064780950546,0.1073785051703453,-0.3689837753772735,-0.1409289091825485,0.0573819950222969,0.0,0.0,-0.1132035255432128,-0.2967202663421631
-0.1726785600185394,0.2129203379154205,0.1072429046034812,-0.3857593536376953,-0.1378148049116134,0.062281958758831,0.0,0.0,0.3224416971206665,-0.5174881815910339
-0.1715708673000335,0.2045388370752334,0.1064019575715065,-0.3721135854721069,-0.1334631294012069,0.0870336443185806,0.0,0.0,0.6013480424880981,-0.1000633835792541
-0.1703682839870453,0.196543350815773,0.1155194640159607,-0.354939728975296,-0.1287475526332855,0.0943119302392005,0.0,0.0,-0.4812266826629638,-0.4433428645133972
-0.1691646575927734,0.1881702095270156,0.1153743863105773,-0.3717165887355804,-0.1237832382321357,0.0992862805724144,0.0,0.0,0.401106595993042,-0.3373368978500366
-0.1678063422441482,0.1802674084901809,0.1302061080932617,-0.3507794737815857,-0.1181869134306907,0.1119265407323837,0.0,0.0,-0.1295969486236572,-0.1853526830673217
-0.1664469689130783,0.1719871163368225,0.1300551742315292,-0.3675573170185089,-0.1123398393392562,0.1169415935873985,0.0,0.0,-0.1879048347473144,-0.4815433621406555
-0.1650865525007248,0.1633294373750686,0.129901498556137,-0.3843355178833008,-0.1062410920858383,0.1219745874404907,0.0,0.0,0.563077449798584,-0.2208485603332519
