x_pos,y_pos,x_vel,y_vel,angle,ang_vel,leg_1,leg_2,main_booster,lat_booster
-0.0014660835731774,1.403432846069336,-0.1482564359903335,-0.3327629864215851,0.0014756929595023,0.0290880538523197,0.0,0.0,-0.3787057303199643,0.6308875000652625
-0.0028187751304358,1.3957743644714355,-0.13509301841259,-0.3403777480125427,0.0013088752748444,-0.0033360577654093,0.0,0.0,0.174803116732102,-0.5503693329822467
-0.0040488243103027,1.3883508443832395,-0.1239112839102745,-0.3299354910850525,0.0022043765056878,0.0179117023944854,0.0,0.0,0.6885730715776175,-0.6729038049608957
-0.005401611328125,1.3814988136291504,-0.1369807869195938,-0.3045377731323242,0.0038751198444515,0.0334181524813175,0.0,0.0,-0.7570704543210296,-0.7942788493650691
-0.0067385672591626,1.3744574785232544,-0.136403739452362,-0.3129604160785675,0.0065574157051742,0.0536508448421955,0.0,0.0,0.3037676612231406,0.7210449631515448
-0.0078334808349609,1.367868185043335,-0.1107438206672668,-0.2928612530231476,0.0077905328944325,0.0246649086475372,0.0,0.0,0.1759028379440055,0.788264264444653
-0.008819580078125,1.3617043495178225,-0.0980439037084579,-0.2739474475383758,0.0072405617684125,-0.0110005037859082,0.0,0.0,-0.1038375467053198,-0.9437450855225198
-0.0097912792116403,1.3553509712219238,-0.0978456288576126,-0.2823740541934967,0.0079029873013496,0.0132494028657674,0.0,0.0,0.9632903376668418,0.529399847465518
-0.0106727601960301,1.3503038883209229,-0.0875204354524612,-0.2243154346942901,0.0072849402204155,-0.0123618729412555,0.0,0.0,0.98890068053818,-0.9706034664381308
-0.0115649225190281,1.3463815450668335,-0.0903568118810653,-0.1743223667144775,0.0084163770079612,0.0226308871060609,0.0,0.0,0.1060627781493512,-0.5466140695985098
-0.0123649593442678,1.3428654670715332,-0.0822033956646919,-0.1562863290309906,0.0105882966890931,0.0434424467384815,0.0,0.0,0.9852950598683844,-0.9146718999472097
-0.013074493035674,1.3401083946228027,-0.0750154554843902,-0.1225659400224685,0.0146141927689313,0.0805251896381378,0.0,0.0,0.2388515546005964,-0.7333530178723331
-0.0136618614196777,1.33795166015625,-0.0643008947372436,-0.0959197431802749,0.0201043467968702,0.1098132133483886,0.0,0.0,-0.987672843244586,-0.9450778075725071
-0.0142367361113429,1.3355929851531982,-0.0645880028605461,-0.1049395874142646,0.0271303858608007,0.1405334323644638,0.0,0.0,-0.9415028773725956,-0.934646290139829
-0.0147885326296091,1.3330509662628174,-0.0636019930243492,-0.1131514459848404,0.0354640819132328,0.1666892021894455,0.0,0.0,-0.092998586329198,0.5713231044543665
-0.015205955132842,1.3303142786026,-0.0487159825861454,-0.1218097209930419,0.0423596948385238,0.1379248201847076,0.0,0.0,0.985158560873155,0.6704483734768396
-0.0153546333312988,1.3289495706558228,-0.0208833571523427,-0.0608398094773292,0.0483116768300533,0.119050458073616,0.0,0.0,0.5558090762870269,-0.6115845298593365
-0.0153397563844919,1.3279240131378174,-0.0060317632742226,-0.0458409003913402,0.0557486787438392,0.1487536132335662,0.0,0.0,-0.6040380151097788,0.8833167631555287
-0.0151601787656545,1.3267226219177246,0.0125667424872517,-0.0536091886460781,0.0610856339335441,0.106748878955841,0.0,0.0,-0.5200623403027245,-0.6338618873840794
-0.0149520877748727,1.325324535369873,0.0140326991677284,-0.0624261908233165,0.0678065568208694,0.1344305425882339,0.0,0.0,-0.9429832560376727,-0.5846204381480244
-0.0146942138671875,1.3237360715866089,0.0181067064404487,-0.0709603652358055,0.075408436357975,0.1520513892173767,0.0,0.0,-0.9574502332271104,0.9923063455698538
-0.0142693519592285,1.3219600915908811,0.0368661396205425,-0.0792238935828208,0.0809778720140457,0.1113986000418663,0.0,0.0,0.0648428704829311,0.8423892771459457
-0.0136208534240722,1.3205363750457764,0.060912150889635,-0.0634953528642654,0.0848910510540008,0.0782704725861549,0.0,0.0,0.1278972689017643,-0.966697991554937
-0.0129207614809274,1.3192267417907717,0.0641229972243309,-0.0585565119981765,0.0907350108027458,0.1168894991278648,0.0,0.0,-0.5235334106339276,-0.7060394362372537
-0.0121999736875295,1.3177183866500854,0.0644198432564735,-0.0675107315182685,0.098331294953823,0.1519394665956497,0.0,0.0,-0.7052114092300117,-0.8604121042618249
-0.0114721301943063,1.3159905672073364,0.0629600137472152,-0.0774707049131393,0.1080838367342948,0.1950506269931793,0.0,0.0,-0.4218292516969366,-0.9704350043288474
-0.0107295988127589,1.3140665292739868,0.062463454902172,-0.0864108130335807,0.1197967603802681,0.234258621931076,0.0,0.0,0.3243671776656658,0.5068538800117597
-0.0100479125976562,1.3129299879074097,0.0576348789036273,-0.0513946525752544,0.1302813440561294,0.209691435098648,0.0,0.0,0.8143596021905983,-0.7124895147589466
-0.009595108218491,1.3128334283828735,0.0336205847561359,-0.0053547048009932,0.1418933272361755,0.2322392910718917,0.0,0.0,-0.3343524195475673,0.6270323065317467
-0.0090022087097167,1.312554955482483,0.0487994961440563,-0.0134149258956313,0.152368813753128,0.2095096409320831,0.0,0.0,-0.3918225018088275,-0.7107286193073777
-0.0083707813173532,1.3120821714401243,0.0512055158615112,-0.0222757365554571,0.1642997860908508,0.2386195957660675,0.0,0.0,-0.6321406364440918,0.9993772506713868
-0.0075773238204419,1.3114309310913086,0.0690774023532867,-0.0301128719002008,0.1745830625295639,0.2056653797626495,0.0,0.0,-0.4597107768058777,0.9657039642333984
-0.0066260336898267,1.31061589717865,0.0864364877343177,-0.0372784510254859,0.1832912713289261,0.1741645634174347,0.0,0.0,-0.3592181801795959,0.9889718294143676
-0.0055106161162257,1.3096204996109009,0.1045207157731056,-0.0451227463781833,0.1903410404920578,0.1409956514835357,0.0,0.0,-0.2112993001937866,0.9999449253082277
-0.0042211534455418,1.3084595203399658,0.1238742694258689,-0.0522620342671871,0.1954457759857177,0.1020945683121681,0.0,0.0,-0.362297773361206,0.9996914863586426
-0.0027578354347497,1.3071385622024536,0.1431964337825775,-0.0591259375214576,0.1986025422811508,0.0631353184580802,0.0,0.0,-0.2527974843978882,0.9999243021011353
-0.0011244773631915,1.3056440353393557,0.1619762927293777,-0.0666134878993034,0.1999745517969131,0.0274398978799581,0.0,0.0,-0.4338747859001159,0.9996109008789062
0.0006855964893475,1.303990602493286,0.1816351860761642,-0.0733935460448265,0.1993454843759536,-0.0125815421342849,0.0,0.0,-0.4184205532073974,0.9999997615814208
0.002662181854248,1.3021790981292725,0.2000134885311126,-0.080197125673294,0.1969770193099975,-0.0473693832755088,0.0,0.0,-0.3200713396072387,0.979332447052002
0.0048138620331883,1.3002017736434937,0.2194148600101471,-0.0873279049992561,0.19270059466362,-0.0855284035205841,0.0,0.0,-0.1199920177459716,-0.2643153071403503
0.0070613860152661,1.298033356666565,0.2288490235805511,-0.0958427935838699,0.1885823458433151,-0.0823650807142257,0.0,0.0,-0.1649288535118103,0.9971921443939208
0.0094984052702784,1.2956987619400024,0.2500329315662384,-0.1029645875096321,0.1822174936532974,-0.1272971779108047,0.0,0.0,-0.0408850312232971,0.8452928066253662
0.0121087078005075,1.293185830116272,0.2691631019115448,-0.1107120811939239,0.1740581393241882,-0.163187175989151,0.0,0.0,0.3109477758407593,0.9860641956329346
0.0149093624204397,1.2911444902420044,0.2899768948554992,-0.0895939022302627,0.1641354113817215,-0.1984548568725586,0.0,0.0,0.2692900896072387,0.425998330116272
0.0177379604429006,1.2892405986785889,0.2927553355693817,-0.0835588052868843,0.154245838522911,-0.1977916061878204,0.0,0.0,-0.0999174118041992,-0.6342228055000305
0.0206171981990337,1.2871296405792236,0.296467512845993,-0.0929600447416305,0.1457137018442154,-0.1706423014402389,0.0,0.0,0.2332581281661987,-0.673503041267395
0.0235416404902935,1.2853193283081057,0.2993826866149902,-0.0797995179891586,0.1387899518013,-0.1384749561548233,0.0,0.0,0.1020376682281494,0.8458778858184814
0.0264631267637014,1.2841495275497437,0.3006477057933807,-0.0512243285775184,0.130328893661499,-0.1692210733890533,0.0,0.0,0.5231133699417114,-0.4903016090393066
0.0292641632258892,1.283846378326416,0.2889710962772369,-0.0127242393791675,0.1214945539832115,-0.1766866147518158,0.0,0.0,0.3925604820251465,-0.9850980043411256
0.0320104584097862,1.2839704751968384,0.2813511490821838,0.006046287715435,0.1148101836442947,-0.1336870044469833,0.0,0.0,-0.1354892253875732,-0.6941354274749756
0.034809686243534,1.2838964462280271,0.2853895425796509,-0.0028795001562684,0.1093797013163566,-0.1086096614599227,0.0,0.0,0.2110521793365478,-0.6814354658126831
0.0375431068241596,1.2844246625900269,0.277306854724884,0.0237599126994609,0.105442889034748,-0.0787362083792686,0.0,0.0,0.2787057161331177,0.2734378576278686
0.0404181480407714,1.2852883338928225,0.2908709943294525,0.0386235676705837,0.1021015793085098,-0.0668262988328933,0.0,0.0,-0.0759975314140319,0.9691615104675292
0.0434624664485454,1.2859818935394287,0.3095484375953674,0.031162915751338,0.0970207005739212,-0.101617120206356,0.0,0.0,0.1111999750137329,-0.8981078267097473
0.0466144569218158,1.2869774103164673,0.3182777166366577,0.0444413572549819,0.0939608439803123,-0.061196930706501,0.0,0.0,-0.0955702662467956,0.839653730392456
0.0499142631888389,1.2877860069274902,0.3342776000499725,0.0362013839185237,0.0897053405642509,-0.0851101726293563,0.0,0.0,-0.0367523431777954,-0.9231086373329164
0.0532436370849609,1.2884036302566528,0.3354469835758209,0.0276013016700744,0.0872125625610351,-0.0498557612299919,0.0,0.0,0.2625963687896728,0.9990097284317015
0.0568202957510948,1.2896310091018677,0.3619459271430969,0.05479097366333,0.0829747393727302,-0.0847561806440353,0.0,0.0,0.1799734830856323,-0.9393173456192015
0.0604258552193641,1.2915544509887695,0.3627148270606994,0.0856028646230697,0.0808368846774101,-0.0427571088075637,0.0,0.0,0.0534992218017578,-0.9543418288230896
0.06394624710083,1.2940279245376587,0.352049171924591,0.1099307015538215,0.0808320865035057,-9.589738328941166e-05,0.0,0.0,0.0738883018493652,0.9589078426361084
0.0676509886980056,1.296675682067871,0.3721902966499328,0.117770992219448,0.0791315585374832,-0.0340105108916759,0.0,0.0,0.4447357654571533,0.9294846057891846
0.0713676437735557,1.300051212310791,0.375131607055664,0.150201141834259,0.0757029056549072,-0.0685731545090675,0.0,0.0,0.1105637550354003,-0.8901894092559814
0.0751710906624794,1.3037564754486084,0.3817623555660248,0.1647427976131439,0.0742916241288185,-0.0282255224883556,0.0,0.0,0.1879088878631591,-0.3449853658676147
0.0790432915091514,1.307931423187256,0.388344407081604,0.1856105029582977,0.0731836780905723,-0.0221587345004081,0.0,0.0,0.0840387344360351,0.7921340465545654
0.083048440515995,1.3123103380203247,0.4029952585697174,0.1947380900382995,0.0707294270396232,-0.0490848422050476,0.0,0.0,-0.108636736869812,-0.9969106316566468
0.0870407074689865,1.31648850440979,0.399057924747467,0.1856881529092788,0.0708956867456436,0.0033252581488341,0.0,0.0,0.187546968460083,0.2576724290847778
0.0910852402448654,1.321397304534912,0.4039874672889709,0.2181523889303207,0.0713622868061065,0.0093317525461316,0.0,0.0,-0.054949939250946,-0.3475414514541626
0.0952087417244911,1.3261150121688845,0.4116430878639221,0.2096401304006576,0.0720590651035308,0.0139355659484863,0.0,0.0,0.0995842218399047,-0.5774340629577637
0.0993425399065017,1.3314955234527588,0.4112526774406433,0.2390233874320984,0.0741668567061424,0.0421558544039726,0.0,0.0,0.1524953842163086,0.1721473932266235
0.103461742401123,1.3371713161468506,0.4098629951477051,0.2521547377109527,0.0762035399675369,0.040733840316534,0.0,0.0,0.1471856832504272,0.7363390922546387
0.1076040267944336,1.3433605432510376,0.4134863913059234,0.2750381529331207,0.076935276389122,0.014634558930993,0.0,0.0,-0.0743423104286193,0.7813608646392822
0.111882209777832,1.349367380142212,0.4284957945346832,0.2670087218284607,0.076265700161457,-0.013391388580203,0.0,0.0,0.0619891881942749,0.7111626863479614
0.1161491423845291,1.3559987545013428,0.428646981716156,0.2948159575462341,0.0743334367871284,-0.0386453345417976,0.0,0.0,-0.2633520364761352,-0.5421712398529053
0.1204451546072959,1.3624343872070312,0.430353581905365,0.2860693037509918,0.0735861510038375,-0.0149458544328808,0.0,0.0,0.112581729888916,-0.4673401117324829
0.1247632056474685,1.369070291519165,0.432425320148468,0.2949612438678741,0.0729719772934913,-0.0122833754867315,0.0,0.0,-0.1242297291755676,0.9822545051574708
0.1292294561862945,1.3755141496658323,0.449197381734848,0.2865159809589386,0.0704228281974792,-0.050982765853405,0.0,0.0,-0.1902234554290771,-0.643524706363678
0.1337010413408279,1.381754755973816,0.448128879070282,0.2774030268192291,0.0694641321897506,-0.0191734191030263,0.0,0.0,-0.1115660071372985,-0.8735931515693665
0.1381579339504242,1.3878047466278076,0.4446276724338531,0.2688338458538055,0.0705082863569259,0.0208830870687961,0.0,0.0,0.0764508247375488,0.9515116214752196
0.1427662819623947,1.3944826126098633,0.4614680707454681,0.296825498342514,0.0698871463537216,-0.0124229257926344,0.0,0.0,0.2229548692703247,0.9567580223083496
0.1473596543073654,1.4018819332122805,0.4616719782352447,0.3289666473865509,0.0675726607441902,-0.0462892316281795,0.0,0.0,-0.1174495816230773,-0.3225029110908508
0.1519985198974609,1.4090901613235474,0.4659799039363861,0.320453941822052,0.065502680838108,-0.041399598121643,0.0,0.0,0.0105116367340087,-0.915183961391449
0.1566044837236404,1.4168344736099243,0.4606101512908935,0.3442005813121795,0.0654902309179306,-0.0002491596387699,0.0,0.0,0.3900480270385742,-0.6147716641426086
0.1610751152038574,1.425098538398743,0.4457793831825256,0.3672322034835815,0.0667597204446792,0.0253896079957485,0.0,0.0,-0.0435100793838501,0.394424557685852
0.1655797958374023,1.4331713914871216,0.4489440321922302,0.3587198257446289,0.0682767182588577,0.0303398128598928,0.0,0.0,-0.0723218917846679,0.075433611869812
0.1701146066188812,1.4410529136657717,0.4516980648040771,0.3502073585987091,0.0700421780347824,0.035309188067913,0.0,0.0,0.2642993927001953,-0.3478273153305053
0.1747107505798339,1.4494165182113647,0.4572582244873047,0.3716005086898803,0.0723656713962555,0.0464699044823646,0.0,0.0,0.2273560762405395,0.7311882972717285
0.1793877631425857,1.4579706192016602,0.4665490686893463,0.3801215589046478,0.0735094174742698,0.0228750202804803,0.0,0.0,0.283482551574707,0.8065395355224609
0.184204488992691,1.4668114185333252,0.481795459985733,0.392933040857315,0.0733856186270713,-0.0024760444648563,0.0,0.0,0.3176602125167846,0.3204669952392578
0.1891172379255294,1.4761552810668943,0.4906001687049866,0.4152482450008392,0.0740564167499542,0.0134158581495285,0.0,0.0,0.2258079051971435,0.2765417098999023
0.1941192597150802,1.4857569932937622,0.4987902045249939,0.4266766309738159,0.0754581093788147,0.0280338674783706,0.0,0.0,0.0185493230819702,0.8374984264373779
0.1991512328386306,1.4958734512329102,0.5032034516334534,0.4496210515499115,0.075442723929882,-0.0003078204463236,0.0,0.0,-0.0061238408088684,0.9753509759902954
0.2042618691921234,1.5058151483535769,0.5128953456878662,0.441948264837265,0.0736364275217056,-0.0361259169876575,0.0,0.0,-0.1417323946952819,-0.2310312986373901
0.2093661278486251,1.5155658721923828,0.5119912028312683,0.4334355592727661,0.0720838606357574,-0.0310513041913509,0.0,0.0,0.126556396484375,0.9189200401306152
0.2145968377590179,1.5254651308059692,0.5262147188186646,0.440121591091156,0.0689695253968238,-0.0622865967452526,0.0,0.0,-0.3016428351402282,0.7848989963531494
0.2198680937290191,1.5351771116256714,0.5314610600471497,0.4318357706069946,0.0646831765770912,-0.0857267826795578,0.0,0.0,-0.0394748449325561,-0.4993971586227417
0.2251186370849609,1.5446979999542236,0.5291259288787842,0.4233220219612121,0.0606505237519741,-0.0806529521942138,0.0,0.0,-0.2719908952713012,-0.9550462365150452
0.2302652299404144,1.5540204048156738,0.5164914727210999,0.4143956303596496,0.0588457845151424,-0.0360946841537952,0.0,0.0,-0.236135721206665,0.1194268465042114
0.2353818863630294,1.5631513595581057,0.5132268071174622,0.405883252620697,0.0572937540709972,-0.0310406051576137,0.0,0.0,-0.0746573209762573,-0.9836779236793518
0.2403971701860427,1.5720901489257812,0.5011498928070068,0.3972720801830292,0.0576673224568367,0.0074712978675961,0.0,0.0,-0.0810481309890747,-0.3668795824050903
0.2453733384609222,1.580837965011597,0.4969928860664367,0.3887600004673004,0.058291733264923,0.0124882850795984,0.0,0.0,-0.1080265641212463,-0.9993733167648317
0.2502160966396332,1.5893936157226562,0.4811128973960876,0.3801278173923492,0.061426430940628,0.0626939758658409,0.0,0.0,-0.0263741612434387,0.9991958141326904
0.255087286233902,1.597761869430542,0.485621303319931,0.3718565106391907,0.0629030689597129,0.0295326169580221,0.0,0.0,-0.1181375384330749,-0.0320020318031311
0.2599068582057953,1.6059386730194092,0.4802223742008209,0.3633441627025604,0.064625896513462,0.0344565585255622,0.0,0.0,-0.1024999618530273,-0.0150622725486755
0.2646712362766266,1.6139243841171265,0.4744396805763244,0.3548317551612854,0.0665928572416305,0.0393392331898212,0.0,0.0,-0.2337096333503723,-0.9528584480285645
0.2693141102790832,1.621718406677246,0.4604852795600891,0.3462232053279876,0.0703635513782501,0.0754135474562645,0.0,0.0,-0.230184257030487,0.9980678558349608
0.2739817500114441,1.629321575164795,0.4649193882942199,0.3378349840641022,0.0721858963370323,0.0364467576146125,0.0,0.0,-0.3418977856636047,-0.999997854232788
0.2785231471061706,1.6367348432540894,0.4505313336849212,0.3293044865131378,0.0757541209459304,0.0713646560907363,0.0,0.0,-0.5778780579566956,-0.4836339354515075
0.2829953134059906,1.643957257270813,0.4433828890323639,0.320791095495224,0.0795556232333183,0.0760300531983375,0.0,0.0,-0.3968541622161865,-0.2782418727874756
0.2873953878879547,1.6509884595870972,0.4359363913536072,0.3122774958610534,0.083587035536766,0.0806282013654708,0.0,0.0,-0.5017586946487427,-0.1037273406982421
0.2917204797267914,1.6578285694122314,0.428208976984024,0.3037637174129486,0.0878447592258453,0.0851543322205543,0.0,0.0,-0.8537208437919617,-0.9999999403953552
0.2958874702453613,1.6644774675369265,0.4101496338844299,0.2951053380966186,0.0943381339311599,0.1298671960830688,0.0,0.0,-0.8153531551361084,-0.9988953471183776
0.2999029159545898,1.6709346771240234,0.3929763436317444,0.2864181399345398,0.1028372198343277,0.1699819862842559,0.0,0.0,-0.8925291299819946,-0.9993298649787904
0.30376797914505,1.6771864891052246,0.3759902715682983,0.2770908176898956,0.1132783219218254,0.2088216841220855,0.0,0.0,-0.8871734738349915,0.189218521118164
0.3075481355190277,1.6832482814788818,0.3673048019409179,0.2685689330101013,0.1239289343357086,0.2130125313997268,0.0,0.0,-0.8827192783355713,-0.987880289554596
0.3111476004123688,1.689100742340088,0.3466295599937439,0.2589512169361114,0.1371783167123794,0.2649875283241272,0.0,0.0,-0.9744612574577332,-0.9994953870773317
0.3145770132541656,1.6947475671768188,0.3273780345916748,0.2494608461856842,0.1526966094970703,0.3103657364845276,0.0,0.0,-0.966966152191162,-0.804000735282898
0.3178554475307464,1.7001914978027344,0.3105963170528412,0.2400876134634018,0.1699496209621429,0.3450598120689392,0.0,0.0,-0.9476274251937866,0.9893674850463868
0.3211361765861511,1.70546293258667,0.313076913356781,0.2325019389390945,0.184985265135765,0.3007128536701202,0.0,0.0,-0.98972088098526,0.7386234998703003
0.3243889808654785,1.710567831993103,0.3118591606616974,0.225158542394638,0.1984810829162597,0.2699167430400848,0.0,0.0,-0.9738019108772278,0.4153077602386474
0.3275462090969085,1.7154842615127563,0.3021644949913025,0.216629758477211,0.212155744433403,0.2734933495521545,0.0,0.0,-0.9673753380775452,0.6209933757781982
0.330660730600357,1.720222234725952,0.2991061806678772,0.2087576687335968,0.2246274054050445,0.2494331300258636,0.0,0.0,-0.9770334362983704,-0.6971413493156433
0.3336319029331207,1.724757194519043,0.283498078584671,0.1994207203388214,0.2384415119886398,0.2762818932533264,0.0,0.0,-0.9682262539863586,0.1126022338867187
