x_pos,y_pos,x_vel,y_vel,angle,ang_vel,leg_1,leg_2,main_booster,lat_booster
-0.0015356063377112,1.4033746719360352,-0.1553974896669387,-0.3353541791439056,0.0016483592335134,0.0325068794190883,0.0,0.0,0.4393744967267652,-0.91720779341983
-0.0031049728859215,1.3962008953094482,-0.1603138893842697,-0.3188413083553314,0.0049864728935062,0.0667694061994552,0.0,0.0,0.8219673595500061,-0.6018209937223749
-0.0045789717696607,1.389441728591919,-0.1522672176361084,-0.3004353642463684,0.009801429696381,0.0963082164525985,0.0,0.0,-0.7360580571415458,-0.9479869306795088
-0.0061553954146802,1.3824286460876465,-0.1646101772785186,-0.3117575049400329,0.0166922304779291,0.1378285437822342,0.0,0.0,-0.7421452171165641,-0.7240677051349567
-0.0077901841141283,1.3751676082611084,-0.1714079976081848,-0.3228232264518738,0.0245269704610109,0.1567096263170242,0.0,0.0,-0.6893645003615207,0.6340148046917975
-0.009377765469253,1.367658615112305,-0.164928138256073,-0.3338455557823181,0.0306263584643602,0.1219990700483322,0.0,0.0,0.8846896054237665,0.8340899331092972
-0.0109623912721872,1.3608894348144531,-0.1626835167407989,-0.3009423017501831,0.0348057635128498,0.0835958272218704,0.0,0.0,0.2348963969015853,0.8615030687093146
-0.0123821254819631,1.3546080589294434,-0.144360601902008,-0.2792312204837799,0.0371676348149776,0.0472418740391731,0.0,0.0,0.629032626601925,0.777538539221211
-0.0137992855161428,1.3493247032165527,-0.1422888040542602,-0.2348327785730362,0.0377278514206409,0.0112055828794837,0.0,0.0,0.7712971732649925,0.9602238712349246
-0.0151863098144531,1.3449687957763672,-0.1370916068553924,-0.1935588419437408,0.0361358001828193,-0.0318440049886703,0.0,0.0,0.6959904462108941,-0.7930875841281704
-0.016575526446104,1.3412799835205078,-0.1388385593891143,-0.1639433801174163,0.0360505990684032,-0.0017040667589753,0.0,0.0,-0.1153944209729525,-0.9989758473970294
-0.0180496219545602,1.3373353481292725,-0.1488124430179596,-0.1753502041101455,0.0374384149909019,0.0277591086924076,0.0,0.0,0.1823993554307044,0.8394171379362487
-0.0193845741450786,1.3339053392410278,-0.133011594414711,-0.152435302734375,0.0369535647332668,-0.0096977557986974,0.0,0.0,0.9794864025551946,0.9329631813723704
-0.0205863956362009,1.3308634757995603,-0.1176883205771446,-0.1351343542337417,0.0344972275197505,-0.0491317100822925,0.0,0.0,0.1565946850824728,0.9221148208793124
-0.0216358192265033,1.328456163406372,-0.1003292351961135,-0.1068884953856468,0.0299331210553646,-0.0912905782461166,0.0,0.0,-0.6151827222984789,0.7227734202496423
-0.0226338393986225,1.325793981552124,-0.0931465253233909,-0.1182056441903114,0.0233476292341947,-0.13172148168087,0.0,0.0,-0.4564559488767776,-0.8243540577401955
-0.02369861677289,1.322890043258667,-0.1007452830672264,-0.1289797723293304,0.0176833793520927,-0.1132951974868774,0.0,0.0,0.788509719137942,-0.8305963414398538
-0.0246828086674213,1.3203407526016235,-0.0943455547094345,-0.1132634505629539,0.013647086918354,-0.0807335153222084,0.0,0.0,0.8341757080315757,-0.9004245817258854
-0.025648022070527,1.31888747215271,-0.0940857231616973,-0.064562551677227,0.0112468739971518,-0.0480085052549839,0.0,0.0,-0.0308025368409137,-0.6225655244558568
-0.0266860015690326,1.317183256149292,-0.1023987531661987,-0.0757406800985336,0.0098681692034006,-0.0275765415281057,0.0,0.0,-0.2059065381120006,0.943492826132077
-0.0276507381349802,1.3152374029159546,-0.0923930555582046,-0.0864583477377891,0.0058255600742995,-0.0808596536517143,0.0,0.0,0.4901167991238071,-0.7256951502752076
-0.0286808013916015,1.3136359453201294,-0.0999926924705505,-0.0711646303534507,0.0028427501674741,-0.059661366045475,0.0,0.0,0.4959725845119176,-0.9923837604817994
-0.0296738632023334,1.3125230073928833,-0.0979804843664169,-0.0494611747562885,0.0015359596582129,-0.0261381175369024,0.0,0.0,-0.7153575259778981,0.8549453413858139
-0.0306090358644723,1.3111509084701538,-0.0898463726043701,-0.0609815865755081,-0.0020968907047063,-0.0726636499166488,0.0,0.0,0.6627803756167716,-0.8528104728190165
-0.0317870154976844,1.3105038404464722,-0.115125223994255,-0.0287628546357154,-0.0047355131246149,-0.0527768321335315,0.0,0.0,0.394985168468476,-0.7850571404629096
-0.0331804268062114,1.3104828596115112,-0.1375944167375564,-0.0009398979018442,-0.0064564277417957,-0.0344183966517448,0.0,0.0,0.0567232822551804,0.791182114538303
-0.0345234870910644,1.3109134435653689,-0.130497321486473,0.0191179830580949,-0.010212006047368,-0.0751117616891861,0.0,0.0,0.5048013728134806,0.6658836463454026
-0.035954762250185,1.3122302293777466,-0.1372371762990951,0.0584740899503231,-0.0160283390432596,-0.1163266152143478,0.0,0.0,-0.2994395755770784,0.7674870035481184
-0.0373567566275596,1.3133032321929932,-0.1326106190681457,0.0475866571068763,-0.0235238131135702,-0.1499094516038894,0.0,0.0,-0.4051327203495529,-0.7713919374581468
-0.0388404838740825,1.3141264915466309,-0.14189013838768,0.0364742130041122,-0.0299259144812822,-0.1280418634414672,0.0,0.0,-0.2578720087849928,0.9538727364394862
-0.0402647033333778,1.3147084712982178,-0.133458986878395,0.0256507731974124,-0.0387868843972682,-0.1772195547819137,0.0,0.0,0.8597783469679037,0.8424536206248953
-0.0417181961238384,1.3157782554626465,-0.1339719742536544,0.0472126267850399,-0.0500262752175331,-0.2247879058122635,0.0,0.0,-0.8874627019395982,-0.7848356387083848
-0.043260671198368,1.3166128396987915,-0.1441523879766464,0.0367205552756786,-0.060010764747858,-0.1996896713972091,0.0,0.0,-0.7199181678537852,0.6394994705232638
-0.0447771064937114,1.3171896934509275,-0.1398630440235138,0.0251228846609592,-0.0716655924916267,-0.233096644282341,0.0,0.0,-0.489686453759717,-0.9964275296747552
-0.0463889129459857,1.3175292015075684,-0.1508115828037262,0.0145579641684889,-0.0819287002086639,-0.2052621096372604,0.0,0.0,-0.3337021352097649,-0.9109354002007168
-0.0480890274047851,1.3176361322402954,-0.1608738750219345,0.0042244889773428,-0.0909773409366607,-0.1809728592634201,0.0,0.0,0.8822410907330167,0.9624922991445544
-0.0497185699641704,1.3182594776153564,-0.1512803733348846,0.0269504655152559,-0.1025554984807968,-0.2315633594989776,0.0,0.0,0.9245971557882048,-0.9763136397825326
-0.0513037666678428,1.3199702501296997,-0.1483359634876251,0.0753009319305419,-0.1126643642783165,-0.2021772861480713,0.0,0.0,0.1460127283950423,0.7152354887220287
-0.0528162941336631,1.3223084211349487,-0.1390499472618103,0.1029513552784919,-0.1247994378209114,-0.2427012175321579,0.0,0.0,-0.5510588947655839,-0.9307150114308786
-0.0544175133109092,1.3244138956069946,-0.149138331413269,0.0926143750548362,-0.1357387453317642,-0.218786284327507,0.0,0.0,-0.4558306220218733,-0.71947092943172
-0.0561038963496685,1.326291561126709,-0.1587757468223571,0.0825217962265014,-0.1455648243427276,-0.1965216100215912,0.0,0.0,-0.7611715197563171,-0.7976682186126709
-0.0578592307865619,1.327930927276611,-0.1663814038038253,0.0719343498349189,-0.1547119319438934,-0.1829417794942855,0.0,0.0,-0.7160412073135376,-0.7000775337219238
-0.0596808418631553,1.329325795173645,-0.1735779941082,0.0610768347978591,-0.1632822155952453,-0.1714057028293609,0.0,0.0,-0.8927901983261108,-0.717272937297821
-0.0615686401724815,1.330483078956604,-0.1808192282915115,0.0505409426987171,-0.171252965927124,-0.159414917230606,0.0,0.0,-0.9084712862968444,-0.7602815628051758
-0.0635402649641037,1.3314001560211182,-0.1902181506156921,0.0399459488689899,-0.1782069504261016,-0.1390796154737472,0.0,0.0,-0.8182165026664734,-0.6494570970535278
-0.0655788406729698,1.3320757150650024,-0.1975132226943969,0.0292453654110431,-0.1845709234476089,-0.1272796243429184,0.0,0.0,-0.8941016793251038,-0.8714660406112671
-0.0676982849836349,1.3325157165527344,-0.2065697908401489,0.0188739206641912,-0.1899797618389129,-0.1081766113638877,0.0,0.0,-0.7037664651870728,-0.2972452640533447
-0.0698373764753341,1.3327080011367798,-0.2079209089279174,0.0077598574571311,-0.1960055381059646,-0.1205157488584518,0.0,0.0,-0.7622537016868591,-0.639677882194519
-0.0720558166503906,1.332675814628601,-0.2168023288249969,-0.002102387137711,-0.2010802626609802,-0.101494513452053,0.0,0.0,-0.9226744771003724,-0.7444114685058594
-0.0743537917733192,1.3324120044708252,-0.2256780117750167,-0.0122913904488086,-0.2052320837974548,-0.0830364376306533,0.0,0.0,-0.8249634504318237,-0.6304735541343689
-0.076708510518074,1.331911563873291,-0.2316967993974685,-0.0227647367864847,-0.2090455591678619,-0.0762696489691734,0.0,0.0,-0.9684441089630128,-0.6352421045303345
-0.0791360884904861,1.3311847448349,-0.239744946360588,-0.0327381491661071,-0.2120860666036605,-0.0608101673424243,0.0,0.0,-0.9344487190246582,-0.7561257481575012
-0.0816316604614257,1.3302212953567505,-0.2471548616886139,-0.0431724339723587,-0.2145169973373413,-0.0486186668276786,0.0,0.0,-0.9366235733032228,-0.8737064599990845
-0.0842127799987793,1.329039454460144,-0.2568148970603943,-0.0527109764516353,-0.2158275246620178,-0.0262101255357265,0.0,0.0,-0.9545282125473022,-0.8736986517906189
-0.0868647545576095,1.3276232481002808,-0.2645778954029083,-0.0630350410938263,-0.2164535224437713,-0.0125203728675842,0.0,0.0,-0.7839453816413879,-0.3746389746665954
-0.0895363837480545,1.3259588479995728,-0.2659123241901397,-0.0741484463214874,-0.2177174240350723,-0.02527841553092,0.0,0.0,-0.8930857181549072,-0.8503322601318359
-0.0922817215323448,1.3240727186203003,-0.2740906476974487,-0.0838962495326995,-0.2181701064109802,-0.0090531772002577,0.0,0.0,-0.8189157843589783,-0.4771482944488525
-0.0950468033552169,1.3219385147094729,-0.2754187285900116,-0.0950097665190696,-0.2192629128694534,-0.0218562949448823,0.0,0.0,-0.9303022027015686,-0.3563516139984131
-0.0978313460946083,1.319556474685669,-0.2767432332038879,-0.1061234325170517,-0.2209965735673904,-0.0346731543540954,0.0,0.0,-0.7321504950523376,-0.6880105137825012
-0.1006942763924598,1.3169524669647217,-0.2854872047901153,-0.1158519685268402,-0.2218060940504074,-0.0161908380687236,0.0,0.0,-0.7716383934020996,-0.2950855493545532
-0.1035767570137977,1.3141006231307983,-0.2868034243583679,-0.1269657462835312,-0.2232569456100464,-0.0290170945227146,0.0,0.0,-0.861626148223877,0.0198591947555542
-0.1064784973859787,1.311000943183899,-0.2881149649620056,-0.1380797028541565,-0.2253488898277282,-0.0418390370905399,0.0,0.0,-0.9582246541976928,-0.2859930992126465
-0.1093996986746788,1.3076534271240234,-0.2894214391708374,-0.1491939574480056,-0.2280814051628112,-0.0546504370868206,0.0,0.0,-0.6638277173042297,-0.6885550022125244
-0.112390898168087,1.3040766716003418,-0.2971083521842956,-0.1592737138271331,-0.230119451880455,-0.0407610200345516,0.0,0.0,-0.96942538022995,-0.2836900353431701
-0.1154013648629188,1.3002521991729736,-0.2984031736850738,-0.1703881621360778,-0.2327960729598999,-0.0535323247313499,0.0,0.0,-0.9143391847610474,0.0867341756820678
-0.1184308975934982,1.2961801290512085,-0.2996912896633148,-0.18150295317173,-0.2361097633838653,-0.066273845732212,0.0,0.0,-0.8527811169624329,-0.0542671680450439
-0.1214795112609863,1.2918604612350464,-0.3009722530841827,-0.1926181763410568,-0.2400587052106857,-0.0789787620306015,0.0,0.0,-0.9127094745635986,-0.0529192090034484
-0.124547004699707,1.2872930765151978,-0.3022453784942627,-0.2037339657545089,-0.2446406930685043,-0.0916401818394661,0.0,0.0,-0.8416329622268677,-0.3594751358032226
-0.1276332885026931,1.2824783325195312,-0.303509920835495,-0.2148503512144088,-0.249853253364563,-0.1042509451508522,0.0,0.0,-0.5776364207267761,-0.3515882492065429
-0.1307382583618164,1.277416110038757,-0.3047651052474975,-0.2259674370288849,-0.2556934356689453,-0.1168036311864852,0.0,0.0,-0.9209354519844056,-0.0733745098114013
-0.133861631155014,1.2721068859100342,-0.3060100674629211,-0.2370853424072265,-0.2621580064296722,-0.1292906105518341,0.0,0.0,-0.8052142858505249,-0.8194449543952942
-0.1370622664690017,1.2665756940841677,-0.314677745103836,-0.2468033879995346,-0.2676681280136108,-0.1102024540305137,0.0,0.0,-0.4708089232444763,-0.2155804634094238
-0.14028100669384,1.2607975006103516,-0.3158986866474151,-0.2579213678836822,-0.2737948298454284,-0.1225338727235794,0.0,0.0,-0.8845893740653992,-0.3670275211334228
-0.1435176879167556,1.2547719478607178,-0.317106157541275,-0.2690401673316955,-0.2805335521697998,-0.1347745358943939,0.0,0.0,-0.3290408849716186,-0.8807694315910339
-0.1468439102172851,1.248523473739624,-0.3273037075996399,-0.2787483334541321,-0.2859989702701568,-0.109308622777462,0.0,0.0,-0.648182213306427,-0.4997365474700928
-0.1501875817775726,1.242027759552002,-0.3284794986248016,-0.2898668646812439,-0.2920660078525543,-0.1213405281305313,0.0,0.0,-0.3785029649734497,-0.2866778373718261
-0.1535486280918121,1.2352850437164309,-0.3296375870704651,-0.300986111164093,-0.2987286746501922,-0.1332532316446304,0.0,0.0,-0.4086735844612121,-0.3128060698509216
-0.1569264382123947,1.2282955646514893,-0.3307763934135437,-0.3121060729026794,-0.3059805035591125,-0.145036369562149,0.0,0.0,-0.8602583408355713,0.0641936063766479
-0.1603210419416427,1.2210593223571775,-0.3318941295146942,-0.3232268691062927,-0.3138144612312317,-0.1566790342330932,0.0,0.0,-0.6163414716720581,-0.2445364594459533
-0.1637318581342697,1.2135764360427856,-0.3329889178276062,-0.3343485295772552,-0.3222229182720184,-0.1681698411703109,0.0,0.0,-0.2154338955879211,-0.6057853102684021
-0.167214959859848,1.205868363380432,-0.3411258459091186,-0.3441910743713379,-0.3297022879123688,-0.1495877504348755,0.0,0.0,-0.393623948097229,-0.2211103439331054
-0.1707135140895843,1.1979138851165771,-0.3421674370765686,-0.3553125262260437,-0.3377392292022705,-0.1607385575771331,0.0,0.0,-0.4135345816612243,-0.2950708866119385
-0.1742273271083831,1.1897128820419312,-0.3431793451309204,-0.366434782743454,-0.3463242053985595,-0.1716996878385543,0.0,0.0,-0.16740083694458,-0.6639662384986877
-0.1778086721897125,1.181296944618225,-0.3508673012256622,-0.3758121132850647,-0.3539594709873199,-0.1527051627635955,0.0,0.0,-0.2324854731559753,-0.439604640007019
-0.1814042031764984,1.172634482383728,-0.3518113493919372,-0.3869339227676391,-0.3621217310428619,-0.1632450520992279,0.0,0.0,-0.3401213884353637,0.0102865695953369
-0.1850135773420334,1.1637253761291504,-0.3527177572250366,-0.3980563580989837,-0.3707993328571319,-0.1735517680644989,0.0,0.0,-0.8710477352142334,-0.1665712594985962
-0.1886360198259353,1.1545701026916504,-0.3535837233066559,-0.4091793596744537,-0.3799797594547272,-0.1836093962192535,0.0,0.0,-0.1338104605674743,-0.5794575214385986
-0.1923079490661621,1.1451858282089231,-0.359034925699234,-0.4192739129066467,-0.3886449038982391,-0.1733027845621109,0.0,0.0,-0.6214938163757324,-0.1825151443481445
-0.1959916055202484,1.1355550289154053,-0.3598102033138275,-0.4303967654705047,-0.3977855145931244,-0.1828122437000274,0.0,0.0,-0.8218077421188354,-0.6767934560775757
-0.199725717306137,1.1256967782974243,-0.3654353320598602,-0.4403980672359466,-0.4063179194927215,-0.1706488281488418,0.0,0.0,-0.013124406337738,-0.1678572297096252
-0.203470230102539,1.1155920028686523,-0.3661075234413147,-0.4515202343463897,-0.4152948260307312,-0.1795385181903839,0.0,0.0,-0.2455313205718994,-0.242066740989685
-0.2072244584560394,1.1052409410476685,-0.3667240440845489,-0.4626427888870239,-0.4246992766857147,-0.1880898177623748,0.0,0.0,0.015427827835083,-0.0079281330108642
-0.2107489556074142,1.095156192779541,-0.3437395393848419,-0.4508655965328216,-0.434159368276596,-0.1892018616199493,0.0,0.0,-0.3527454137802124,-0.6201010942459106
-0.2143202722072601,1.084844708442688,-0.3490734994411468,-0.4608122706413269,-0.4429446160793304,-0.1757048219442367,0.0,0.0,0.0443851947784423,-0.3628468513488769
-0.2177909910678863,1.0747439861297607,-0.3385668694972992,-0.4516393840312958,-0.4522543549537658,-0.1861942410469055,0.0,0.0,0.1083253622055053,-0.4114375114440918
-0.2209641486406326,1.0651403665542605,-0.308769166469574,-0.4296309351921081,-0.4616512656211853,-0.1879384368658065,0.0,0.0,0.3388211727142334,-0.4154272079467773
-0.2239542454481125,1.0559219121932983,-0.2901327908039093,-0.4126891493797302,-0.4714634120464325,-0.1962426900863647,0.0,0.0,0.1376872062683105,-0.2965694665908813
-0.2267764061689376,1.0472469329833984,-0.2727526724338531,-0.3888015151023865,-0.4819766283035278,-0.2102644443511963,0.0,0.0,0.7212010622024536,-0.5014281272888184
-0.2292136698961258,1.0392541885375977,-0.2352482974529266,-0.3582298457622528,-0.4914457499980926,-0.1893825381994247,0.0,0.0,0.8679537773132324,-0.2957385778427124
-0.2313065975904464,1.0321786403656006,-0.2003820687532425,-0.3176752626895904,-0.50145024061203,-0.2000903636217117,0.0,0.0,0.8244572877883911,-0.9266336560249328
-0.2331538200378418,1.0260745286941528,-0.1772523820400238,-0.2740462124347687,-0.509872555732727,-0.1684461534023285,0.0,0.0,0.8197963237762451,-0.8934668898582458
-0.2348223626613617,1.0205113887786863,-0.1608631461858749,-0.249501496553421,-0.5166616439819336,-0.135781243443489,0.0,0.0,0.8170406818389893,-0.8020927309989929
-0.2363403290510177,1.0157139301300049,-0.1469314098358154,-0.2150804549455642,-0.5221900939941406,-0.1105690151453018,0.0,0.0,0.9302172660827636,-0.6627025008201599
-0.2377608716487884,1.0116419792175293,-0.1379056274890899,-0.18258036673069,-0.526923656463623,-0.094671256840229,0.0,0.0,0.7736868858337402,-0.9001250267028809
-0.2387413531541824,1.008283615112305,-0.0956495478749275,-0.1501891911029815,-0.5296643972396851,-0.0548149272799491,0.0,0.0,0.7351114749908447,-0.8466921448707581
-0.2395213097333908,1.0051676034927368,-0.0771865397691726,-0.1388068199157714,-0.5305893421173096,-0.0184991806745529,0.0,0.0,0.1874175071716308,-0.744109034538269
-0.2399659603834152,1.002470850944519,-0.0450917556881904,-0.119617573916912,-0.5298773050308228,0.0142405163496732,0.0,0.0,0.3744583129882812,-0.9569173455238342
-0.2401600778102874,1.0004397630691528,-0.0217904727905988,-0.0893376618623733,-0.5271542072296143,0.0544615797698497,0.0,0.0,-0.4041351079940796,-0.9193810820579528
-0.2403920143842697,0.9982094764709472,-0.0269101504236459,-0.0976890102028846,-0.5229159593582153,0.0847651958465576,0.0,0.0,0.1541777849197387,-0.9059598445892334
-0.2404223978519439,0.9962621331214904,-0.0084872283041477,-0.0844722911715507,-0.5167116522789001,0.1240864396095275,0.0,0.0,-0.083652377128601,-0.838991641998291
-0.2404998242855072,0.994121253490448,-0.014884628355503,-0.0924677401781082,-0.5086221098899841,0.1617911159992218,0.0,0.0,-0.1095163822174072,-0.8459782600402832
-0.240618035197258,0.9917806386947632,-0.0205311514437198,-0.1008243635296821,-0.4988060295581817,0.1963216960430145,0.0,0.0,-0.0961286425590515,-0.7895912528038025
-0.2407750189304351,0.989225447177887,-0.0258593503385782,-0.1099125891923904,-0.4874137043952942,0.2278464585542678,0.0,0.0,0.4287662506103515,-0.5032104849815369
-0.2408061921596527,0.9872381687164308,-0.0142006371170282,-0.0844601616263389,-0.4750635325908661,0.2470034062862396,0.0,0.0,0.0628095865249633,-0.4450981616973877
-0.2407481670379638,0.9854999780654908,-0.0051948712207376,-0.073534294962883,-0.4628913104534149,0.2434443682432174,0.0,0.0,0.2058337926864624,-0.3780154585838318
-0.2405087053775787,0.9840750098228456,0.0127371922135353,-0.0596498996019363,-0.4505563080310821,0.2467001229524612,0.0,0.0,-0.3032541871070862,-0.1011760830879211
-0.2402566373348236,0.9824004769325256,0.0136739984154701,-0.0707535371184349,-0.4379548728466034,0.2520285248756408,0.0,0.0,-0.388228178024292,-0.4736754298210144
-0.2399915158748626,0.9804765582084656,0.0146456137299537,-0.0818569213151931,-0.4250568151473999,0.2579613327980041,0.0,0.0,-0.0106004476547241,-0.1619356870651245
-0.2397126704454422,0.9783033728599548,0.0156492460519075,-0.0929602310061454,-0.4118326604366302,0.2644831836223602,0.0,0.0,-0.1850801110267639,-0.4193466901779175
-0.2394194602966308,0.9758803248405457,0.0166822411119937,-0.1040636301040649,-0.398253858089447,0.2715766429901123,0.0,0.0,-0.2520105242729187,-0.5055514574050903
