x_pos,y_pos,x_vel,y_vel,angle,ang_vel,leg_1,leg_2,main_booster,lat_booster
-0.0015429496997967,1.403221845626831,-0.1564790457487106,-0.3421467244625091,0.0019556754268705,0.038591556251049,0.0,0.0,-0.572456419467926,0.945027470588684
-0.0030250549316406,1.3951398134231567,-0.1482590138912201,-0.359206885099411,0.0020071694161742,0.0010307638440281,0.0,0.0,-0.4408329129219055,0.863808274269104
-0.0044439313933253,1.386648416519165,-0.1400062590837478,-0.3773917555809021,0.00015069876099,-0.0371330268681049,0.0,0.0,0.1463199853897094,0.3042092323303222
-0.0059653283096849,1.3782743215560913,-0.1500401794910431,-0.3721813559532165,-0.0019202311523258,-0.041422814130783,0.0,0.0,-0.0308986902236938,0.6752240657806396
-0.00744209298864,1.369499444961548,-0.1441322416067123,-0.3899987936019897,-0.0054276878945529,-0.0701556727290153,0.0,0.0,-0.1224939823150634,0.1020901203155517
-0.0089387893676757,1.3603222370147705,-0.1463191956281662,-0.4078938066959381,-0.0087463147938251,-0.0663786903023719,0.0,0.0,-0.1119231581687927,0.7580976486206055
-0.0103981969878077,1.3507417440414429,-0.1413137167692184,-0.4258331060409546,-0.0133187267929315,-0.0914566963911056,0.0,0.0,0.3092167377471924,0.6853728294372559
-0.0116850854828953,1.3415262699127195,-0.1231174916028976,-0.4096414744853973,-0.0188252553343772,-0.1101408377289772,0.0,0.0,-0.3417119979858398,0.6370755434036255
-0.0129427909851074,1.331913709640503,-0.1191491931676864,-0.4273160398006439,-0.0253712143748998,-0.1309313327074051,0.0,0.0,0.3042736053466797,-0.2356229424476623
-0.0142066003754735,1.322759032249451,-0.1199600920081138,-0.4069939255714416,-0.031720582395792,-0.1269990503787994,0.0,0.0,0.0524865388870239,-0.1094173789024353
-0.0154234888032078,1.3137673139572144,-0.11574088037014,-0.3997762501239776,-0.0376084484159946,-0.1177682131528854,0.0,0.0,-0.2519998550415039,0.2121691703796386
-0.0166605003178119,1.304373025894165,-0.1179491281509399,-0.4176761507987976,-0.0432933121919631,-0.1137075424194336,0.0,0.0,-0.097615897655487,-0.1938763856887817
-0.0179173462092876,1.2945764064788818,-0.1201527714729309,-0.435573399066925,-0.0487730838358402,-0.1096054688096046,0.0,0.0,-0.0296108722686767,-0.1803747415542602
-0.0191940311342477,1.2843774557113647,-0.1223494559526443,-0.453471302986145,-0.0540462806820869,-0.105473481118679,0.0,0.0,-0.6892618536949158,-0.1426011323928833
-0.0204906463623046,1.273775935173035,-0.12453593313694,-0.4713697433471679,-0.0591114312410354,-0.101312480866909,0.0,0.0,0.5420359373092651,0.2217611074447631
-0.0216880794614553,1.2631783485412598,-0.1153407543897628,-0.4711871743202209,-0.0634860917925834,-0.0875010341405868,0.0,0.0,0.2313675880432129,-0.3086565136909485
-0.0227622035890817,1.2531225681304932,-0.1036898121237754,-0.447082370519638,-0.0671685487031936,-0.0736560374498367,0.0,0.0,-0.5385409593582153,-0.0870076417922973
-0.0238554961979389,1.242664098739624,-0.1058319434523582,-0.4649856388568878,-0.070639967918396,-0.0694344118237495,0.0,0.0,-0.8993861675262451,-0.3053797483444214
-0.0249677654355764,1.2318029403686523,-0.1079507917165756,-0.4828797280788421,-0.0738991051912307,-0.065188243985176,0.0,0.0,-0.5705150365829468,-0.4896680116653442
-0.0260989181697368,1.2205389738082886,-0.1100447326898574,-0.500775933265686,-0.076945424079895,-0.0609318204224109,0.0,0.0,-0.1634743809700012,-0.2587989568710327
-0.0272486694157123,1.2088723182678225,-0.112109936773777,-0.5186727046966553,-0.0797784104943275,-0.056664865463972,0.0,0.0,-0.42176353931427,-0.4977486729621887
-0.0284165386110544,1.1968026161193848,-0.1141432747244834,-0.536569356918335,-0.0823976323008537,-0.0523892268538475,0.0,0.0,0.331979751586914,-0.5005568861961365
-0.0294927600771188,1.184976577758789,-0.1064741164445877,-0.5256652235984802,-0.0835345312952995,-0.0227400157600641,0.0,0.0,-0.6679442524909973,-0.6315527558326721
-0.0306309703737497,1.1727460622787476,-0.1139981299638748,-0.5435688495635986,-0.0833483636379242,0.0037238032091408,0.0,0.0,-0.3107370138168335,-0.5120646357536316
-0.0318359360098838,1.1601203680038452,-0.1221738904714584,-0.5610504150390625,-0.0816873162984848,0.0332239642739295,0.0,0.0,-0.40470951795578,0.2692655324935913
-0.0330586433410644,1.1470704078674316,-0.1241718307137489,-0.5798965096473694,-0.0798123255372047,0.0374997556209564,0.0,0.0,-0.4471056461334228,0.5888106822967529
-0.0342506393790245,1.133615493774414,-0.1201134547591209,-0.5979400277137756,-0.0789028331637382,0.0181894991546869,0.0,0.0,0.0185514688491821,-0.4455932378768921
-0.0354984290897846,1.1205283403396606,-0.1255289316177368,-0.5816158056259155,-0.0781527087092399,0.0150021435692906,0.0,0.0,-0.5464184880256653,-0.1142470836639404
-0.0367610938847065,1.1070382595062256,-0.1272433847188949,-0.5995093584060669,-0.0771897584199905,0.0192591175436973,0.0,0.0,-0.3214786648750305,0.0674017667770385
-0.0380381569266319,1.0931452512741089,-0.1288962215185165,-0.6174028515815735,-0.0760145857930183,0.0235035717487335,0.0,0.0,-0.4366793632507324,0.5033736228942871
-0.0392877571284771,1.078850507736206,-0.1253159344196319,-0.6353057622909546,-0.0756600648164749,0.0070905098691582,0.0,0.0,-0.8037745952606201,0.0989911556243896
-0.0405503287911415,1.0641529560089111,-0.126833826303482,-0.6531991958618164,-0.0750949308276176,0.0113029899075627,0.0,0.0,-0.2191053628921508,-0.3072239756584167
-0.0418252944946289,1.0490524768829346,-0.1282783448696136,-0.671092689037323,-0.0743201375007629,0.0154959661886096,0.0,0.0,-0.7088662981987,-0.80183345079422
-0.0431821830570697,1.0335497856140137,-0.1384617686271667,-0.688873291015625,-0.0715729370713234,0.0549437701702117,0.0,0.0,0.0019930601119995,0.1902120113372802
-0.0445127487182617,1.0182124376296997,-0.1360882818698883,-0.6815173029899597,-0.0685728043317794,0.0600024983286857,0.0,0.0,-0.4790425896644592,0.1296199560165405
-0.0458532348275184,1.0024725198745728,-0.1372888386249542,-0.6994116902351379,-0.0653666630387306,0.0641228705644607,0.0,0.0,-0.7350922226905823,0.1947031021118164
-0.0472026839852333,0.9863297939300536,-0.1384001076221466,-0.7173062562942505,-0.0619559586048126,0.068214364349842,0.0,0.0,-0.7464311718940735,0.4969856739044189
-0.048560332506895,0.969784379005432,-0.1394181102514267,-0.7352010011672974,-0.0583422258496284,0.0722745954990387,0.0,0.0,-0.1950955986976623,0.1526639461517334
-0.0499251373112201,0.9528365135192872,-0.1403388977050781,-0.7530958652496338,-0.0545271560549736,0.076301172375679,0.0,0.0,-0.0958940982818603,-0.0623105764389038
-0.0512962341308593,0.9354860186576844,-0.1411586254835128,-0.7709909677505493,-0.0505125559866428,0.0802916884422302,0.0,0.0,0.7214579582214355,0.418771743774414
-0.0527423843741416,0.918956696987152,-0.148365244269371,-0.7345121502876282,-0.0468150861561298,0.0739493817090988,0.0,0.0,-0.6596651077270508,-0.1933675408363342
-0.0541927330195903,0.902025043964386,-0.1489715427160263,-0.7524073123931885,-0.0429220609366893,0.0778605192899704,0.0,0.0,-0.0918565988540649,0.7686126232147217
-0.0555757507681846,0.884677529335022,-0.1406345665454864,-0.7709335088729858,-0.04061284288764,0.0461841002106666,0.0,0.0,-0.3291178345680237,0.7169668674468994
-0.056894589215517,0.8669220209121704,-0.1327307820320129,-0.7891177535057068,-0.0397742837667465,0.0167711377143859,0.0,0.0,0.6643935441970825,-0.0120800733566284
-0.0582431778311729,0.8492106795310974,-0.135709524154663,-0.787145733833313,-0.0389364883303642,0.0167560204863548,0.0,0.0,0.4360032081604004,-0.0123376250267028
-0.0595400817692279,0.8315297365188599,-0.1309126615524292,-0.7857908606529236,-0.03772784024477,0.0241727903485298,0.0,0.0,-0.3704135417938232,0.3743379116058349
-0.0608352646231651,0.813446044921875,-0.1309257447719574,-0.803685188293457,-0.0363357178866863,0.0278425067663192,0.0,0.0,0.7252316474914551,0.1811842918395996
-0.0622131340205669,0.7962712049484253,-0.1388250738382339,-0.7633025646209717,-0.0353058725595474,0.0205968227237463,0.0,0.0,-0.4448981881141662,0.5603337287902832
-999.0,0.7786967754364014,-0.1342339068651199,-0.7810792922973633,-0.034966692328453,0.0067835329100489,0.0,0.0,0.017371654510498,0.1745626926422119
-0.0648874267935752,0.7611897587776184,-0.1340034753084182,-0.7780764698982239,-0.034513060003519,0.0090727359056472,0.0,0.0,0.5532082319259644,0.6054073572158813
-0.0660033226013183,0.7440747022628784,-0.1113551631569862,-0.7606759667396545,-0.0347551964223384,-0.0048424834385514,0.0,0.0,0.303817868232727,0.0009207725524902
-0.0671363845467567,0.7274308204650879,-0.113017126917839,-0.7397346496582031,-0.0350391827523708,-0.0056798988953232,0.0,0.0,-0.3321641087532043,0.2356467247009277
-0.0682599991559982,0.7103841304779053,-0.11223666369915,-0.7576289772987366,-0.0351581946015358,-0.0023802684154361,0.0,0.0,0.3492540121078491,0.2026083469390869
-0.0693471878767013,0.6939113736152649,-0.1087785959243774,-0.732125997543335,-0.0351036824285984,0.0010903094662353,0.0,0.0,-0.1650179028511047,0.3534736633300781
-0.0704223662614822,0.6770357489585876,-0.1077239289879798,-0.7500203251838684,-0.0348912850022316,0.0042478395625948,0.0,0.0,0.2435996532440185,0.1258068084716797
-0.0715434104204177,0.66029292345047,-0.112144686281681,-0.7441242337226868,-0.0348574891686439,0.0006762129487469,0.0,0.0,-0.1738729476928711,0.7917270660400391
-0.0725771933794021,0.643150806427002,-0.1017151102423667,-0.7619063854217529,-0.0364932380616664,-0.0327151827514171,0.0,0.0,0.7219997644424438,-0.3605189919471741
-0.07342529296875,0.626652181148529,-0.0839814692735672,-0.7333014607429504,-0.0373172424733638,-0.0164798870682716,0.0,0.0,0.3809642791748047,0.3901214599609375
-0.0741679221391677,0.6107786297798157,-0.0738620609045028,-0.7054961919784546,-0.0377099737524986,-0.007854601368308,0.0,0.0,-0.0081020593643188,-0.6467708945274353
-0.0749492645263671,0.5945114493370056,-0.0793421566486358,-0.7229581475257874,-0.0365144163370132,0.0239111650735139,0.0,0.0,0.2666631937026977,0.5366926193237305
-0.0756150260567665,0.5782577395439148,-0.066932126879692,-0.7223764061927795,-0.0361622832715511,0.0070427907630801,0.0,0.0,0.5549981594085693,0.7410664558410645
-0.076280876994133,0.5625973343849182,-0.0653970390558242,-0.6960471868515015,-0.0373452901840209,-0.0236599259078502,0.0,0.0,-0.1904845237731933,-0.0658414363861084
-0.0769243240356445,0.5465342402458191,-0.0632719472050666,-0.713941752910614,-0.0384029187262058,-0.0211528465151786,0.0,0.0,0.468651533126831,0.5474578142166138
-0.0774572342634201,0.5308821797370911,-0.0512857213616371,-0.6956977248191833,-0.0403743684291839,-0.0394290834665298,0.0,0.0,0.7726547718048096,0.8406360149383545
-0.0778721794486045,0.5154613852500916,-0.0379440523684024,-0.6854682564735413,-0.0438856855034828,-0.0702263563871383,0.0,0.0,0.7003461122512817,-0.8206519484519958
-0.0784399062395095,0.5005635023117065,-0.0547260642051696,-0.6621884107589722,-0.0459062494337558,-0.0404112227261066,0.0,0.0,0.10694420337677,0.7805414199829102
-0.0788755416870117,0.4861259460449219,-0.0400688722729682,-0.641780436038971,-0.0493601001799106,-0.0690771788358688,0.0,0.0,-0.5330343842506409,0.1389871835708618
-0.0792829543352127,0.471285879611969,-0.0373482778668403,-0.6596757769584656,-0.0527115017175674,-0.0670283362269401,0.0,0.0,0.5986454486846924,-0.5719028115272522
-0.0796342864632606,0.4572884738445282,-0.033067300915718,-0.6221815347671509,-0.054756112396717,-0.0408917963504791,0.0,0.0,-0.1655201911926269,0.8109302520751953
-0.0799014121294021,0.4428805112838745,-0.0233613885939121,-0.640481173992157,-0.0580701529979705,-0.0662808343768119,0.0,0.0,0.9539179801940918,-0.2994055151939392
-0.0801992416381836,0.429278552532196,-0.0260087009519338,-0.6046791076660156,-0.0617985017597675,-0.0745669305324554,0.0,0.0,0.333127498626709,-0.2759435176849365
-0.0804090499877929,0.4160237312316894,-0.0174105260521173,-0.5892571210861206,-0.0653287544846534,-0.0706052631139755,0.0,0.0,0.3817143440246582,-0.238319456577301
-0.0806471854448318,0.4034340679645538,-0.0198169779032468,-0.5597193837165833,-0.0692789778113365,-0.0790044516324997,0.0,0.0,0.6809389591217041,0.1550341844558715
-0.0807360634207725,0.3913133442401886,-0.0053225220181047,-0.5388687252998352,-0.0728098452091217,-0.0706174001097679,0.0,0.0,-0.5690001845359802,-0.8318992257118225
-0.0808598548173904,0.3787911534309387,-0.0106511283665895,-0.5566291213035583,-0.0745243281126022,-0.0342897959053516,0.0,0.0,0.5845804214477539,0.4960898160934448
-0.0808599442243576,0.3663253784179687,0.001354923704639,-0.5541052222251892,-0.0758731514215469,-0.0269763972610235,0.0,0.0,0.2791826725006103,-0.6880430579185486
-0.0808857902884483,0.3538523912429809,-0.0026193687226623,-0.554352879524231,-0.0758357048034668,0.0007487963885068,0.0,0.0,0.6032593250274658,-0.0538271069526672
-0.0808244720101356,0.3421289324760437,0.0060796509496867,-0.521040678024292,-0.0757814422249794,0.0010849002283066,0.0,0.0,0.3378138542175293,0.1944085359573364
-0.0806109458208084,0.3309834599494934,0.0209497325122356,-0.4953354895114898,-0.0753777399659156,0.0080739762634038,0.0,0.0,-0.2262066602706909,-0.5845125913619995
-0.0804135352373123,0.3194473087787628,0.0178869236260652,-0.5126240253448486,-0.0735465437173843,0.0366240218281745,0.0,0.0,0.8441851139068604,-0.2729493379592895
-0.0802942290902137,0.3080775439739227,0.010713112540543,-0.5052626132965088,-0.0723431333899498,0.02406832203269,0.0,0.0,0.2791733741760254,0.1979835033416748
-0.0800602883100509,0.297217458486557,0.0220051947981119,-0.4826045632362366,-0.0709595009684562,0.0276723895221948,0.0,0.0,0.0360095500946044,0.4266862869262695
-0.0798241645097732,0.286501407623291,0.0224774293601512,-0.4762146174907684,-0.0698385909199714,0.022418338805437,0.0,0.0,0.2255420684814453,-0.1777235269546508
-0.0795531272888183,0.2761393785476684,0.0261280089616775,-0.460490882396698,-0.0688789933919906,0.0191919766366481,0.0,0.0,-0.2670036554336548,-0.247521698474884
-0.0792413726449012,0.2653746902942657,0.0301849730312824,-0.478385716676712,-0.0678968951106071,0.0196418669074773,0.0,0.0,-0.2475606799125671,0.3094024658203125
-0.0788884162902832,0.2542074024677276,0.0342892296612262,-0.4962805509567261,-0.0668965429067611,0.0200068410485982,0.0,0.0,0.7386293411254883,-0.1671904325485229
-0.0784447640180587,0.2431740909814834,0.0432192645967006,-0.4903201460838318,-0.0657667517662048,0.0225961171090602,0.0,0.0,0.8058979511260986,-0.616047739982605
-0.0778704658150672,0.2323865294456482,0.0547644421458244,-0.4793342053890228,-0.063121423125267,0.0529062263667583,0.0,0.0,0.2670817375183105,-0.5028848052024841
-0.0771434754133224,0.2218440175056457,0.0687252655625343,-0.4683903455734253,-0.0591916143894195,0.0785959213972091,0.0,0.0,0.3374507427215576,-0.1087335348129272
-0.0762422531843185,0.2113673090934753,0.0856186524033546,-0.4654632210731506,-0.0547374859452247,0.0890825539827346,0.0,0.0,-0.0322972536087036,-0.4204699993133545
-0.0752979293465614,0.2004881203174591,0.0899191349744796,-0.4833597540855407,-0.0502847395837307,0.089055098593235,0.0,0.0,0.6791048049926758,-0.8145979642868042
-0.0743011459708213,0.190370038151741,0.0934803783893585,-0.4494947791099548,-0.0441527739167213,0.1226394176483154,0.0,0.0,0.2930111885070801,-0.2777250409126282
-0.0731402412056922,0.1806258261203766,0.1094300299882888,-0.4328956007957458,-0.0375783257186412,0.13148894906044,0.0,0.0,-0.0594587922096252,-0.7826836109161377
-0.0719873458147049,0.1704743504524231,0.107334479689598,-0.4509977698326111,-0.0297204703092575,0.1571571826934814,0.0,0.0,0.1787474155426025,-0.5510050654411316
-0.0708644837141037,0.1604682058095932,0.1033109650015831,-0.4445682466030121,-0.0208594929426908,0.1772192120552063,0.0,0.0,0.648550271987915,-0.5729617476463318
-0.0696338638663292,0.1513569205999374,0.1127190589904785,-0.4048277735710144,-0.0106459632515907,0.2042707651853561,0.0,0.0,0.0629613399505615,0.3840653896331787
-0.0683698654174804,0.1423939019441604,0.1161432489752769,-0.398311048746109,-0.0005225407076068,0.2024687081575393,0.0,0.0,0.3208621740341186,0.5206758975982666
-0.0671277046203613,0.1339884400367736,0.1152819544076919,-0.3736013174057007,0.0082957847043871,0.1763664036989212,0.0,0.0,-0.561703622341156,-0.5424100160598755
-0.0658775344491005,0.1251836419105529,0.1151764988899231,-0.3914065957069397,0.0180108025670051,0.1943005323410034,0.0,0.0,0.383414626121521,-0.1618213653564453
-0.0646385177969932,0.1169184297323226,0.1142958775162696,-0.3674847483634949,0.0274901371449232,0.1895866394042968,0.0,0.0,0.2699213027954101,0.750190258026123
-0.0633828192949295,0.1091194972395896,0.1176078096032142,-0.3467845618724823,0.0353571213781833,0.1573396921157837,0.0,0.0,-0.4837813973426819,-0.5369075536727905
-0.0621260628104209,0.1009147986769676,0.1166160702705383,-0.3648948073387146,0.0443039238452911,0.1789361536502838,0.0,0.0,0.6902543306350708,0.8575172424316406
-0.0609158501029014,0.0932268723845481,0.1139498353004455,-0.3419128656387329,0.051288403570652,0.1396898925304412,0.0,0.0,0.4180351495742798,-0.1930156946182251
-0.0598122589290142,0.0858002975583076,0.103930152952671,-0.3303025364875793,0.0576393231749534,0.1270184963941574,0.0,0.0,0.286805510520935,0.9005928039550781
-0.0585296638309955,0.0788294151425361,0.1236252039670944,-0.3100061416625976,0.0622253268957138,0.0917199626564979,0.0,0.0,0.4613168239593506,-0.4321807622909546
-0.0571676269173622,0.0719496607780456,0.131357192993164,-0.3059729039669037,0.0670232772827148,0.095959186553955,0.0,0.0,0.3172677755355835,-0.826693058013916
-0.0557350143790245,0.0655911788344383,0.1366453766822815,-0.2829091846942901,0.0735637098550796,0.1308087259531021,0.0,0.0,0.2311130762100219,0.5456942319869995
-0.0542750358581543,0.0597027651965618,0.1405684798955917,-0.2619833648204803,0.0789372771978378,0.1074713096022605,0.0,0.0,-0.0050586462020874,-0.8779116272926331
-0.0528227798640728,0.0534160248935222,0.1385058015584945,-0.2797785401344299,0.0855999439954757,0.1332532167434692,0.0,0.0,0.7050981521606445,-0.3488956689834595
-0.0512972846627235,0.0476313941180706,0.1454980671405792,-0.2575154304504394,0.0925838500261306,0.1396780759096145,0.0,0.0,0.774072527885437,-0.9230903387069702
-0.0498888976871967,0.0427522771060466,0.1319997012615203,-0.2174232006072998,0.1013469696044921,0.1752622276544571,0.0,0.0,0.2598999738693237,0.0475020408630371
-0.0484494194388389,0.0383746959269046,0.1349476277828216,-0.1951924711465835,0.1102801039814949,0.1786627620458603,0.0,0.0,0.0011732578277587,0.3456093072891235
-0.04694614559412,0.0340177863836288,0.1411544978618621,-0.1943422257900238,0.1193949282169342,0.182296484708786,0.0,0.0,0.2157268524169922,-0.1521161794662475
-0.0455405227839946,0.0299207307398319,0.1318584382534027,-0.1828083544969558,0.1280491352081298,0.1730842441320419,0.0,0.0,0.2146453857421875,-0.0745911002159118
-0.0442309379577636,0.0259668678045272,0.1227453500032424,-0.1764510720968246,0.1362226158380508,0.1634700894355774,0.0,0.0,0.1402074098587036,-0.636265754699707
-0.0429946891963481,0.0221754405647516,0.1142186895012855,-0.1693913787603378,0.1456005126237869,0.1875575482845306,0.0,0.0,-0.0576324462890625,-0.3182485699653625
-0.0417125709354877,0.0179825406521558,0.1188569441437721,-0.1872930079698562,0.1549349278211593,0.1866883188486099,0.0,0.0,0.6145274639129639,-0.5220729112625122
-0.0404088012874126,0.0147255519405007,0.1380256861448288,-0.1439666897058487,0.1473488509654998,-0.1516638547182083,0.0,1.0,0.9406623840332032,0.5861635208129883
-0.0392208099365234,0.0129266837611794,0.1454793512821197,-0.0775196105241775,0.1207624077796936,-0.5317329168319702,0.0,1.0,0.1656174659729004,-0.6345773935317993
-0.0382541641592979,0.011870608665049,0.1320196390151977,-0.0444639846682548,0.0856358781456947,-0.7025832533836365,0.0,1.0,0.1931620836257934,-0.858272910118103
-0.0372899062931537,0.0107101062312722,0.1283804476261139,-0.0500507242977619,0.0540010593831539,-0.6326968669891357,0.0,1.0,0.308218240737915,-0.850325882434845
