x_pos,y_pos,x_vel,y_vel,angle,ang_vel,leg_1,leg_2,main_booster,lat_booster
-0.0015320777893066,1.403408169746399,-0.1545316874980926,-0.3338681757450104,0.0011790139833465,0.0232141744345426,0.0,0.0,-0.3670035600662231,0.785881519317627
-0.0030059814453125,1.395699143409729,-0.1462385654449463,-0.3426214158535003,3.312871194793843e-05,-0.0229189619421958,0.0,0.0,-0.1770873665809631,0.6474564075469971
-0.0044266702607274,1.3877685070037842,-0.1387061178684234,-0.3524712920188904,-0.0032902762759476,-0.066474363207817,0.0,0.0,0.1369781494140625,-0.1637763977050781
-0.0059370039962232,1.3801380395889282,-0.1466601490974426,-0.3391529023647308,-0.0076285530813038,-0.0867734774947166,0.0,0.0,-0.2404782176017761,-0.2476500868797302
-0.0074565885588526,1.3722912073135376,-0.1469292640686035,-0.3487762212753296,-0.012595965526998,-0.0993573144078254,0.0,0.0,0.1119667291641235,-0.2601827383041382
-0.0088882446289062,1.3647751808166504,-0.1379519253969192,-0.3341002166271209,-0.017757685855031,-0.1032437905669212,0.0,0.0,0.0023152828216552,-0.0115407109260559
-0.0103367809206247,1.3575689792633057,-0.138913869857788,-0.3203563988208771,-0.0236269049346447,-0.1173951178789138,0.0,0.0,-0.3563939332962036,0.1670784950256347
-0.0117946621030569,1.3501472473144531,-0.1391985863447189,-0.3299796283245086,-0.0301431268453598,-0.1303364038467407,0.0,0.0,-0.3332709074020386,-0.2067583203315735
-0.0132619859650731,1.3425098657608032,-0.1394874453544616,-0.3396002650260925,-0.0373115874826908,-0.143382579088211,0.0,0.0,-0.3695331811904907,-0.3998955488204956
-0.0147388456389307,1.3346571922302246,-0.1397801488637924,-0.3492228090763092,-0.0451367907226085,-0.1565183997154235,0.0,0.0,-0.3760260343551636,0.3921651840209961
-0.0162254329770803,1.3265892267227173,-0.1400764882564544,-0.3588470220565796,-0.0536228232085704,-0.1697365194559097,0.0,0.0,0.2475240230560302,0.2550249099731445
-0.0176468845456838,1.318899631500244,-0.1331593096256256,-0.3421009182929992,-0.0625206157565116,-0.1779724657535553,0.0,0.0,-0.3943274021148681,0.2822123765945434
-0.0190780647099018,1.31099534034729,-0.1334625780582428,-0.3517330288887024,-0.0720866024494171,-0.1913371235132217,0.0,0.0,-0.8524966835975647,0.0539082288742065
-0.0205189697444438,1.3028764724731443,-0.1337675154209137,-0.3613603413105011,-0.0823235213756561,-0.2047572135925293,0.0,0.0,-0.7451659440994263,-0.5963693261146545
-0.022005271166563,1.2945541143417358,-0.1385471522808075,-0.3704701662063598,-0.0923246592283248,-0.2000408619642257,0.0,0.0,-0.8311703205108643,0.2775681018829345
-0.0235012061893939,1.2860175371170044,-0.138858824968338,-0.3801018297672272,-0.1030026599764823,-0.2135792672634124,0.0,0.0,-0.854103147983551,-0.1996201276779174
-0.025007152929902,1.2772670984268188,-0.1391715109348297,-0.3897351026535034,-0.1143592000007629,-0.227151557803154,0.0,0.0,-0.8076117634773254,-0.5591369271278381
-0.0265566818416118,1.2683038711547852,-0.1437233686447143,-0.3992589116096496,-0.1255479604005813,-0.2237949818372726,0.0,0.0,-0.5557389855384827,-0.6096051931381226
-0.0281556136906147,1.2591403722763062,-0.1490192860364914,-0.408218652009964,-0.1363977491855621,-0.217015191912651,0.0,0.0,-0.5854313373565674,0.0460082292556762
-0.029764462262392,1.2497633695602417,-0.149338498711586,-0.4178556799888611,-0.1479323655366897,-0.2307129353284835,0.0,0.0,-0.6960760354995728,-0.4466891288757324
-0.0313832275569438,1.240173101425171,-0.1496569812297821,-0.4274945557117462,-0.160152792930603,-0.2444307059049606,0.0,0.0,-0.6232814192771912,-0.7165151238441467
-0.0330669395625591,1.2303788661956787,-0.1568973958492279,-0.4365738034248352,-0.1716576069593429,-0.2301167696714401,0.0,0.0,-0.6716353297233582,-0.8442521691322327
-0.0348122604191303,1.220383644104004,-0.1637063473463058,-0.445518285036087,-0.1825261116027832,-0.2173895537853241,0.0,0.0,-0.4504224061965942,-0.6408768892288208
-0.0366122238337993,1.210180401802063,-0.1696437448263168,-0.4547907412052154,-0.1929535716772079,-0.2085675746202469,0.0,0.0,-0.6727127432823181,-0.5720861554145813
-0.0384767539799213,1.19978129863739,-0.1768348515033722,-0.4634657502174377,-0.2026519030332565,-0.1939834207296371,0.0,0.0,-0.682842493057251,-0.1874043345451355
-0.0403541550040245,1.1891478300094604,-0.1774451434612274,-0.4740410447120666,-0.2130433619022369,-0.2078293263912201,0.0,0.0,-0.8500964641571045,-0.7373844981193542
-0.0422976501286029,1.1783243417739868,-0.1848420053720474,-0.4824523329734802,-0.2226517498493194,-0.192168191075325,0.0,0.0,-0.5240731835365295,-0.8643825650215149
-0.0443307869136333,1.1673235893249512,-0.1952479034662246,-0.4901613295078277,-0.2308298647403717,-0.1635616719722747,0.0,0.0,0.0846500396728515,-0.9214211702346802
-0.0464261062443256,1.1569191217422483,-0.2026297152042389,-0.4635199904441833,-0.2378341555595398,-0.1400858461856842,0.0,0.0,-0.4608593583106994,-0.5826133489608765
-0.0485781654715538,1.146315574645996,-0.2088251113891601,-0.472307801246643,-0.2443206161260604,-0.1297292411327362,0.0,0.0,-0.7597512602806091,-0.6066133379936218
-0.0507842078804969,1.1355221271514893,-0.2147176712751388,-0.4807046055793762,-0.2503118813037872,-0.1198251098394393,0.0,0.0,-0.3708324432373047,-0.8634887337684631
-0.0530756935477256,1.1245386600494385,-0.2245172560214996,-0.488955557346344,-0.2550351321697235,-0.0944649949669838,0.0,0.0,0.4473260641098022,-0.3079748153686523
-0.055270005017519,1.1143882274627686,-0.2137985527515411,-0.4521266222000122,-0.2607912719249725,-0.1151228919625282,0.0,0.0,-0.639629602432251,-0.3508355617523193
-0.0574743263423442,1.1040241718292236,-0.2141222655773162,-0.4617603421211242,-0.2672461569309234,-0.1290968954563141,0.0,0.0,-0.4399604797363281,-0.3342688083648681
-0.0596886649727821,1.0934467315673828,-0.2144406139850616,-0.4713950753211975,-0.2743999660015106,-0.1430763751268386,0.0,0.0,-0.8318876028060913,0.0095722675323486
-0.0619126334786415,1.0826562643051147,-0.2147529572248459,-0.4810309708118438,-0.2822529673576355,-0.1570597887039184,0.0,0.0,-0.8523697853088379,-0.7961386442184448
-0.0642100349068641,1.071676254272461,-0.2230612337589264,-0.4893096685409546,-0.2891232073307037,-0.1374046802520752,0.0,0.0,-0.7539936900138855,-0.8650968074798584
-0.0665769577026367,1.0605167150497437,-0.2309500724077224,-0.497131884098053,-0.295040100812912,-0.1183379665017128,0.0,0.0,-0.5134062767028809,-0.8980286717414856
-0.0690235123038292,1.0491862297058103,-0.2401408702135086,-0.504500687122345,-0.2997014224529266,-0.093226209282875,0.0,0.0,0.6248764991760254,-0.5601454377174377
-0.0713165253400802,1.0385061502456665,-0.2252906113862991,-0.4755036532878876,-0.3038466870784759,-0.0829055234789848,0.0,0.0,-0.5026742815971375,-0.0907946825027465
-0.0736188888549804,1.0276126861572266,-0.2255602329969406,-0.485138475894928,-0.3086911737918854,-0.0968894511461258,0.0,0.0,0.1405813694000244,-0.0548822879791259
-0.0757395774126052,1.0169836282730105,-0.2071010619401931,-0.4734643101692199,-0.3138404786586761,-0.102985955774784,0.0,0.0,-0.470896303653717,-0.6779916286468506
-0.0779135674238205,1.006155252456665,-0.2128763198852539,-0.4822548031806946,-0.3185372650623321,-0.0939359813928604,0.0,0.0,-0.3635908961296081,-0.7459824681282043
-0.0801434516906738,0.9951350092887878,-0.2190228253602981,-0.490662932395935,-0.3226631283760071,-0.0825172513723373,0.0,0.0,-0.2488180994987487,-0.8884034752845764
-0.0824553519487381,0.9839271306991576,-0.2284043729305267,-0.4987511038780212,-0.3255624175071716,-0.0579855255782604,0.0,0.0,0.9029994010925292,-0.3093895316123962
-0.0846027359366417,0.9730274677276612,-0.2115236967802047,-0.4851506054401397,-0.3289142847061157,-0.0670379549264907,0.0,0.0,0.8301689624786377,0.0586146116256713
-0.0865348801016807,0.9625847339630128,-0.18963123857975,-0.4649397730827331,-0.3326504230499267,-0.0747220143675804,0.0,0.0,0.0729833841323852,-0.8641558289527893
-0.0884416550397872,0.9527806043624878,-0.188133418560028,-0.4363323450088501,-0.3353133201599121,-0.0532581098377704,0.0,0.0,-0.0129007697105407,-0.8704378008842468
-0.0904338806867599,0.9428114891052246,-0.198097288608551,-0.4433299303054809,-0.336490273475647,-0.0235388297587633,0.0,0.0,0.2347283363342285,-0.7991758584976196
-0.0923855751752853,0.9332053065299988,-0.1949255615472793,-0.4270002543926239,-0.3367449939250946,-0.0050942413508892,0.0,0.0,0.5756336450576782,-0.2709518074989319
-0.0940361022949218,0.9240889549255372,-0.1647528707981109,-0.4052400887012481,-0.3370603621006012,-0.0063072391785681,0.0,0.0,0.6962435245513916,-0.1060611009597778
-0.0955000892281532,0.9158594012260436,-0.1451664417982101,-0.3660464584827423,-0.3383414447307586,-0.0256219562143087,0.0,0.0,0.2137186527252197,-0.700215220451355
-0.0968307480216026,0.907857358455658,-0.1326552927494049,-0.3557405173778534,-0.3387737572193146,-0.0086462423205375,0.0,0.0,0.2890912294387817,-0.886547327041626
-0.0980230346322059,0.9005637764930725,-0.1199029684066772,-0.3240090906620025,-0.3380701839923858,0.0140714701265096,0.0,0.0,0.1554005146026611,-0.5429235100746155
-0.0990418419241905,0.8935014605522156,-0.1031516343355178,-0.3135835528373718,-0.3367389142513275,0.0266245510429143,0.0,0.0,0.6757674217224121,-0.6771509051322937
-0.1000599861145019,0.8869782090187073,-0.1035345047712326,-0.2895203530788421,-0.3349406719207763,0.0359654799103736,0.0,0.0,0.775153636932373,-0.830888032913208
-0.100758172571659,0.8814393877983093,-0.0727138519287109,-0.245501697063446,-0.3319169878959656,0.0604735799133777,0.0,0.0,0.5673863887786865,-0.2018599510192871
-0.1011304855346679,0.8765305876731873,-0.0400527901947498,-0.2175201624631881,-0.3289701342582702,0.0589368417859077,0.0,0.0,0.4835574626922607,-0.926624596118927
-0.1012648567557334,0.8724655508995056,-0.0175064224749803,-0.1797491759061813,-0.324724018573761,0.0849220007658004,0.0,0.0,-0.1970325708389282,-0.8934097290039062
-0.1014782935380935,0.8682326674461365,-0.0267608817666769,-0.1869290769100189,-0.3190920054912567,0.1126405447721481,0.0,0.0,-0.4079172611236572,-0.5207944512367249
-0.1017339676618576,0.8637999296188354,-0.0312692373991012,-0.1957660019397735,-0.313167542219162,0.1184892058372497,0.0,0.0,0.0235011577606201,-0.7154321074485779
-0.101981833577156,0.8598368167877197,-0.0312207732349634,-0.1747659891843795,-0.3064971268177032,0.1334080398082733,0.0,0.0,-0.844936728477478,-0.9187106490135192
-0.1022899597883224,0.8556844592094421,-0.0380539484322071,-0.183041363954544,-0.2990105450153351,0.1497322916984558,0.0,0.0,0.2260880470275879,0.112207293510437
-0.1024521812796592,0.851963460445404,-0.0229041315615177,-0.1640258878469467,-0.2921077609062195,0.1380552947521209,0.0,0.0,-0.8632948994636536,-0.7418432831764221
-0.1026750579476356,0.8480486869812012,-0.0297931972891092,-0.1724988967180252,-0.2843832671642303,0.1544900089502334,0.0,0.0,-0.9383504986763,0.1915750503540039
-0.1029021292924881,0.8439209461212158,-0.0295856837183237,-0.1821350008249282,-0.2773150205612182,0.1413651704788208,0.0,0.0,-0.985781192779541,-0.4702760577201843
-0.1031330078840255,0.8395797610282898,-0.0293516032397747,-0.191769853234291,-0.2708980739116668,0.1283387839794159,0.0,0.0,-0.9983947277069092,-0.1990483999252319
-0.1033675223588943,0.835024893283844,-0.0290909353643655,-0.2014035731554031,-0.2651270925998688,0.1154204457998275,0.0,0.0,-0.9703425168991088,-0.7508419156074524
-0.1036582961678505,0.8302870392799377,-0.0355277508497238,-0.2094188779592514,-0.2585362195968628,0.1318177133798599,0.0,0.0,-0.9725138545036316,0.1809934377670288
-0.1039521247148513,0.8253354430198669,-0.0352146700024604,-0.2190518677234649,-0.2525788247585296,0.1191476359963417,0.0,0.0,-0.9378278851509094,-0.3265974521636963
-0.1042485237121582,0.8201700448989868,-0.0348752662539482,-0.228683739900589,-0.2472478151321411,0.1066199392080307,0.0,0.0,-0.9239270687103271,-0.3030567169189453
-0.104547306895256,0.8147906064987183,-0.0345098339021205,-0.2383146286010742,-0.2425354123115539,0.0942481607198715,0.0,0.0,-0.9988490343093872,0.2692315578460693
-0.1048481911420822,0.8091970086097717,-0.0341187007725238,-0.2479445934295654,-0.2384330481290817,0.0820469036698341,0.0,0.0,-0.9907991290092468,0.6295292377471924
-0.105096623301506,0.8033692240715027,-0.0268843416124582,-0.2586784958839416,-0.2363568097352981,0.0415247902274131,0.0,0.0,-0.991652250289917,-0.7649997472763062
-0.1054092422127723,0.7973436713218689,-0.0343366786837577,-0.2673120200634002,-0.2332464158535003,0.0622081756591796,0.0,0.0,-0.9962553977966307,-0.5130511522293091
-0.105758860707283,0.7911109328269958,-0.0383525863289833,-0.276478111743927,-0.2298021167516708,0.0688857734203338,0.0,0.0,-0.9701326489448548,0.4868950843811035
-0.1061091423034668,0.7846636176109314,-0.0378637388348579,-0.286105751991272,-0.2269252389669418,0.0575375072658062,0.0,0.0,-0.9992318153381348,-0.2549663782119751
-0.1064597144722938,0.7780017256736755,-0.0373518876731395,-0.2957327663898468,-0.2246026694774627,0.046451661735773,0.0,0.0,-0.998722493648529,-0.5109102129936218
-0.1068436652421951,0.7711418271064758,-0.0410320498049259,-0.3044847846031189,-0.2219236642122268,0.0535797551274299,0.0,0.0,-0.998728573322296,-0.3215534687042236
-0.1072270423173904,0.7640672326087952,-0.0404765494167804,-0.3141109347343445,-0.2197693139314651,0.043087039142847,0.0,0.0,-0.9981239438056946,-0.8586347699165344
-0.1076914817094802,0.7567960619926453,-0.0501398853957653,-0.3226151764392853,-0.2160294353961944,0.0747973918914794,0.0,0.0,-0.9999580979347228,-0.2702129483222961
-0.1081547737121582,0.7493100762367249,-0.0495441444218158,-0.3322409987449646,-0.2127796113491058,0.0649967938661575,0.0,0.0,-0.9986087083816528,-0.6363210678100586
-0.1086738556623458,0.7416278123855591,-0.0561471171677112,-0.3408288955688476,-0.2085048854351043,0.0854945480823516,0.0,0.0,-0.9993735551834106,0.1507830619812011
-0.1091910377144813,0.733730673789978,-0.0555145516991615,-0.3504540622234344,-0.2046802043914795,0.0764935761690139,0.0,0.0,-0.9998345375061036,-0.4595953226089477
-0.1097060218453407,0.7256185412406921,-0.0548647865653038,-0.3600784242153168,-0.2012834548950195,0.0679346248507499,0.0,0.0,-0.9999844431877136,-0.4206146001815796
-0.1102182418107986,0.7172912359237671,-0.0541988089680671,-0.3697020411491394,-0.1982911527156829,0.0598464012145996,0.0,0.0,-0.9998878836631776,0.0429321527481079
-0.1107275038957595,0.7087486386299133,-0.053517572581768,-0.3793249428272247,-0.1956782788038253,0.0522575676441192,0.0,0.0,-0.996817708015442,-0.6723178029060364
-0.1112779602408409,0.6999989151954651,-0.0584263913333416,-0.3884297609329223,-0.1922796070575714,0.0679736882448196,0.0,0.0,-0.9999302625656128,0.011359691619873
-0.1118245124816894,0.6910338997840881,-0.0577177032828331,-0.3980517983436584,-0.1892062127590179,0.0614679455757141,0.0,0.0,-0.9995743632316588,-0.8505427837371826
-0.112418457865715,0.6818617582321167,-0.0634538531303405,-0.4071440994739532,-0.1851214319467544,0.0816956385970115,0.0,0.0,-0.9998644590377808,-0.5188115835189819
-0.1130477935075759,0.6724891662597656,-0.0677875578403472,-0.4159621298313141,-0.180249348282814,0.0974419042468071,0.0,0.0,-0.9864600896835328,0.191358208656311
-0.1136719733476638,0.6629011631011963,-0.0670447796583175,-0.4255834817886352,-0.175611600279808,0.0927550494670867,0.0,0.0,-0.9996996521949768,-0.1521899700164795
-0.1142906174063682,0.6530973315238953,-0.0662922412157058,-0.4352040886878967,-0.1711756736040115,0.0887188836932182,0.0,0.0,-0.999204158782959,0.4719088077545166
-0.1149032562971115,0.6430778503417969,-0.0655307993292808,-0.4448240399360657,-0.1669081002473831,0.0853513777256012,0.0,0.0,-0.9999718070030212,0.2472597360610962
-0.1155096068978309,0.6328425407409668,-0.0647612363100051,-0.4544433057308197,-0.1627747267484665,0.0826672166585922,0.0,0.0,-0.9996870160102844,-0.7140318155288696
-0.1161560043692588,0.6224116683006287,-0.069906398653984,-0.4630291163921356,-0.1575071662664413,0.1053512841463089,0.0,0.0,-0.9999485611915588,0.8058500289916992
-0.1167346984148025,0.611750066280365,-0.0615277960896492,-0.4734650254249573,-0.1538546085357666,0.0730507746338844,0.0,0.0,-0.9997926354408264,-0.4823333024978637
-0.1173058524727821,0.6008723378181458,-0.0607381947338581,-0.4830824136734009,-0.1502311080694198,0.072469562292099,0.0,0.0,-0.9975124001502992,-0.6887222528457642
-0.1179144829511642,0.5897924304008484,-0.0656937509775161,-0.4919629096984863,-0.1454210430383682,0.0962012261152267,0.0,0.0,-0.9974605441093444,0.8090293407440186
-0.118456557393074,0.5784894227981567,-0.057594709098339,-0.5020297765731812,-0.1420405954122543,0.067609004676342,0.0,0.0,-0.9996168613433838,0.9710347652435304
-0.1189235672354698,0.5669628381729126,-0.0484901778399944,-0.5121240615844727,-0.1402551382780075,0.0357089601457119,0.0,0.0,-0.999907612800598,-0.8459970355033875
-0.1194506660103797,0.5552316308021545,-0.0563705191016197,-0.5210477113723755,-0.1366001218557357,0.0731002539396286,0.0,0.0,-0.9993246793746948,0.091893196105957
-0.1199681311845779,0.5432839393615723,-0.0555591993033885,-0.5306630730628967,-0.1328015178442001,0.0759721025824546,0.0,0.0,-0.9961326122283936,0.8697483539581299
-0.120424747467041,0.5311076045036316,-0.0483398623764514,-0.5409364104270935,-0.1301311403512954,0.0534074716269969,0.0,0.0,-0.998632550239563,0.8698384761810303
-0.1207902878522872,0.5187038779258728,-0.0374065302312374,-0.551202654838562,-0.1292938143014907,0.016746524721384,0.0,0.0,-0.986544668674469,0.1599223613739013
-0.1211453452706337,0.5060834288597107,-0.036586832255125,-0.5608161091804504,-0.1282184571027755,0.0215074010193347,0.0,0.0,-0.997690498828888,0.3404831886291504
-0.1214895248413086,0.4932461678981781,-0.0357649996876716,-0.5704292058944702,-0.1268758773803711,0.0268519911915063,0.0,0.0,-0.943798840045929,-0.6426982283592224
-0.1218742355704307,0.4802074134349823,-0.0414677932858467,-0.5792475342750549,-0.123903565108776,0.0594462975859642,0.0,0.0,-0.9587942361831664,-0.1146522760391235
-0.1222475990653038,0.4669519364833832,-0.0406424738466739,-0.5888608694076538,-0.1206095367670059,0.0658805146813392,0.0,0.0,-0.6277622580528259,0.7196831703186035
-0.122545525431633,0.4534681439399719,-0.0318211913108825,-0.5991173386573792,-0.1185871958732605,0.0404465645551681,0.0,0.0,0.7472150325775146,-0.0352182388305664
-0.1227367371320724,0.4410548806190491,-0.0214962530881166,-0.5515128374099731,-0.116229310631752,0.0471576713025569,0.0,0.0,-0.8412412405014038,0.3923757076263428
-0.1229157447814941,0.4284247457981109,-0.0206668693572282,-0.5611253976821899,-0.1134781911969184,0.0550225488841533,0.0,0.0,-0.2551023960113525,0.1109628677368164
-0.1230822578072547,0.41557776927948,-0.0198364704847335,-0.5707380175590515,-0.110312707722187,0.0633098557591438,0.0,0.0,0.5064074993133545,0.5310139656066895
-0.1232514381408691,0.403368204832077,-0.0191789418458938,-0.5424827337265015,-0.108072742819786,0.0447990521788597,0.0,0.0,-0.1219927668571472,0.3835346698760986
-0.1234078407287597,0.390941709280014,-0.0183468014001846,-0.5520951151847839,-0.105380117893219,0.0538525208830833,0.0,0.0,0.5755503177642822,0.4369244575500488
-0.1235149353742599,0.379103422164917,-0.0138042569160461,-0.5259295105934143,-0.1023125424981117,0.0613516978919506,0.0,0.0,0.0553187131881713,0.9808897972106934
-0.1234771758317947,0.3675399720668793,0.0021784398704767,-0.5138241052627563,-0.1007231846451759,0.0317871496081352,0.0,0.0,-0.3125506639480591,0.340873122215271
-0.1234259605407714,0.3557595014572143,0.0030123493634164,-0.5234359502792358,-0.0986328646540641,0.0418064519762992,0.0,0.0,0.5212104320526123,0.805525541305542
-0.1231359466910362,0.3446811735630035,0.027832930907607,-0.4922924637794494,-0.0974771827459335,0.0231136959046125,0.0,0.0,-0.0174891948699951,-0.797346293926239
-0.1228919997811317,0.3334023952484131,0.0211649443954229,-0.5010732412338257,-0.0942678153514862,0.0641872882843017,0.0,0.0,0.2775707244873047,0.4983772039413452
