x_pos,y_pos,x_vel,y_vel,angle,ang_vel,leg_1,leg_2,main_booster,lat_booster
-0.0015315056079998,1.402909278869629,-0.1553634852170944,-0.3560377955436706,0.0019878754392266,0.0392296500504016,0.0,0.0,0.4075988167676065,0.7625837600998722
-0.0029626847244799,1.394792556762695,-0.1438540816307068,-0.360745757818222,0.0027112406678497,0.0144694596529006,0.0,0.0,0.6322681801856529,-0.882529436924825
-0.0043254853226244,1.3865526914596558,-0.1392394602298736,-0.3662266433238983,0.0056371334940195,0.0585233978927135,0.0,0.0,0.9809800522745288,0.9025939746446288
-0.0057862279936671,1.3784924745559692,-0.1471031308174133,-0.3582374155521393,0.006652211304754,0.020303500816226,0.0,0.0,0.9865561241305624,-0.927537028132298
-0.0071632387116551,1.3708970546722412,-0.1411465406417846,-0.337594985961914,0.0100638316944241,0.0682388544082641,0.0,0.0,0.6348037853490112,0.8408726765790855
-0.008337402716279,1.3633946180343628,-0.1196682900190353,-0.3334622979164123,0.0122889271005988,0.044505950063467,0.0,0.0,0.5597457844156009,0.8678667038071335
-0.0094823837280273,1.3559954166412354,-0.1151984930038452,-0.3288579285144806,0.012967730872333,0.0135776074603199,0.0,0.0,-0.7856936889497885,-0.6967553302910763
-0.0106772426515817,1.3478821516036987,-0.1214350014925003,-0.3606035113334656,0.0148934880271554,0.0385186560451984,0.0,0.0,-0.1837073414667169,0.9652907427764136
-0.0118060111999511,1.3390661478042605,-0.1131354942917823,-0.3918290734291076,0.0151517000049352,0.0051647340878844,0.0,0.0,-0.7016707548508683,-0.7006934417211177
-0.0129978181794285,1.3295379877090454,-0.1210650950670242,-0.423492431640625,0.0170079451054334,0.0371282882988452,0.0,0.0,0.0121164481808915,-0.9943656937798536
-0.0142176626250147,1.319841384887695,-0.1260327696800232,-0.4310125112533569,0.0210088212043046,0.080024853348732,0.0,0.0,-0.4680256081194704,0.9549695554961162
-0.0153603553771972,1.3094302415847778,-0.1163852214813232,-0.46274533867836,0.023099560290575,0.0418187193572521,0.0,0.0,0.595385547667614,0.8210223529586562
-0.0163205154240131,1.299328327178955,-0.096930406987667,-0.4489898085594177,0.0240110475569963,0.0182312596589326,0.0,0.0,-0.7618728928291625,0.7695554103994408
-0.0172183029353618,1.288506269454956,-0.0891894325613975,-0.4809689521789551,0.0234258752316236,-0.011704284697771,0.0,0.0,-0.5506001540599583,0.8561227148564108
-0.0180375091731548,1.2769811153411863,-0.0794162601232528,-0.5121961236000061,0.0209477134048938,-0.049567587673664,0.0,0.0,0.9702372764266654,-0.8206161349275588
-0.0187899582087993,1.2652651071548462,-0.0749066025018692,-0.5207036137580872,0.0206198189407587,-0.0065587321296334,0.0,0.0,-0.5686957534495569,-0.7006170485618808
-0.0195878036320209,1.2528406381607056,-0.0807389914989471,-0.5522066354751587,0.021562572568655,0.0188568271696567,0.0,0.0,0.0212924025131509,-0.6144793604293164
-0.0203411094844341,1.2400450706481934,-0.0778522342443466,-0.5687332153320312,0.0240486152470111,0.0497254654765129,0.0,0.0,-0.7363842263763161,0.9388067514511926
-0.0210089683532714,1.226546287536621,-0.0673111230134964,-0.5999575853347778,0.0245651993900537,0.0103328432887792,0.0,0.0,0.6655761851314774,-0.938590711601582
-0.0218552593141794,1.2131812572479248,-0.0871063396334648,-0.5940366983413696,0.0270116571336984,0.0489335618913173,0.0,0.0,-0.4260590755445845,-0.7065504730709193
-0.0227435119450092,1.1991046667099,-0.0926072522997856,-0.6257026195526123,0.0307557582855224,0.0748884826898574,0.0,0.0,0.0381960884950673,-0.791703477863016
-0.0236905105412006,1.184723138809204,-0.1002725586295127,-0.6393035650253296,0.036267377436161,0.1102423891425132,0.0,0.0,0.9311311022791102,-0.992685207010718
-0.024565314874053,1.1705844402313232,-0.095517985522747,-0.6285961270332336,0.0442200563848018,0.1590676605701446,0.0,0.0,0.7489072926116347,-0.6377005980287931
-0.025418471544981,1.156221628189087,-0.0950165390968322,-0.6386595964431763,0.0538220144808292,0.1920564770698547,0.0,0.0,0.6804810253165441,0.6976210432318496
-0.0264006610959768,1.1421188116073608,-0.1063507050275802,-0.6270955801010132,0.0618745051324367,0.1610641777515411,0.0,0.0,-0.1542713335659933,-0.7483261240296559
-0.0274452213197946,1.127277970314026,-0.1146409660577774,-0.6600490808486938,0.0719567015767097,0.2016437798738479,0.0,0.0,0.8649727961065679,-0.8892810082388669
-0.0286020282655954,1.1129488945007324,-0.1278392970561981,-0.6374712586402893,0.0839937031269073,0.2407397478818893,0.0,0.0,-0.0845233175497703,0.8660547246801652
-0.0296916011720895,1.0979225635528564,-0.119915522634983,-0.6684952974319458,0.094850480556488,0.2171355783939361,0.0,0.0,-0.8382308299964216,-0.6149665966643232
-0.0308241844177246,1.0821795463562012,-0.1258728206157684,-0.7005366086959839,0.1073669865727424,0.2503298819065094,0.0,0.0,0.2593046096350497,0.9701150894865194
-0.0319202430546283,1.0662834644317627,-0.1204150170087814,-0.7073093056678772,0.1181096285581588,0.2148527652025222,0.0,0.0,-0.8206108064695092,-0.6290483945200027
-0.0330440513789653,1.0496726036071775,-0.1245731487870216,-0.7392686009407043,0.1302281469106674,0.2423706948757171,0.0,0.0,0.7397386426703212,-0.7388173329663945
-0.0343514457345008,1.033002257347107,-0.1443479061126709,-0.7421470284461975,0.1437943130731582,0.2713235020637512,0.0,0.0,0.9530812230971653,0.9446702331096042
-0.0358032211661338,1.0170276165008545,-0.1568333953619003,-0.7111504077911377,0.1554283648729324,0.2326811105012893,0.0,0.0,-0.520441763017383,-0.6343176707913301
-0.0372818000614643,1.0003215074539185,-0.1610467135906219,-0.7439212799072266,0.1686186045408249,0.2638050019741058,0.0,0.0,0.5326633852987688,-0.7269325481470965
-0.0388686172664165,0.9837548732757568,-0.1734778732061386,-0.7380408644676208,0.1834389716386795,0.296407401561737,0.0,0.0,0.8605663845068914,-0.967121554628808
-0.0406325347721576,0.9677254557609558,-0.1932330429553985,-0.714593768119812,0.2003698945045471,0.3386183381080627,0.0,0.0,0.6937948122836428,0.9910758952678071
-0.0424072258174419,0.9516799449920654,-0.1923801004886627,-0.7152207493782043,0.215408906340599,0.3007802069187164,0.0,0.0,0.3966107080963632,-0.9331848671687032
-0.0443196296691894,0.9358610510826112,-0.2081015557050705,-0.7056086659431458,0.2324787676334381,0.3413971066474914,0.0,0.0,0.7755736640457771,-0.8226906039324009
-0.0465113632380962,0.9206238389015198,-0.2376144677400589,-0.6802347302436829,0.2512349188327789,0.3751227557659149,0.0,0.0,0.7526583927847583,-0.7334821401513616
-0.0488460548222065,0.9056050181388856,-0.2534712851047516,-0.6710474491119385,0.2716575264930725,0.4084525108337402,0.0,0.0,-0.0124491457755147,0.7900559024458758
-0.0510886199772357,0.889903724193573,-0.2429554015398025,-0.701429009437561,0.2908660769462585,0.3841707706451416,0.0,0.0,0.0552958250045776,0.9470316171646118
-0.0532182678580284,0.8740429282188416,-0.2297641485929489,-0.7083778977394104,0.3082255125045776,0.3471889197826385,0.0,0.0,0.4089686870574951,0.9910306930541992
-0.0552117340266704,0.8579215407371521,-0.2142902612686157,-0.7197542786598206,0.3237311840057373,0.3101131319999695,0.0,0.0,-0.0328246355056762,0.8867902755737305
-0.057075597345829,0.8411250114440918,-0.1993100941181183,-0.7494612336158752,0.3372183442115783,0.2697436511516571,0.0,0.0,0.5941367149353027,0.9734058380126952
-0.0589454658329486,0.8240229487419128,-0.197997435927391,-0.7627061605453491,0.3487611413002014,0.2308556735515594,0.0,0.0,0.3988640308380127,0.9250888824462892
-0.060741901397705,0.8066577315330505,-0.1889277398586273,-0.7740735411643982,0.3585272133350372,0.1953213810920715,0.0,0.0,0.5931706428527832,0.9552178382873536
-0.0624954216182231,0.7892535328865051,-0.1828816533088684,-0.7754261493682861,0.3664768934249878,0.1589943468570709,0.0,0.0,0.3738957643508911,0.9988036155700684
-0.0644647628068924,0.7720999717712402,-0.2024921178817749,-0.7638173699378967,0.3723679184913635,0.1178207546472549,0.0,0.0,0.1820547580718994,0.9955885410308838
-0.0666073784232139,0.7550092339515686,-0.2179331332445144,-0.7605491876602173,0.3762598037719726,0.0778375789523124,0.0,0.0,0.2304222583770752,0.9990191459655762
-0.0687645897269249,0.7377623915672302,-0.2174846678972244,-0.7669904232025146,0.3781366348266601,0.0375369675457477,0.0,0.0,-0.2178210020065307,0.9997754096984864
-0.0707606300711631,0.7198542952537537,-0.1990063488483429,-0.7957602143287659,0.3774938583374023,-0.0128557132557034,0.0,0.0,-0.1856372356414795,0.9999961853027344
-0.0726193413138389,0.7012764811515808,-0.1835253089666366,-0.8250619173049927,0.3750008642673492,-0.0498601011931896,0.0,0.0,0.1426329612731933,0.9983131885528564
-0.0743574127554893,0.6825001835823059,-0.1695019304752349,-0.8333824872970581,0.3704472482204437,-0.0910725742578506,0.0,0.0,0.4748600721359253,0.9990363121032716
-0.0762016326189041,0.6640576124191284,-0.1781648695468902,-0.8180593848228455,0.3638309836387634,-0.1323251277208328,0.0,0.0,0.6093153953552246,0.9998283386230468
-0.0779067054390907,0.6456928253173828,-0.162446990609169,-0.8141922354698181,0.3553194999694824,-0.1702291071414947,0.0,0.0,0.6516768932342529,0.9952921867370604
-0.0797204971313476,0.6272566914558411,-0.1712162345647812,-0.8169065117835999,0.3446352481842041,-0.2136849611997604,0.0,0.0,0.2860817909240722,0.9974629878997804
-0.0815078765153884,0.6090744137763977,-0.1665513068437576,-0.8052351474761963,0.331888884305954,-0.2549280524253845,0.0,0.0,0.355301022529602,0.998655080795288
-0.0831918716430664,0.5910703539848328,-0.1542305052280426,-0.7969964146614075,0.3171144723892212,-0.2954879701137543,0.0,0.0,0.3240667581558227,0.9989086389541626
-0.0848552733659744,0.5733733773231506,-0.1500763297080993,-0.7830607295036316,0.3002682626247406,-0.33692467212677,0.0,0.0,-0.3000239729881286,0.999764919281006
-0.0863648429512977,0.5550040006637573,-0.1328315436840057,-0.8127858638763428,0.2815789878368377,-0.37378591299057,0.0,0.0,0.2924561500549316,0.9992995262145996
-0.0877411812543869,0.5363855957984924,-0.1173758059740066,-0.8237134218215942,0.260816216468811,-0.4152553677558899,0.0,0.0,-0.0280991196632385,0.994816780090332
-0.0889618843793869,0.5170880556106567,-0.0999776795506477,-0.8538941740989685,0.2382943928241729,-0.450436532497406,0.0,0.0,0.9684721231460572,0.9691663980484008
-0.0900002494454383,0.4980627596378326,-0.079860933125019,-0.8418728113174438,0.2140125781297683,-0.4856363832950592,0.0,0.0,0.5634753704071045,0.4185391664505005
-0.0910431891679763,0.4791869521141052,-0.0802009329199791,-0.8356155753135681,0.1897388696670532,-0.4854746758937835,0.0,0.0,0.9829856157302856,0.1003367900848388
-0.0920690521597862,0.460314929485321,-0.0783211216330528,-0.8358360528945923,0.1654044389724731,-0.4866891503334045,0.0,0.0,0.9420783519744872,0.164258599281311
-0.0932526588439941,0.4417274296283722,-0.0931983217597007,-0.8235070705413818,0.1402839571237564,-0.5024098753929138,0.0,0.0,0.983346462249756,0.2213785648345947
-0.0944523811340332,0.4239642024040222,-0.0947273075580596,-0.7872957587242126,0.1151611804962158,-0.5024557709693909,0.0,0.0,0.5212759971618652,0.4411371946334839
-0.095504380762577,0.4059080779552459,-0.0801111012697219,-0.8007476925849915,0.09025838971138,-0.4980563223361969,0.0,0.0,0.5775501728057861,-0.777647078037262
-0.0965581908822059,0.3883665800094604,-0.0817058682441711,-0.7783592343330383,0.0668145343661308,-0.4688772559165954,0.0,0.0,0.5630640983581543,-0.7936327457427979
-0.0976964011788368,0.3707673549652099,-0.0914010480046272,-0.7813377976417542,0.0446413569152355,-0.4434631466865539,0.0,0.0,0.6179014444351196,-0.4926223754882812
-0.0988462418317794,0.3534471392631531,-0.0919511243700981,-0.7692570090293884,0.0218997355550527,-0.4548328518867492,0.0,0.0,0.7826125621795654,-0.4592565298080444
-0.0998682975769043,0.336426705121994,-0.0791606605052948,-0.7562834620475769,-0.0008477514493279,-0.4549498558044433,0.0,0.0,0.4798301458358764,-0.7852741479873657
-0.100969985127449,0.3198414146900177,-0.0883413106203079,-0.7372801899909973,-0.0223992019891738,-0.4310292303562164,0.0,0.0,0.7685396671295166,-0.8076320886611938
-0.1019236594438552,0.3034729361534118,-0.0751701965928077,-0.7279118299484253,-0.0423487648367881,-0.3989912271499634,0.0,0.0,0.8702476024627686,-0.4641740322113037
-0.1027839630842208,0.2870606184005737,-0.0654932633042335,-0.7301406264305115,-0.0626528561115264,-0.4060818552970886,0.0,0.0,0.9849002361297609,-0.7664375901222229
-0.1034786254167556,0.2705123126506805,-0.050509862601757,-0.7363799214363098,-0.0814109668135643,-0.3751620650291443,0.0,0.0,0.9944767951965332,-0.920483648777008
-0.1041401848196983,0.2538707256317138,-0.0488058552145957,-0.7406575679779053,-0.0986070185899734,-0.3439210653305053,0.0,0.0,0.9971590042114258,-0.8817892670631409
-0.1046716719865799,0.2379690259695053,-0.0373837351799011,-0.7078591585159302,-0.1142583042383194,-0.3130258917808532,0.0,0.0,0.9861078262329102,-0.9316509962081908
-0.1049421280622482,0.2228204160928726,-0.0131822871044278,-0.6743918657302856,-0.1280471831560135,-0.2757773399353027,0.0,0.0,0.9786279201507568,-0.9053934812545776
-0.1051873192191124,0.2084664404392242,-0.0120024383068084,-0.6390735507011414,-0.1405108869075775,-0.249274343252182,0.0,0.0,0.9377849102020264,-0.9662731885910034
-0.105503462255001,0.1940180659294128,-0.0205614231526851,-0.6432303786277771,-0.1515415608882904,-0.2206131666898727,0.0,0.0,0.9844512939453124,-0.9095138907432556
-0.1055755615234375,0.1802764236927032,0.0021150107495486,-0.6117146015167236,-0.1608564555644989,-0.1862979233264923,0.0,0.0,0.9955607652664183,-0.9025974869728088
-0.1056205779314041,0.166899636387825,0.0034830314107239,-0.5954058766365051,-0.168840155005455,-0.1596739888191223,0.0,0.0,0.9959656000137328,-0.9683144688606262
-0.1055556312203407,0.1540615111589431,0.0128666935488581,-0.5713237524032593,-0.1752283424139022,-0.1277636587619781,0.0,0.0,0.9948911666870116,-0.957599401473999
-0.1053133010864257,0.1417849361896515,0.0289306379854679,-0.5461879372596741,-0.1799426972866058,-0.0942871421575546,0.0,0.0,0.9985784292221068,-0.9854628443717957
-0.104786492884159,0.1298222094774246,0.0554246604442596,-0.5320097208023071,-0.1827019602060318,-0.0551853999495506,0.0,0.0,0.9993734359741212,-0.9852467775344848
-0.1041105240583419,0.117759071290493,0.0685567408800125,-0.5362599492073059,-0.1836618334054947,-0.0191974490880966,0.0,0.0,0.9999430179595948,0.2527027130126953
-0.1031141281127929,0.1056693196296691,0.1002941504120826,-0.5374051332473755,-0.184330403804779,-0.0133710084483027,0.0,0.0,0.9997608661651612,-0.2767201662063598
-0.1016949638724327,0.0938351973891258,0.1419916003942489,-0.525969386100769,-0.1844056248664856,-0.0015045886393636,0.0,0.0,0.999934196472168,-0.0644314885139465
-0.0999011024832725,0.0819439962506294,0.1789223998785019,-0.5284368991851807,-0.1839327812194824,0.0094568720087409,0.0,0.0,0.999293327331543,0.3588365316390991
-0.097826100885868,0.0706807971000671,0.2072927951812744,-0.5005608201026917,-0.1837260127067566,0.0041350107640028,0.0,0.0,0.9922270774841307,-0.7594285607337952
-0.0954809188842773,0.060063038021326,0.2329345196485519,-0.4717068672180176,-0.1821338832378387,0.0318428799510002,0.0,0.0,0.962266206741333,-0.7820131778717041
-0.092772863805294,0.049875434488058,0.2675340473651886,-0.4523814916610718,-0.1788492947816848,0.0656918957829475,0.0,0.0,0.9970695972442628,-0.5856463313102722
-0.0897914916276931,0.0395276173949241,0.2935587167739868,-0.4593587219715118,-0.1742662042379379,0.0916616767644882,0.0,0.0,0.9962763786315918,-0.8901411890983582
-0.0867199897766113,0.0294084642082452,0.3011782765388489,-0.4490513205528259,-0.1682789474725723,0.1197452694177627,0.0,0.0,0.9906649589538574,-0.1264404654502868
-0.0832520499825477,0.0200868938118219,0.3405722975730896,-0.4136033356189728,-0.162061721086502,0.1243448853492736,0.0,0.0,0.9968409538269044,-0.9512956738471984
-0.0796566978096962,0.011095056310296,0.3517176806926727,-0.3988080620765686,-0.154239222407341,0.1564497351646423,1.0,0.0,0.9976797103881836,-0.6611067056655884
-0.076136015355587,0.0038453673478215,0.3279201090335846,-0.3211351931095123,-0.1271327435970306,0.5462466478347778,0.0,0.0,0.9821784496307372,-0.8628355264663696
-0.0721631050109863,-0.0022164965048432,0.3485376238822937,-0.2660035192966461,-0.0786900669336319,0.9689325094223022,0.0,0.0,0.9309628009796144,-0.5604689121246338
-0.0680275931954383,-0.0072091245092451,0.3518006503582001,-0.2198205888271331,-0.0175092052668333,1.2237979173660278,0.0,1.0,0.9993612766265868,0.1727011203765869
-0.0641535744071006,-0.0108032850548625,0.3406197428703308,-0.1599957048892974,0.027684174478054,0.9026203155517578,0.0,1.0,0.9878156185150146,0.8527929782867432
-0.060492418706417,-0.0135310553014278,0.3385573029518127,-0.121985912322998,0.0549102835357189,0.5445209741592407,0.0,1.0,0.9710482358932496,0.3114290237426758
-0.0572098717093467,-0.0151687050238251,0.3149655163288116,-0.0733320489525795,0.0680579170584678,0.2629644572734833,0.0,1.0,-0.9087050557136536,-0.3477975130081177
-0.0540833473205566,-0.0166452080011367,0.306923508644104,-0.0658970922231674,0.0737492069602012,0.113849937915802,0.0,1.0,-0.5976928472518921,-0.0988006591796875
-0.0510720238089561,-0.0178002379834651,0.2972753047943115,-0.0515334978699684,0.0775816068053245,0.0766705796122551,0.0,1.0,-0.8065207004547119,-0.4105708003044128
-0.0481643676757812,-0.0185922402888536,0.287189781665802,-0.0353901945054531,0.0811360254883766,0.0710892155766487,0.0,1.0,-0.87229984998703,-0.1253383755683899
-0.0453595146536827,-0.0190247911959886,0.2771551311016083,-0.019407270476222,0.0844293683767318,0.0658672899007797,0.0,1.0,-0.8103072643280029,-0.5224285125732422
-0.0426979064941406,-0.0191005729138851,0.2618478238582611,-0.0036168349906802,0.0886981934309005,0.0853771418333053,0.0,1.0,-0.9315765500068665,-0.4264290332794189
-0.0401389114558696,-0.018819585442543,0.2518371939659118,0.0122415218502283,0.0927231162786483,0.0804990753531456,0.0,1.0,-0.9131232500076294,0.1822519302368164
-0.0376880653202533,-0.0182039998471736,0.2420388162136078,0.0271672196686267,0.0957448855042457,0.0604331716895103,0.0,1.0,-0.7775139808654785,-0.1597816944122314
-0.0353522300720214,-0.017280139029026,0.2324966937303543,0.0409919247031211,0.0968213975429534,0.02152706310153,0.0,1.0,-0.8960282802581787,0.0131866931915283
-0.0331206321716308,-0.016106154769659,0.2234791815280914,0.0521995574235916,0.0964951664209365,-0.0065265796147286,0.0,1.0,-0.8474103212356567,0.2096000909805297
-0.030975054949522,-0.0147686628624796,0.2152374684810638,0.0594895109534263,0.0958234146237373,-0.0134374229237437,0.0,1.0,-0.627008318901062,0.3460726737976074
-0.0288995746523141,-0.0133681558072566,0.2079062163829803,0.0622724555432796,0.0954676792025566,-0.0071182996034622,0.0,1.0,-0.858066201210022,-0.3194007873535156
-0.0269248001277446,-0.0123488446697592,0.2047618627548217,0.0457545593380928,0.0882340595126152,-0.144678920507431,0.0,1.0,-0.6224851608276367,-0.3400035500526428
-0.0249759666621685,-0.0115899946540594,0.2003827095031738,0.0340429656207561,0.0827879160642623,-0.1089257821440696,0.0,1.0,-0.799242377281189,-0.2025789618492126
-0.0230491645634174,-0.0111132049933075,0.1961985379457473,0.0213811378926038,0.0793001726269722,-0.0697554573416709,0.0,1.0,-0.7290815114974976,-0.1984140276908874
-0.0211527831852436,-0.0108660841360688,0.1915396004915237,0.0110815679654479,0.077417604625225,-0.037649568170309,0.0,1.0,-0.8603335022926331,-0.1264567971229553
-0.0193022731691598,-0.0107528949156403,0.1860141456127166,0.0050781685858964,0.0764743685722351,-0.01886179856956,0.0,1.0,-0.8788237571716309,-0.0671722888946533
-0.0175145156681537,-0.0106686381623148,0.1795379519462585,0.003781950334087,0.0757340192794799,-0.0148033900186419,0.0,1.0,-0.772079348564148,-0.1188822388648986
-0.0158033370971679,-0.0105270175263285,0.1722799241542816,0.0063514108769595,0.0745899304747581,-0.0228788945823907,0.0,1.0,-0.8579822778701782,-0.2794516682624817
