x_pos,y_pos,x_vel,y_vel,angle,ang_vel,leg_1,leg_2,main_booster,lat_booster
-0.0016579627990722,1.4030659198760986,-0.167179524898529,-0.3490689694881439,0.0012366338633,0.0243548657745122,0.0,0.0,0.094020046336583,-0.8309463950376752
-0.0034759521950036,1.395130634307861,-0.1840658485889434,-0.3526797890663147,0.0034856824204325,0.0449858978390693,0.0,0.0,-0.9242484257172152,0.7151469458184158
-0.0053582191467285,1.3866314888000488,-0.1881279051303863,-0.377736359834671,0.0033853307832032,-0.0020075242500752,0.0,0.0,-0.213752448824197,-0.901763148944743
-0.0074570653960108,1.377570629119873,-0.2113187760114669,-0.4027113318443298,0.0048016239888966,0.0283285230398178,0.0,0.0,-0.142156685339154,0.631899902215988
-0.009626006707549,1.3679537773132324,-0.2161642014980316,-0.4274174869060516,0.0040794955566525,-0.0144440336152911,0.0,0.0,-0.538104839101025,-0.9104182432215098
-0.0119791030883789,1.3577766418457031,-0.23536217212677,-0.4523129463195801,0.0041319439187645,0.0010491472203284,0.0,0.0,0.1326079849953956,-0.9969426572720116
-0.014557933434844,1.3476343154907229,-0.2593050301074981,-0.4507711827754974,0.0055385283194482,0.0281343720853328,0.0,0.0,-0.1280271655085483,-0.8108221529278049
-0.0173102375119924,1.3369355201721191,-0.2772526443004608,-0.4755123555660248,0.0075346427038311,0.0399262011051178,0.0,0.0,-0.8812588372222596,-0.6028752526066106
-0.020234489813447,1.3256843090057373,-0.2950592637062073,-0.5000684857368469,0.0101308664306998,0.0519291870296001,0.0,0.0,-0.26024419386884,-0.9024254226370234
-0.0233515743166208,1.3138792514801023,-0.3155103325843811,-0.5246973633766174,0.013899584300816,0.0753815099596977,0.0,0.0,-0.1646539131307203,0.7893909685829041
-0.0265166275203228,1.3015178442001345,-0.3178851306438446,-0.5494089126586914,0.0152631551027297,0.0272737983614206,0.0,0.0,-0.3022936199633728,-0.8996819677577931
-0.029860783368349,1.2885946035385132,-0.3367676734924316,-0.5743897557258606,0.0175860952585935,0.0464630648493766,0.0,0.0,0.4407783517586103,-0.9902636104633712
-0.0332772247493267,1.276034235954285,-0.3454661071300506,-0.5582855343818665,0.0213680285960435,0.0756453424692154,0.0,0.0,0.3352047530493196,0.9107280975799013
-0.0366747863590717,1.2633414268493652,-0.3411827683448791,-0.5641401410102844,0.0227843299508094,0.0283284597098827,0.0,0.0,0.1768982105989471,0.6883849182251278
-0.0400259010493755,1.250983715057373,-0.334697276353836,-0.5492289066314697,0.0223742146044969,-0.0082028312608599,0.0,0.0,0.1544884311263559,0.9194060317605544
-0.0433232299983501,1.2383735179901123,-0.3268846571445465,-0.560417115688324,0.0195543244481086,-0.0564030818641185,0.0,0.0,-0.7784996917479341,0.981692063024506
-0.0466258041560649,1.2252192497253418,-0.3243640959262848,-0.5845714211463928,0.0137256905436515,-0.1165830269455909,0.0,0.0,0.9925780161954056,0.7654746102299297
-0.0497841835021972,1.2121833562850952,-0.3082328736782074,-0.579321026802063,0.0062106563709676,-0.1503141969442367,0.0,0.0,-0.0725674287200475,-0.8801666265007256
-0.0530926696956157,1.198597431182861,-0.3241077065467834,-0.6038100123405457,-0.0004533744940999,-0.1332925856113433,0.0,0.0,-0.9447161077795628,0.7332955271130464
-0.0564381591975688,1.1844532489776611,-0.3259076774120331,-0.6286475658416748,-0.0089940782636404,-0.1708295792341232,0.0,0.0,-0.6990755180881607,-0.9176088839885408
-0.059922982007265,1.1697592735290527,-0.3406692147254944,-0.6531320214271545,-0.0167117249220609,-0.1543669998645782,0.0,0.0,0.5444006089666085,0.8993967200534649
-0.0633943527936935,1.155121088027954,-0.3369194865226745,-0.6507254838943481,-0.026816688477993,-0.2021177560091018,0.0,0.0,-0.2690409410153531,0.6314673132295829
-0.0668763145804405,1.139923095703125,-0.3358184397220611,-0.6757336854934692,-0.0390618667006492,-0.2449252605438232,0.0,0.0,-0.1745254315177336,-0.8290481446999698
-0.0704818740487098,1.124163031578064,-0.3490271270275116,-0.7007854580879211,-0.050466351211071,-0.2281100302934646,0.0,0.0,-0.0003004703719098,0.8553311455026762
-0.0740948691964149,1.107845425605774,-0.3478458523750305,-0.7257318496704102,-0.0637881979346275,-0.2664604485034942,0.0,0.0,0.5521355404813544,0.9123980345891428
-0.07780122756958,1.091954231262207,-0.3545287251472473,-0.7070366740226746,-0.0797364115715026,-0.3189642429351806,0.0,0.0,0.4655141093086854,-0.756223539022197
-0.081558421254158,1.0764834880828855,-0.3605168759822845,-0.6884678602218628,-0.0947903469204902,-0.3010789453983307,0.0,0.0,-0.7808761015150303,0.8920074177885977
-0.0852992981672287,1.060459852218628,-0.3568978905677795,-0.7133364081382751,-0.111853614449501,-0.3412656188011169,0.0,0.0,-0.3695442959945587,-0.8393130839696811
-0.0891522392630577,1.04390287399292,-0.3695615828037262,-0.7371227741241455,-0.1274974644184112,-0.3128770291805267,0.0,0.0,0.8444449281112463,-0.9871077397885766
-0.0930647850036621,1.0276174545288086,-0.376863569021225,-0.7250871658325195,-0.1418323814868927,-0.2866981327533722,0.0,0.0,0.0452493169145811,-0.8266153137987927
-0.0969694107770919,1.0115928649902344,-0.3771404027938843,-0.7135247588157654,-0.1551275253295898,-0.2659028172492981,0.0,0.0,-0.6621644079000328,-0.6547202677619772
-0.1009425148367881,0.9950233101844788,-0.3848722577095032,-0.7377758622169495,-0.1675654947757721,-0.2487594336271286,0.0,0.0,0.3028904298235737,0.693939641368356
-0.10482969135046,0.9788448214530944,-0.3742048144340515,-0.7207457423210144,-0.1821192055940628,-0.2910740971565246,0.0,0.0,-0.579005350365964,-0.8223082029893471
-0.1087839156389236,0.9621241092681884,-0.3821296989917755,-0.7448257207870483,-0.1954707652330398,-0.2670307755470276,0.0,0.0,0.0374209829434464,-0.9362993609190376
-0.1127098053693771,0.9454482197761536,-0.3805906176567077,-0.7427802681922913,-0.2075585722923278,-0.2417558878660202,0.0,0.0,-0.3796977781277626,-0.9961317396053256
-0.1166898757219314,0.928248167037964,-0.387367308139801,-0.7659768462181091,-0.218309536576271,-0.2150191515684127,0.0,0.0,0.5476967965214443,0.9910914323024856
-0.1205027550458908,0.9110967516899108,-0.3680742681026459,-0.7642958760261536,-0.2316934615373611,-0.2676782011985779,0.0,0.0,-0.741076861412409,-0.8206844342637658
-0.1243400573730468,0.8934179544448853,-0.3714964687824249,-0.7876967191696167,-0.2441239207983017,-0.2486092150211334,0.0,0.0,-0.3398074238782416,-0.8979113700360325
-0.1282085478305816,0.8752214312553406,-0.3759704232215881,-0.810576856136322,-0.2552099525928497,-0.2217203080654144,0.0,0.0,0.6528564244860684,-0.7835516246942196
-0.131906121969223,0.8573653101921082,-0.3599351048469543,-0.7953494191169739,-0.2652425467967987,-0.2006520330905914,0.0,0.0,-0.4297081692760525,-0.8034741367643456
-0.1356213539838791,0.8389898538589478,-0.3630291819572449,-0.8182545900344849,-0.2739335596561432,-0.1738201528787613,0.0,0.0,0.9836807250976562,0.8186800479888916
-0.1388900727033615,0.8208731412887573,-0.3165742456912994,-0.8071438670158386,-0.2845104932785034,-0.2115389555692672,0.0,0.0,0.9658644199371338,0.2620143890380859
-0.1418781280517578,0.802690327167511,-0.2885115146636963,-0.8101673126220703,-0.2951115071773529,-0.2120202779769897,0.0,0.0,0.988201379776001,-0.543502151966095
-0.1445307731628418,0.7848281264305115,-0.2559037208557129,-0.7958114147186279,-0.3047845065593719,-0.1934591233730316,0.0,0.0,0.975605010986328,-0.5747570395469666
-0.1470960676670074,0.7669515609741211,-0.247659370303154,-0.7963975071907043,-0.3139725029468536,-0.1837600022554397,0.0,0.0,0.991779923439026,-0.9202078580856324
-0.1494694650173187,0.7490909099578857,-0.2299046069383621,-0.7954363226890564,-0.3216981291770935,-0.1545127928256988,0.0,0.0,0.9862130880355836,-0.8316411972045898
-0.151575282216072,0.7314279675483704,-0.2044687271118164,-0.7863922715187073,-0.3280636668205261,-0.1273109316825866,0.0,0.0,0.9823935031890868,-0.9798861742019652
-0.1534814834594726,0.7147489190101624,-0.1857446730136871,-0.7424005270004272,-0.3331468403339386,-0.1016636937856674,0.0,0.0,0.939417600631714,-0.996932566165924
-0.1552275717258453,0.6989569067955017,-0.1709996163845062,-0.7027032375335693,-0.336913913488388,-0.0753417462110519,0.0,0.0,0.9109113216400146,-0.989224374294281
-0.1567819565534591,0.6834908127784729,-0.1533158123493194,-0.6878820657730103,-0.3391415476799011,-0.0445525050163269,0.0,0.0,0.9522619247436525,-0.9441718459129332
-0.157905101776123,0.6683661341667175,-0.111947014927864,-0.6722968816757202,-0.3395290970802307,-0.0077512562274932,0.0,0.0,0.791607141494751,-0.8582465648651123
-0.1587858200073242,0.6538882255554199,-0.0889043658971786,-0.64327073097229,-0.3386653661727905,0.0172746088355779,0.0,0.0,0.820237398147583,-0.9463269710540771
-0.1593423783779144,0.6395118832588196,-0.0581712312996387,-0.6383585333824158,-0.3360301554203033,0.0527043715119361,0.0,0.0,0.980233669281006,-0.9680456519126892
-0.159539982676506,0.6259766817092896,-0.023874020203948,-0.6006127595901489,-0.3317345380783081,0.0859124287962913,0.0,0.0,0.1212519407272338,-0.9337564706802368
-0.1594752371311187,0.612328290939331,0.0008326895767822,-0.6053074598312378,-0.3258468210697174,0.1177540570497512,0.0,0.0,-0.0435268878936767,-0.8024790287017822
-0.1593660414218902,0.5981552004814148,0.0037110145203769,-0.6283136606216431,-0.3183422684669494,0.1500903069972992,0.0,0.0,0.1371381282806396,-0.9559423923492432
-0.1589652001857757,0.5842147469520569,0.0312118083238601,-0.6176521182060242,-0.3091305792331695,0.1842335164546966,0.0,0.0,-0.8957968354225159,-0.7758374214172363
-0.1584894210100174,0.5697425007820129,0.0376949198544025,-0.6411428451538086,-0.2989127337932586,0.2043563574552536,0.0,0.0,-0.552941620349884,-0.3669743537902832
-0.1578927934169769,0.5547139048576355,0.0499372892081737,-0.6659727692604065,-0.2888778150081634,0.2006980925798416,0.0,0.0,0.0604636669158935,-0.519394040107727
-0.1571197509765625,0.5398989319801331,0.0667465701699256,-0.6563876271247864,-0.2780259847640991,0.2170370817184448,0.0,0.0,-0.1104697585105896,-0.2478505969047546
-0.1562223434448242,0.5245276093482971,0.0792737677693367,-0.6812167763710022,-0.2672905325889587,0.2147090882062912,0.0,0.0,0.4747166633605957,-0.1060741543769836
-0.1551198065280914,0.5095407366752625,0.1002352982759475,-0.6642849445343018,-0.2570518851280212,0.2047728300094604,0.0,0.0,0.3073145151138305,-0.6102287769317627
-0.153728574514389,0.494566798210144,0.1277282536029815,-0.663554310798645,-0.2454307526350021,0.2324226796627044,0.0,0.0,-0.1461801528930664,-0.8107823133468628
-0.1522677391767501,0.4790601432323456,0.1331075131893158,-0.6870771646499634,-0.2322513312101364,0.2635884284973144,0.0,0.0,0.3499320745468139,0.1200399398803711
-0.1505951881408691,0.4634731411933899,0.1541989743709564,-0.6907525658607483,-0.2190256714820861,0.2645136415958404,0.0,0.0,0.4320350885391235,-0.3484163880348205
-0.148784726858139,0.4481148719787597,0.168392613530159,-0.6807652115821838,-0.2062474489212036,0.2555646002292633,0.0,0.0,0.2109545469284057,-0.5034381151199341
-0.1467347145080566,0.4331338405609131,0.1911904364824295,-0.663953423500061,-0.1923357397317886,0.2782343924045563,0.0,0.0,-0.1452852487564087,-0.6176707148551941
-0.1445936262607574,0.4176017940044403,0.1990880519151687,-0.6884313225746155,-0.1772471964359283,0.3017712533473968,0.0,0.0,0.2668064832687378,0.0661498308181762
-0.1421824395656585,0.4024751186370849,0.2258313149213791,-0.6705425977706909,-0.1619224995374679,0.3064937591552734,0.0,0.0,0.1308029890060424,-0.7796788215637207
-0.1397178620100021,0.3873021900653839,0.2294374704360962,-0.6725873351097107,-0.1449241191148758,0.3399673104286194,0.0,0.0,-0.3092435598373413,0.4323792457580566
-0.1371172964572906,0.3715743720531463,0.2428027838468551,-0.697425901889801,-0.1277301460504531,0.343879759311676,0.0,0.0,0.7599000930786133,0.618432879447937
-0.134211927652359,0.3562628924846649,0.2741738855838775,-0.6791910529136658,-0.1114607229828834,0.3253884613513946,0.0,0.0,0.6341862678527832,-0.6125733256340027
-0.1312607824802398,0.3416795432567596,0.2775686085224151,-0.6469320058822632,-0.0940482169389724,0.3482500910758972,0.0,0.0,0.5162613391876221,-0.5794625878334045
-0.1280947625637054,0.3273295164108276,0.2974139451980591,-0.6366824507713318,-0.075040303170681,0.3801585435867309,0.0,0.0,0.4979890584945678,-0.4831291437149048
-0.1247942000627517,0.3129595220088959,0.3107002675533294,-0.637808620929718,-0.0558823943138122,0.3831578493118286,0.0,0.0,0.754857063293457,-0.4357073307037353
-0.1212631240487098,0.2985470294952392,0.3330687880516052,-0.6399286389350891,-0.0360783152282238,0.3960815668106079,0.0,0.0,0.9055651426315308,-0.3609898090362549
-0.1176148429512977,0.2841700315475464,0.3446051478385925,-0.6386111378669739,-0.0161113161593675,0.3993399739265442,0.0,0.0,0.9391132593154908,-0.675503671169281
-0.1138756722211837,0.2706442773342132,0.3520003855228424,-0.6010499596595764,0.0055223302915692,0.4326731264591217,0.0,0.0,0.930619478225708,-0.6517165899276733
-0.1099528297781944,0.2580037713050842,0.3684239685535431,-0.562053918838501,0.0290788169950246,0.4711297452449798,0.0,0.0,0.9397971630096436,-0.4798207283020019
-0.1060491576790809,0.2462455332279205,0.3667513430118561,-0.5232125520706177,0.0524083264172077,0.4665902256965637,0.0,0.0,0.8811099529266357,0.0257285833358764
-0.102171704173088,0.2344897389411926,0.3644416630268097,-0.5234595537185669,0.0754536986351013,0.4609076380729675,0.0,0.0,0.9024807214736938,-0.0330903530120849
-0.0981758087873458,0.2235499024391174,0.3757023215293884,-0.4875882267951965,0.0991251021623611,0.473428338766098,0.0,0.0,0.6593648195266724,0.2082059383392334
-0.09419746696949,0.212907388806343,0.3740513026714325,-0.474749356508255,0.1227497979998588,0.4724939465522766,0.0,0.0,0.6097625494003296,0.1747591495513916
-0.0902118682861328,0.2026879638433456,0.3746477961540222,-0.4563350975513458,0.1465634405612945,0.4762732088565826,0.0,0.0,0.7249231338500977,0.5242908000946045
-0.0861642807722091,0.1930105537176132,0.3815788030624389,-0.4325558245182037,0.1697374433279037,0.463479995727539,0.0,0.0,0.6893748044967651,0.2039717435836792
-0.081988051533699,0.1836851239204406,0.3936620056629181,-0.4173752963542938,0.1937814503908157,0.4808804392814636,0.0,0.0,0.8320059776306152,0.6005871295928955
-0.0776686668395996,0.1743847280740738,0.4087347090244293,-0.4165568649768829,0.2171647250652313,0.4676661491394043,0.0,0.0,0.7031357288360596,0.7171010971069336
-0.0731394737958908,0.165189042687416,0.4305644631385803,-0.4121434390544891,0.2398046851158142,0.4527992308139801,0.0,0.0,0.6931893825531006,0.2114179134368896
-0.0684617012739181,0.1563499718904495,0.4443989396095276,-0.3968366682529449,0.2636267840862274,0.4764420986175537,0.0,0.0,0.6939327716827393,0.3013406991958618
-0.0636102706193924,0.1476032584905624,0.46079221367836,-0.3933170437812805,0.288602352142334,0.4995113313198089,0.0,0.0,0.9132041931152344,0.6617980003356934
-0.0588232055306434,0.1395826637744903,0.4553678929805755,-0.3612732291221618,0.3127108216285705,0.4821694791316986,0.0,0.0,0.9215688705444336,0.5954406261444092
-0.0540864951908588,0.1323158890008926,0.4510980546474457,-0.328014075756073,0.3362114131450653,0.4700120091438293,0.0,0.0,0.8392667770385742,0.4917969703674316
-0.0493230819702148,0.1256203055381775,0.4528507590293884,-0.3032456934452057,0.3608662486076355,0.4930969178676605,0.0,0.0,0.7818876504898071,0.7197322845458984
-0.0443780906498432,0.1189558357000351,0.4718850553035736,-0.3020748198032379,0.3848260045051574,0.4791951775550842,0.0,0.0,0.8976494073867798,0.5227140188217163
-0.0395330414175987,0.1125413477420806,0.4627976417541504,-0.291124939918518,0.4080489575862884,0.4644591212272644,0.0,0.0,0.8563642501831055,0.2846570014953613
-0.0348449721932411,0.1069695800542831,0.4464106559753418,-0.2542797327041626,0.432241678237915,0.4838547110557556,0.0,0.0,0.6696349382400513,0.4762985706329345
-0.0302793495357036,0.1016182526946067,0.4340315461158752,-0.2449693977832794,0.4568602442741394,0.4923719763755798,0.0,0.0,0.3971489667892456,0.3784834146499634
-0.0259654037654399,0.0965548828244209,0.4090988636016845,-0.2325522750616073,0.4815316796302795,0.4934287667274475,0.0,0.0,-0.0148112773895263,0.6549496650695801
-0.021461009979248,0.0909870490431785,0.429335206747055,-0.2550040185451507,0.50516676902771,0.4727016985416412,0.0,0.0,0.5375008583068848,0.305867075920105
-0.0171990394592285,0.0857511609792709,0.4051049649715423,-0.2406824678182602,0.5291197299957275,0.4790596067905426,0.0,0.0,0.0536057949066162,0.7379027605056763
-0.0130434036254882,0.080587513744831,0.3956474363803863,-0.2374405711889267,0.552021324634552,0.4580324292182922,0.0,0.0,0.5889837741851807,0.8112616539001465
-0.0089679714292287,0.0755132734775543,0.3889489769935608,-0.233327180147171,0.5737135410308838,0.4338440001010895,0.0,0.0,0.701613187789917,0.867672324180603
-0.0051453588530421,0.070617139339447,0.3651780486106872,-0.2251124829053878,0.5939086675643921,0.4039023816585541,0.0,0.0,0.686975359916687,0.9300601482391356
-0.0015647888649255,0.0657506063580513,0.3425676822662353,-0.2233868688344955,0.6124574542045593,0.370975911617279,0.0,0.0,0.2097179889678955,0.9749693870544434
0.0019859313033521,0.0611274801194667,0.3410744667053222,-0.2121353298425674,0.629442036151886,0.3396911323070526,0.0,0.0,0.6853134632110596,0.941476345062256
0.0056960107758641,0.0582801923155784,0.3700048327445984,-0.127146691083908,0.6304166913032532,0.019057797268033,0.0,1.0,0.9912447929382324,0.9963626861572266
0.0088344570249319,0.0568699203431606,0.3292560279369354,-0.0557212010025978,0.6108627915382385,-0.3925755023956299,0.0,1.0,0.9780452251434326,-0.0919983386993408
0.0112712858244776,0.0563464984297752,0.2689008712768554,-0.0118683138862252,0.5806761384010315,-0.6038732528686523,0.0,1.0,0.944023370742798,-0.7550724744796753
0.0132642742246389,0.0566378943622112,0.2228824198246002,0.0229752026498317,0.5530367493629456,-0.5528324246406555,0.0,1.0,0.7757409811019897,-0.5312461853027344
0.0149796484038233,0.0572049468755722,0.193816989660263,0.0341354273259639,0.5273576378822327,-0.5136020183563232,0.0,1.0,0.598265528678894,-0.5327035188674927
0.0162506103515625,0.0582127422094345,0.1487479507923126,0.0529767461121082,0.502785861492157,-0.4914547502994537,0.0,0.0,-0.9997729659080504,-0.9824618697166444
0.0176052097231149,0.0586252324283123,0.1548787951469421,0.0252853296697139,0.4810326397418976,-0.4350646436214447,0.0,0.0,-0.9993556141853333,-0.9831637740135192
0.0190403945744037,0.0584373325109481,0.1610060036182403,-0.0023942764382809,0.4616420865058899,-0.3878110945224762,0.0,0.0,-0.9976911544799804,-0.9635680317878724
0.0205318443477153,0.0576391071081161,0.1640725433826446,-0.030617656186223,0.4452418386936188,-0.3280051350593567,0.0,0.0,-0.9938924312591552,-0.9762037992477416
0.0220783241093158,0.0562261193990707,0.1669019013643264,-0.0589590929448604,0.4318825900554657,-0.2671850323677063,0.0,0.0,-0.982673168182373,-0.970910906791687
0.0236912723630666,0.0542098134756088,0.1711651980876922,-0.0866220071911811,0.4211838245391845,-0.2139753848314285,0.0,0.0,-0.962233543395996,-0.9435527324676514
0.0253777503967285,0.0515943393111228,0.1762906461954116,-0.1139842271804809,0.4129300415515899,-0.1650756001472473,0.0,0.0,-0.9247941970825196,-0.8930214047431946
0.0271533019840717,0.0483837686479091,0.1833473294973373,-0.141017735004425,0.4067054986953735,-0.1244907602667808,0.0,0.0,-0.7854702472686768,-0.7786599397659302
0.0290176384150981,0.0445908419787883,0.1904399693012237,-0.1674257069826126,0.4023968875408172,-0.0861725658178329,0.0,0.0,-0.7117378115653992,-0.6432853937149048
0.0309717170894145,0.0402199849486351,0.1977117657661438,-0.1936099082231521,0.3999254703521728,-0.0494286380708217,0.0,1.0,0.995314359664917,0.9711734056472778
0.0329442024230957,0.0366143099963665,0.2095555067062378,-0.1572919338941574,0.3854115903377533,-0.2922981083393097,0.0,1.0,0.9776499271392822,0.2605483531951904
