x_pos,y_pos,x_vel,y_vel,angle,ang_vel,leg_1,leg_2,main_booster,lat_booster
-0.0015729904407635,1.4033911228179932,-0.1598788201808929,-0.3346270322799682,0.0023149710614234,0.0457058809697628,0.0,0.0,-0.0926207304000854,0.8588912487030029
-0.0031218528747558,1.3956477642059326,-0.1558170914649963,-0.3441480994224548,0.0032372924033552,0.0184489861130714,0.0,0.0,-0.6582906246185303,0.6996176242828369
-0.0046520233154296,1.3876657485961914,-0.1527453958988189,-0.3547561466693878,0.0029792455025017,-0.0051616779528558,0.0,0.0,-0.1791809797286987,0.483028769493103
-0.0062297820113599,1.3794502019882202,-0.1580360829830169,-0.3651364147663116,0.0032312481198459,0.0050408206880092,0.0,0.0,0.4997371435165405,0.9146732091903688
-0.0076522827148437,1.3718929290771484,-0.1413624286651611,-0.3358749151229858,0.0023571946658194,-0.0174826867878437,0.0,0.0,-0.2352069616317749,0.2920259237289428
-0.0091211320832371,1.364102125167847,-0.1465235501527786,-0.3462587296962738,0.0019944007508456,-0.0072566075250506,0.0,0.0,0.1484129428863525,0.6339569091796875
-0.0106043815612792,1.356680154800415,-0.1471662819385528,-0.3298650085926056,0.0008593022357672,-0.0227042604237794,0.0,0.0,-0.2280079126358032,0.7762165069580078
-0.0120563507080078,1.349027156829834,-0.1426223069429397,-0.3401406705379486,-0.0016813112888485,-0.0508169345557689,0.0,0.0,0.0156941413879394,-0.0694397687911987
-0.0135590555146336,1.3419121503829956,-0.1481818407773971,-0.3162172138690948,-0.0037451214157044,-0.0412802249193191,0.0,0.0,-0.1596729755401611,-0.1335972547531128
-0.0151052474975585,1.3345637321472168,-0.1530455350875854,-0.3266002833843231,-0.0052976622246205,-0.0310537870973348,0.0,0.0,-0.2939323782920837,0.4625601768493652
-0.0166940689086914,1.3269819021224976,-0.1578288376331329,-0.3369746506214142,-0.0063387309201061,-0.0208234097808599,0.0,0.0,0.1579254865646362,0.8414508104324341
-0.0181987769901752,1.3197190761566162,-0.1482783854007721,-0.3228059113025665,-0.0084972698241472,-0.0431746765971183,0.0,0.0,-0.844265878200531,0.5454378128051758
-0.0196918491274118,1.3122247457504272,-0.1463245451450348,-0.3331006467342376,-0.0114588448777794,-0.0592369362711906,0.0,0.0,-0.316799521446228,0.6268024444580078
-0.0211699493229389,1.304490327835083,-0.1439317464828491,-0.3437886238098144,-0.0152947446331381,-0.0767247527837753,0.0,0.0,-0.1761754751205444,0.3106838464736938
-0.0226869583129882,1.2965223789215088,-0.1483484208583831,-0.3541660606861114,-0.0186196584254503,-0.0665040165185928,0.0,0.0,-0.4060282707214355,0.1614245176315307
-0.0242421142756938,1.2883208990097046,-0.1526688933372497,-0.3645433485507965,-0.0214347876608371,-0.0563075356185436,0.0,0.0,-0.3328108191490173,0.6941230297088623
-0.0257668495178222,1.279892086982727,-0.1484352648258209,-0.3746814727783203,-0.0254324469715356,-0.079960823059082,0.0,0.0,-0.6028113961219788,0.5559638738632202
-0.0272734649479389,1.2712228298187256,-0.1457498222589492,-0.3853842914104461,-0.0302856191992759,-0.097071960568428,0.0,0.0,-0.6451812386512756,0.9643144607543944
-0.028726290911436,1.262325644493103,-0.1386458575725555,-0.3955816924571991,-0.0368531495332717,-0.1313626021146774,0.0,0.0,-0.7485846877098083,0.7904092073440552
-0.030158806592226,1.2531919479370115,-0.1357550770044326,-0.4061446785926819,-0.0442727915942668,-0.1484061181545257,0.0,0.0,-0.4690951704978943,0.6758015155792236
-0.0315592773258686,0.0,-0.1314050555229187,-0.4165451824665069,-0.0528125576674938,-0.170810654759407,0.0,0.0,-0.8447021842002869,0.733142614364624
-0.0329320915043354,1.2342181205749512,-0.1276748478412628,-0.4273717105388641,-0.0623332895338535,-0.1904320269823074,0.0,0.0,-0.4251061677932739,0.2739620208740234
-0.0343353264033794,1.2243776321411133,-0.1312131434679031,-0.4377546310424804,-0.0713493898510932,-0.1803381145000457,0.0,0.0,-0.904205560684204,0.5158696174621582
-0.0357223525643348,1.2142937183380127,-0.1289628148078918,-0.4486624300479889,-0.0810103118419647,-0.1932358592748642,0.0,0.0,-0.3981029987335205,0.4383442401885986
-0.0371374115347862,1.20397686958313,-0.1322609186172485,-0.4590452015399933,-0.0901692956686019,-0.1831960380077362,0.0,0.0,-0.4926912784576416,0.2543833255767822
-0.0385804176330566,1.1934057474136353,-0.1355663239955902,-0.4703769385814667,-0.0988295003771781,-0.1732040792703628,0.0,0.0,-0.802995502948761,0.5168299674987793
-0.040007971227169,1.1825988292694092,-0.1334834098815918,-0.4809511005878448,-0.1080289706587791,-0.1839900016784668,0.0,0.0,-0.5621759295463562,-0.0101779103279113
-0.0414600372314453,1.171558856964111,-0.1364352405071258,-0.4913286864757538,-0.1167340129613876,-0.1741007417440414,0.0,0.0,0.445879578590393,-0.3030644059181213
-0.0429698005318641,1.1613154411315918,-0.1421734988689422,-0.4559747576713562,-0.125475138425827,-0.1748227179050445,0.0,0.0,-0.3303136825561523,0.8094453811645508
-0.0444403663277626,1.1508241891860962,-0.1371982097625732,-0.4671327173709869,-0.1352876424789428,-0.1962498128414154,0.0,0.0,-0.8103137612342834,0.2917500734329223
-0.0459315292537212,1.1401000022888184,-0.1397665590047836,-0.4775101542472839,-0.144612580537796,-0.186498761177063,0.0,0.0,-0.004690408706665,0.4461336135864258
-0.0474422462284565,1.1291425228118896,-0.1422060877084732,-0.4878864884376526,-0.1534525454044342,-0.1767993867397308,0.0,0.0,-0.5893822908401489,-0.1312384009361267
-0.0489710792899131,1.1179513931274414,-0.1445167511701584,-0.4982617497444153,-0.1618102788925171,-0.1671547442674636,0.0,0.0,-0.4637150168418884,-0.4801536798477173
-0.050516702234745,1.1065268516540527,-0.1466988921165466,-0.5086360573768616,-0.169688731431961,-0.1575684547424316,0.0,0.0,0.062609314918518,-0.6384074091911316
-0.0520479194819927,1.0954759120941162,-0.1470215916633606,-0.4918610751628876,-0.1757972687482834,-0.1221710219979286,0.0,0.0,0.746201753616333,-0.7169879078865051
-0.0534881576895713,1.0853861570358276,-0.1398977637290954,-0.4489334225654602,-0.1799468398094177,-0.0829917415976524,0.0,0.0,-0.2165454626083374,0.1891413927078247
-0.0549418441951274,1.0750620365142822,-0.1416980922222137,-0.4593027830123901,-0.1836268603801727,-0.0736007913947105,0.0,0.0,-0.502597987651825,0.637333869934082
-0.0563543327152729,1.0644935369491575,-0.1366974711418151,-0.4702765047550201,-0.1881972104310989,-0.0914070531725883,0.0,0.0,-0.9185486435890198,0.0283342599868774
-0.0577777847647666,1.0536909103393557,-0.1382504999637603,-0.4806459844112396,-0.1923055052757263,-0.0821662843227386,0.0,0.0,-0.4606531858444214,0.710066556930542
-0.05915317684412,1.042637825012207,-0.1324236094951629,-0.4919162690639496,-0.1974478662014007,-0.102847084403038,0.0,0.0,-0.8130476474761963,-0.389792799949646
-0.0605370514094829,1.0313506126403809,-0.1337369084358215,-0.5022860169410706,-0.2021366655826568,-0.0937758237123489,0.0,0.0,-0.5760922431945801,0.3495281934738159
-0.0619284622371196,1.0198287963867188,-0.1349335759878158,-0.5126551985740662,-0.2063765376806259,-0.084797516465187,0.0,0.0,-0.4524433612823486,-0.8893619179725647
-0.0633852928876876,1.0080809593200684,-0.1434005349874496,-0.5224400758743286,-0.2086799293756485,-0.0460681803524494,0.0,0.0,-0.8703680634498596,-0.958820641040802
-0.0649096518754959,0.9961165189743042,-0.152179017663002,-0.5317949056625366,-0.2089357525110244,-0.0051165390759706,0.0,0.0,-0.8333513140678406,0.1401299238204956
-0.0664382949471473,0.983917236328125,-0.1530418545007705,-0.542162299156189,-0.2087584733963012,0.003545684274286,0.0,0.0,-0.5338552594184875,-0.5289218425750732
-0.0680088996887207,0.9714900851249696,-0.1586209088563919,-0.552094042301178,-0.2071754336357116,0.0316605009138584,0.0,0.0,-0.1019062995910644,-0.4063426256179809
-0.0695817023515701,0.9588285088539124,-0.1592771559953689,-0.5624619722366333,-0.2051716148853302,0.0400763750076293,0.0,0.0,-0.9856567978858948,0.067096471786499
-0.071156121790409,0.9459324479103088,-0.1598352491855621,-0.5728301405906677,-0.2027537822723388,0.048356719315052,0.0,0.0,-0.957618772983551,0.3823685646057129
-0.072731114923954,0.9328019022941588,-0.1602988541126251,-0.5831987261772156,-0.1999291330575943,0.0564928464591503,0.0,0.0,-0.4447381496429443,0.0774370431900024
-0.0743058174848556,0.9194369316101074,-0.1606717258691787,-0.5935677886009216,-0.1967053711414337,0.0644753202795982,0.0,0.0,-0.5549119710922241,0.3243303298950195
-0.0758794769644737,0.9058377742767334,-0.1609577238559723,-0.6039371490478516,-0.1930906623601913,0.0722942873835563,0.0,0.0,-0.9460683465003968,0.0248823165893554
-0.0774514228105545,0.8920043110847473,-0.1611608564853668,-0.614307165145874,-0.1890936940908432,0.0799393579363823,0.0,0.0,-0.7234209179878235,-0.2204762101173401
-0.0790206938982009,0.8779367804527283,-0.1612852066755294,-0.6246775388717651,-0.1847237348556518,0.0873996093869209,0.0,0.0,-0.7966473698616028,0.4127544164657593
-0.0805869102478027,0.863635241985321,-0.1613349467515945,-0.635048508644104,-0.1799905598163604,0.0946636497974395,0.0,0.0,-0.3289942741394043,0.092302918434143
-0.0821493119001388,0.8490995764732361,-0.1613142639398574,-0.6454199552536011,-0.1749045699834823,0.1017197594046592,0.0,0.0,-0.4553781747817993,-0.3488336205482483
-0.0837074294686317,0.8343302607536316,-0.1612274646759033,-0.6557920575141907,-0.1694767773151397,0.108555719256401,0.0,0.0,-0.8920766115188599,0.0165314674377441
-0.0852606743574142,0.8193268775939941,-0.161078855395317,-0.666164755821228,-0.1637188494205474,0.1151589527726173,0.0,0.0,-0.86747145652771,-0.3253510594367981
-0.0868086814880371,0.8040900826454163,-0.1608728170394897,-0.6765381097793579,-0.1576430201530456,0.1215167045593261,0.0,0.0,-0.267432689666748,0.2656738758087158
-0.0883509665727615,0.7886196970939636,-0.1606137454509735,-0.6869121789932251,-0.1512622088193893,0.1276160925626754,0.0,0.0,-0.8205627799034119,0.5574300289154053
-0.0898486152291297,0.7729116678237915,-0.15547676384449,-0.6975588202476501,-0.1455615162849426,0.1140136867761612,0.0,0.0,-0.6198170185089111,0.5091191530227661
-0.0912971496582031,0.7569562792778015,-0.1497392356395721,-0.70865797996521,-0.1406905353069305,0.0974195227026939,0.0,0.0,-0.6719954013824463,0.4625047445297241
-0.0927391052246093,0.7407673597335815,-0.1493472158908844,-0.7190318703651428,-0.1355572193861007,0.1026663333177566,0.0,0.0,-0.403010606765747,0.3161733150482178
-0.0941741913557052,0.7243449091911316,-0.148919939994812,-0.7294062376022339,-0.1301770359277725,0.1076035499572753,0.0,0.0,-0.0491383075714111,0.5254371166229248
-0.0955595970153808,0.7076811790466309,-0.1430787593126297,-0.7402158975601196,-0.1256563514471054,0.0904140993952751,0.0,0.0,-0.0666336417198181,0.733539342880249
-0.0968801528215408,0.6907677054405212,-0.1353181600570678,-0.7514461874961853,-0.1224077492952346,0.0649720951914787,0.0,0.0,0.5586320161819458,0.8175816535949707
-0.0981904044747352,0.6744628548622131,-0.1326439380645752,-0.7245252132415771,-0.1207990497350692,0.0321741476655006,0.0,0.0,-0.2857625484466553,0.4827792644500732
-0.0994936972856521,0.6579242944717407,-0.1321195811033249,-0.7348986268043518,-0.1190110817551612,0.035759337246418,0.0,0.0,-0.1940107345581054,0.6721160411834717
-0.1007305160164833,0.6411334872245789,-0.1241146326065063,-0.7462269067764282,-0.11858981102705,0.0084255058318376,0.0,0.0,0.7422716617584229,0.1729965209960937
-0.1018257141113281,0.6254448294639587,-0.1102164760231971,-0.6972194910049438,-0.117894172668457,0.0139125455170869,0.0,0.0,-0.6467444896697998,-0.4394029378890991
-0.1029140502214431,0.6095225214958191,-0.1096659451723098,-0.7075932621955872,-0.1170747727155685,0.016388114541769,0.0,0.0,0.4015295505523681,-0.1731128096580505
-0.1040061935782432,0.5942359566688538,-0.1097779646515846,-0.6793572902679443,-0.1165110990405082,0.0112735470756888,0.0,0.0,-0.6339433193206787,-0.2478651404380798
-0.1050919517874717,0.5787158608436584,-0.1092316955327987,-0.6897314786911011,-0.1158620193600654,0.0129815386608242,0.0,0.0,0.4174795150756836,0.1747981309890747
-0.1061977371573448,0.5640609860420227,-0.1107791289687156,-0.6513125896453857,-0.1156582757830619,0.0040748859755694,0.0,0.0,-0.5514310598373413,0.3339123725891113
-0.1072977036237716,0.549172580242157,-0.1102541536092758,-0.6616870760917664,-0.1154079660773277,0.0050062700174748,0.0,0.0,-0.5187783241271973,0.1804986000061035
-0.1083924323320388,0.534050703048706,-0.1097461134195327,-0.6720617413520813,-0.1151304692029953,0.0055498159490525,0.0,0.0,0.4893760681152344,0.2277892827987671
-0.1093875914812088,0.5191214680671692,-0.1000874191522598,-0.66347736120224,-0.1145615354180336,0.0113786049187183,0.0,0.0,0.6892170906066895,0.4145905971527099
-0.1103706359863281,0.5044815540313721,-0.0987165123224258,-0.6506330370903015,-0.1141532957553863,0.0081648416817188,0.0,0.0,-0.131148099899292,-0.2712181806564331
-0.1113496795296669,0.4896082282066345,-0.0982836261391639,-0.6610082387924194,-0.1137750819325447,0.0075643085874617,0.0,0.0,0.9219534397125244,0.3748534917831421
-0.1121249198913574,0.4758999943733215,-0.0782890617847442,-0.6091979742050171,-0.1130148097872734,0.0152052491903305,0.0,0.0,-0.4807446599006653,0.276795744895935
-0.1128972023725509,0.4619583785533905,-0.0779259428381919,-0.6195736527442932,-0.1123212277889251,0.0138717908412218,0.0,0.0,-0.5019629597663879,-0.0340943336486816
-0.1136670112609863,0.447783499956131,-0.0776033625006675,-0.6299493908882141,-0.1117120161652565,0.0121844336390495,0.0,0.0,0.3913289308547973,-0.1492926478385925
-0.1143271476030349,0.4343619346618652,-0.0666835382580757,-0.5964621305465698,-0.1110472977161407,0.0132944658398628,0.0,0.0,0.4704227447509765,0.721848726272583
-0.1149718314409256,0.4214777648448944,-0.0633926540613174,-0.5727093815803528,-0.1121158823370933,-0.0213716533035039,0.0,0.0,-0.195188283920288,0.0375858545303344
-0.115616038441658,0.4083603918552398,-0.0632133111357688,-0.5830857753753662,-0.1133188307285308,-0.0240588616579771,0.0,0.0,0.1371663808822631,-0.2627702355384826
-0.1162142753601074,0.3957286179065704,-0.0584241934120655,-0.5615217685699463,-0.1147098019719123,-0.0278191026300191,0.0,0.0,-0.4533525109291076,-0.6335588097572327
-0.1168560981750488,0.3828710317611694,-0.0637012869119644,-0.5714828968048096,-0.1151843592524528,-0.0094914808869361,0.0,0.0,0.7727000713348389,-0.129122257232666
-0.1174321174621582,0.3703232407569885,-0.057064838707447,-0.5577221512794495,-0.1157203987240791,-0.0107208490371704,0.0,0.0,0.0098190307617187,-0.7420595288276672
-0.1179757118225097,0.3579024076461792,-0.0551454797387123,-0.5519781112670898,-0.1149364560842514,0.0156788919121027,0.0,0.0,-0.4707009792327881,-0.0336877107620239
-0.1185225471854209,0.3452483713626861,-0.0552699863910675,-0.5623551607131958,-0.1143581941723823,0.0115654319524765,0.0,0.0,-0.5381477475166321,0.1264595985412597
-0.1190735846757888,0.3323612511157989,-0.0554638616740703,-0.5727322101593018,-0.1139979138970375,0.0072052404284477,0.0,0.0,0.5959974527359009,-0.3086081743240356
-0.1195523291826248,0.3203235864639282,-0.0479904189705848,-0.5350015163421631,-0.1138928160071373,0.0021022926084697,0.0,0.0,0.0511351823806762,-0.0709468126296997
-0.1199625954031944,0.308768630027771,-0.0409799106419086,-0.5135554075241089,-0.1139374524354934,-0.000892793003004,0.0,0.0,-0.3493037223815918,0.7621744871139526
-0.1203070655465126,0.2969711124897003,-0.0322998352348804,-0.5244986414909363,-0.1160674691200256,-0.0426006205379962,0.0,0.0,0.1955033540725708,-0.6394650340080261
-0.1206015571951866,0.2852804660797119,-0.0284518897533416,-0.5196608901023865,-0.1170614138245582,-0.0198787860572338,0.0,0.0,-0.1713665723800659,0.2528784275054931
-0.1209045425057411,0.2733568847179413,-0.029027123004198,-0.5300385355949402,-0.1183256283402443,-0.0252842307090759,0.0,0.0,0.8256692886352539,-0.9009469151496888
-0.1210714355111122,0.2626253366470337,-0.0171250384300947,-0.4769217371940613,-0.1178862825036048,0.0087866056710481,0.0,0.0,-0.1039625406265258,0.4531205892562866
-0.1212485283613205,0.2516608238220215,-0.0178656354546546,-0.4872995316982269,-0.1177340075373649,0.0030457791872322,0.0,0.0,0.6055576801300049,0.1249188184738159
-0.1214661598205566,0.2416362911462783,-0.0210541877895593,-0.4455930590629577,-0.1184358298778534,-0.0140369264408946,0.0,0.0,-0.7651113271713257,0.1266555786132812
-0.1216958984732627,0.2313787341117859,-0.0219652485102415,-0.4559710323810577,-0.1194393560290336,-0.0200705751776695,0.0,0.0,0.0305280685424804,-0.5714992880821228
-0.1219645515084266,0.221604123711586,-0.0266481544822454,-0.4344462156295776,-0.119661845266819,-0.0044495402835309,0.0,0.0,-0.7294507026672363,0.0771389007568359
-0.1222473159432411,0.2115964740514755,-0.0277331955730915,-0.4448243081569671,-0.1201986819505691,-0.0107367997989058,0.0,0.0,0.2327935695648193,-0.1796630620956421
-0.1225188225507736,0.2019126266241073,-0.026205563917756,-0.4304680228233337,-0.1211414486169815,-0.0188554022461175,0.0,0.0,-0.6803398728370667,-0.0761644840240478
-0.1228062659502029,0.1919959634542465,-0.0274665467441082,-0.4408463537693023,-0.1224094852805137,-0.0253605954349041,0.0,0.0,-0.2625046968460083,0.5761637687683105
-0.1230766326189041,0.1818388998508453,-0.0245662815868854,-0.4516313970088959,-0.124871015548706,-0.0492307990789413,0.0,0.0,-0.39580899477005,-0.0932098031044006
-0.1233648285269737,0.1714489609003067,-0.026003623381257,-0.4620103538036346,-0.1276670843362808,-0.0559214949607849,0.0,0.0,0.463848352432251,0.3622257709503174
-0.1235760673880577,0.1613023430109024,-0.018226521089673,-0.4512118101119995,-0.1305503696203231,-0.0576657056808471,0.0,0.0,0.8447942733764648,-0.6812025308609009
-0.1235754042863845,0.1521714478731155,0.0015145033830776,-0.4059430956840515,-0.1319915503263473,-0.0288234315812587,0.0,0.0,0.5483074188232422,-0.4119266867637634
-0.1235206574201583,0.1438935101032257,0.0073634185828268,-0.3680810034275055,-0.1338777691125869,-0.0377243943512439,0.0,0.0,0.127718448638916,-0.900864839553833
-0.1233657822012901,0.1362514346837997,0.0158936996012926,-0.3396817147731781,-0.1342840790748596,-0.008126120083034,0.0,0.0,0.154147982597351,-0.5538038015365601
-0.1231639832258224,0.1289754956960678,0.0197217911481857,-0.3233327269554138,-0.1338292509317398,0.0090966839343309,0.0,0.0,-0.2242560386657714,-0.6953065395355225
-0.1230397224426269,0.1214848384261131,0.0109057929366827,-0.332783430814743,-0.1323195099830627,0.0301947258412837,0.0,0.0,0.4960441589355469,-0.6578871011734009
-0.1228366866707801,0.1148259490728378,0.0176996625959873,-0.2957228422164917,-0.1297275871038437,0.0518385842442512,0.0,0.0,-0.1472421288490295,-0.6982703804969788
-0.1227062195539474,0.1079401075839996,0.0095985876396298,-0.3057377636432647,-0.1262876093387603,0.0687994733452797,0.0,0.0,0.3938515186309814,0.0078953504562377
-0.1226378455758094,0.1016173213720321,0.0042187487706542,-0.2807922661304474,-0.123685173690319,0.0520487055182457,0.0,0.0,0.162330150604248,-0.1251020431518554
-0.1226408034563064,0.0956176146864891,-0.0021253675222396,-0.2665046751499176,-0.1218621507287025,0.0364604666829109,0.0,0.0,0.1986441612243652,0.8895189762115479
-0.1225692778825759,0.0899839028716087,0.007473818026483,-0.250412106513977,-0.1221868917346,-0.0064947521314024,0.0,0.0,0.153670072555542,0.3818575143814087
-0.1224622726440429,0.0846686959266662,0.0113117145374417,-0.2362830340862274,-0.1227917969226837,-0.0120977396145462,0.0,0.0,-0.131807267665863,0.70528244972229
-0.1223169341683387,0.0791018605232238,0.0172286517918109,-0.2476417124271392,-0.1254778057336807,-0.0537201762199401,0.0,0.0,0.5152859687805176,-0.2429200410842895
-0.1220336928963661,0.0742188096046447,0.0309749990701675,-0.2172517329454422,-0.1281158924102783,-0.0527618750929832,0.0,0.0,0.2487993240356445,-0.7605133652687073
-0.1217402443289756,0.0700246170163154,0.0308174882084131,-0.1865324079990387,-0.1295735538005828,-0.0291534624993801,0.0,0.0,0.0481117963790893,-0.0048840641975402
