x_pos,y_pos,x_vel,y_vel,angle,ang_vel,leg_1,leg_2,main_booster,lat_booster
-0.0015300750965252,1.4029181003570557,-0.1552245914936065,-0.355648934841156,0.0019854088313877,0.039180539548397,0.0,0.0,-0.1924757529907432,-0.9593618696805416
-0.0031346320174634,1.3942279815673828,-0.1643734872341156,-0.3862389624118805,0.0058623030781745,0.077546015381813,0.0,0.0,-0.4451868719203184,0.7150393694460611
-0.0046748160384595,1.3848261833190918,-0.1564008295536041,-0.4178594052791595,0.00821746699512,0.0471074096858501,0.0,0.0,-0.1449468074708755,-0.710977052814929
-0.0062849996611475,1.3747152090072632,-0.1653139144182205,-0.4494112730026245,0.0124636348336935,0.0849315002560615,0.0,0.0,0.3310222025742051,-0.9122068274459504
-0.007856274023652,1.3646899461746216,-0.1635661125183105,-0.4456399977207184,0.018830532208085,0.1273496896028518,0.0,0.0,0.3397370113612228,0.7989159692674336
-0.0092482566833496,1.3546229600906372,-0.1444164812564849,-0.4474892318248749,0.0239921603351831,0.1032421216368675,0.0,0.0,-0.4567888478406363,0.7210042250583839
-0.0105852130800485,1.343851923942566,-0.1377265155315399,-0.4787825644016266,0.0279840733855962,0.079845555126667,0.0,0.0,0.5427891086581735,0.97138789128188
-0.0117024425417184,1.333293318748474,-0.1142101660370826,-0.4693226218223572,0.0304437242448329,0.0491975471377372,0.0,0.0,0.4352154246339996,-0.5272814149880698
-0.0128915784880518,1.3231215476989746,-0.1226374134421348,-0.4521616101264953,0.0341206416487693,0.0735453069210052,0.0,0.0,-0.0857903984615575,0.7400434596624285
-0.0140183446928858,1.3122509717941284,-0.1151158958673477,-0.4831963181495666,0.0365328937768936,0.0482494086027145,0.0,0.0,-0.9104985829451332,-0.6532084834797514
-0.0151835437864065,1.3006722927093506,-0.1202781945466995,-0.5147059559822083,0.0402560792863369,0.0744706317782402,0.0,0.0,-0.7571887509593485,0.5583294222331407
-0.0162924770265817,1.2883892059326172,-0.1136119365692138,-0.5459922552108765,0.0429409481585025,0.0537022165954113,0.0,0.0,-0.8665724384048297,0.5284422353788076
-0.017342472448945,1.2754056453704834,-0.1066300272941589,-0.5770904421806335,0.0445498339831829,0.032180905342102,0.0,0.0,-0.8252177916019869,-0.6963234451154547
-0.0184310916811227,1.2617062330245972,-0.1119266003370285,-0.6089597940444946,0.0475806854665279,0.0606224536895751,0.0,0.0,-0.6377354367500625,0.8318654786587294
-0.0194281581789255,1.2473149299621582,-0.1008951887488365,-0.6396567225456238,0.0487679466605186,0.0237472262233495,0.0,0.0,0.2894243040079411,0.6634780933229703
-0.0202763564884662,1.2325677871704102,-0.0850535929203033,-0.6554365754127502,0.0489984266459941,0.0046100621111691,0.0,0.0,0.6212738437255676,0.7979012771427435
-0.0209397319704294,1.218396782875061,-0.0654390901327133,-0.6297908425331116,0.0481093302369117,-0.0177839267998933,0.0,0.0,-0.7642641877245984,0.8937251161966022
-0.0215003974735736,1.2035179138183594,-0.0531518161296844,-0.661185622215271,0.0452197827398777,-0.0577959790825843,0.0,0.0,0.3894748490405291,0.9579641521346528
-0.0219058040529489,1.1889654397964478,-0.0359740816056728,-0.6466503739356995,0.0406936481595039,-0.0905306935310363,0.0,0.0,-0.0745908345409642,0.6728463720190649
-0.022247314453125,1.1737091541290283,-0.0285949446260929,-0.6779167652130127,0.0352001637220382,-0.1098794117569923,0.0,0.0,-0.7588428684738442,0.8507793838108522
-0.0224882122129201,1.1577577590942385,-0.0166561119258403,-0.7087987661361694,0.0278465542942285,-0.1470856964588165,0.0,0.0,0.7936757433681771,0.8463414201982213
-0.0226408950984478,1.1418193578720093,-0.0063465693965554,-0.7082208395004272,0.0190263111144304,-0.1764206290245056,0.0,0.0,-0.3895289870346821,-0.5172716539360236
-0.022803783416748,1.1251739263534546,-0.0083701368421316,-0.7397144436836243,0.0111992554739117,-0.1565554738044738,0.0,0.0,-0.4469384344279137,0.6854994792175293
-0.0228831283748149,1.1078165769577026,0.0013451229315251,-0.7713979482650757,0.0020355836022645,-0.1832899004220962,0.0,0.0,0.2691584440964885,-0.6200774287535668
-0.0231088642030954,1.090496301651001,-0.0145191997289657,-0.7697921991348267,-0.005926520563662,-0.1592565476894378,0.0,0.0,-0.0538457870938258,-0.7871204412790371
-0.0233867652714252,1.0724536180496216,-0.0218795109540224,-0.8019292950630188,-0.0117645394057035,-0.1167603135108947,0.0,0.0,-0.490785816349625,-0.5475770512417442
-0.0236814506351947,1.0537090301513672,-0.0248367004096508,-0.8331347107887268,-0.0163422338664531,-0.0915535911917686,0.0,0.0,0.2126573666173692,0.7774207207223283
-0.0239866264164447,1.0351760387420654,-0.0243831649422645,-0.8237621188163757,-0.0223972480744123,-0.1211003512144088,0.0,0.0,0.841390686064021,-0.9500745390628528
-0.024480914697051,1.017247438430786,-0.0451149865984916,-0.7968943119049072,-0.0266508217900991,-0.0850714668631553,0.0,0.0,-0.0070521041548312,-0.8219093957516961
-0.0250131599605083,0.9986121654510498,-0.0508080720901489,-0.8282800912857056,-0.0290400106459856,-0.0477840788662433,0.0,0.0,0.5687321681708095,0.7556142491461115
-0.0254123695194721,0.9804810285568236,-0.0361779816448688,-0.8059107065200806,-0.0327247120440006,-0.0736940801143646,0.0,0.0,0.3562040328979492,-0.9945560097694396
-0.0259212497621774,0.962184190750122,-0.0492976866662502,-0.8132204413414001,-0.0343025960028171,-0.0315577462315559,0.0,0.0,0.3502451181411743,-0.8324671387672424
-0.0265178680419921,0.944178342819214,-0.0598209574818611,-0.8002574443817139,-0.0341416895389556,0.0032178703695535,0.0,0.0,-0.056045114994049,-0.7917264103889465
-0.0271511077880859,0.925462245941162,-0.0654099881649017,-0.8317756652832031,-0.032075148075819,0.0413307920098304,0.0,0.0,0.3333418369293213,0.172228455543518
-0.0277213100343942,0.906798243522644,-0.0593387596309185,-0.8294703960418701,-0.0297851711511611,0.0457995906472206,0.0,0.0,0.5113925933837891,0.563025712966919
-0.0281739234924316,0.8884665369987488,-0.0466539449989795,-0.8147187829017639,-0.02841117978096,0.0274798665195703,0.0,0.0,0.6245617866516113,0.3167468309402466
-0.0286046024411916,0.8701004385948181,-0.0444952547550201,-0.8162339329719543,-0.0269986819475889,0.0282498411834239,0.0,0.0,0.1807153224945068,0.6703107357025146
-0.0289011001586914,0.8518456816673279,-0.0299370530992746,-0.811322033405304,-0.026722127571702,0.0055311252363026,0.0,0.0,0.3200831413269043,0.5595144033432007
-0.0291333198547363,0.8338996767997742,-0.022452650591731,-0.7976142168045044,-0.0274781044572591,-0.0151193467900156,0.0,0.0,-0.4010716676712036,0.6168973445892334
-0.0292774196714162,0.8152459263801575,-0.0125022251158952,-0.8290933966636658,-0.0293690264225006,-0.037818394601345,0.0,0.0,-0.1268891096115112,-0.9210981130599976
-0.0294698718935251,0.7958971261978149,-0.0196538977324962,-0.8599348068237305,-0.0289558991789817,0.0082626845687627,0.0,0.0,0.7663267850875854,0.3389532566070556
-0.0294761657714843,0.7766754627227783,-0.0018096644198521,-0.8542777895927429,-0.0277893412858247,0.023331006988883,0.0,0.0,0.7149909734725952,0.4600186347961426
-0.0293340682983398,0.7572312355041504,0.0124065270647406,-0.8641579747200012,-0.0260167177766561,0.0354522764682769,0.0,0.0,0.4118334054946899,0.7908027172088623
-0.0289837829768657,0.7377499938011169,0.0345583297312259,-0.8658202290534973,-0.0255481712520122,0.0093712788075208,0.0,0.0,0.1216423511505127,0.5990437269210815
-0.0285724643617868,0.7178544402122498,0.0417683832347393,-0.8842578530311584,-0.026187116280198,-0.0127790421247482,0.0,0.0,0.2955309152603149,-0.0185038447380065
-0.0280787460505962,0.6976438760757446,0.0497252158820629,-0.8982521295547485,-0.0265318490564823,-0.0068946108222007,0.0,0.0,0.6798877716064453,0.0825725793838501
-0.027470875531435,0.6774057149887085,0.0607194602489471,-0.8994709849357605,-0.0264666154980659,0.0013049582485109,0.0,0.0,0.5583670139312744,-0.2813730239868164
-0.0269078258424997,0.6576446294784546,0.0566164776682853,-0.8782773613929749,-0.0267735328525304,-0.0061382241547107,0.0,0.0,0.3414845466613769,-0.7286985516548157
-0.026464844122529,0.638150155544281,0.0432020835578441,-0.8663995862007141,-0.0256963726133108,0.0215430948883295,0.0,0.0,0.0880639553070068,-0.2042303085327148
-0.0259862896054983,0.6184521913528442,0.0467179827392101,-0.8754492998123169,-0.0245757959783077,0.022411722689867,0.0,0.0,0.7380220890045166,-0.1466395854949951
-0.0253009796142578,0.5989429950714111,0.0665875747799873,-0.8670450448989868,-0.022654915228486,0.0384174771606922,0.0,0.0,0.6383626461029053,-0.4398552179336548
-0.0246148109436035,0.5798248648643494,0.0668451860547065,-0.8496687412261963,-0.0209019035100936,0.0350603349506855,0.0,0.0,0.5687987804412842,0.0148489475250244
-0.0237743370234966,0.5606301426887512,0.0816888660192489,-0.8530668020248413,-0.018578665331006,0.0464649274945259,0.0,0.0,0.8572589159011841,-0.5254096388816833
-0.0229132659733295,0.5420798659324646,0.0826106145977974,-0.8244171738624573,-0.0151157081127166,0.0692590698599815,0.0,0.0,0.5614005327224731,-0.0685774683952331
-0.0218623168766498,0.5235112905502319,0.1008452326059341,-0.8252342939376831,-0.0109247211366891,0.0838197469711303,0.0,0.0,0.7351210117340088,-0.7228415608406067
-0.0209305770695209,0.504978358745575,0.0876426100730896,-0.8236566185951233,-0.0054631163366138,0.1092320829629898,0.0,0.0,0.8522536754608154,-0.2134373188018798
-0.0198463443666696,0.4870787262916565,0.1023377552628517,-0.7955251336097717,0.0005480870604515,0.1202241629362106,0.0,0.0,0.5432717800140381,0.1182464361190795
-0.0185911171138286,0.4694184064865112,0.1187686696648597,-0.7849204540252686,0.0072099738754332,0.1332378089427948,0.0,0.0,0.8400094509124756,-0.3132869005203247
-0.017216969281435,0.4524285793304443,0.1302355974912643,-0.7551539540290833,0.014303239993751,0.1418653428554535,0.0,0.0,0.2355103492736816,-0.4064431190490722
-0.0158656127750873,0.4356131553649902,0.1281784325838089,-0.7474353909492493,0.0211713481694459,0.1373620182275772,0.0,0.0,0.416968822479248,-0.3513036966323852
-0.0144345285370945,0.4185695946216583,0.1359153985977172,-0.7576085925102234,0.0282725412398576,0.1420240998268127,0.0,0.0,0.8944218158721924,-0.1063400506973266
-0.013098525814712,0.4020214378833771,0.1269274652004242,-0.7356182336807251,0.0348633602261543,0.1318163722753524,0.0,0.0,0.7287626266479492,-0.2592293620109558
-0.011609649285674,0.3855853676795959,0.1416043639183044,-0.7306771874427795,0.042064931243658,0.1440313160419464,0.0,0.0,0.820767879486084,0.0900691747665405
-0.0100804325193166,0.3694576323032379,0.1455011516809463,-0.7170148491859436,0.0493907928466796,0.1465173959732055,0.0,0.0,0.9157719612121582,0.1020213365554809
-0.0085225105285644,0.3533213138580322,0.1483437120914459,-0.717437744140625,0.0567540526390075,0.1472650617361068,0.0,0.0,0.9287841320037842,-0.0133371353149414
-0.0071053504943847,0.3375000953674316,0.134961187839508,-0.703434944152832,0.0634354352951049,0.1336277425289154,0.0,0.0,0.9400644302368164,0.7092224359512329
-0.0056263925507664,0.3224934339523315,0.1425265669822693,-0.6671965718269348,0.068747192621231,0.1062352210283279,0.0,0.0,0.8531217575073242,-0.2461057901382446
-0.0040353774093091,0.3072811663150787,0.1533271521329879,-0.6763773560523987,0.0744540467858314,0.114137090742588,0.0,0.0,0.9201362133026124,-0.4378921389579773
-0.0024443627335131,0.2928504645824432,0.1532407701015472,-0.641667366027832,0.0802667737007141,0.1162543445825576,0.0,0.0,0.7419489622116089,0.0974829196929931
-0.0009495735284872,0.2784479856491089,0.1441239714622497,-0.6404067873954773,0.0855725482106208,0.1061152592301368,0.0,0.0,0.9497272968292236,-0.5301059484481812
0.0003632545412983,0.2645158171653747,0.1252642273902893,-0.6195642948150635,0.0915371850132942,0.1192927807569503,0.0,0.0,0.9602371454238892,0.2071690559387207
0.0016875267028808,0.2509856224060058,0.1263006329536438,-0.601730227470398,0.0976061895489692,0.1213801130652427,0.0,0.0,0.9157545566558838,0.359042763710022
0.0028101920615881,0.2381893247365951,0.1069132536649704,-0.5690793395042419,0.1029117777943611,0.106111966073513,0.0,0.0,0.8171977996826172,0.6929640769958496
0.004051589872688,0.2256565392017364,0.1200579181313514,-0.5573011040687561,0.1069606244564056,0.0809767842292785,0.0,0.0,0.8274805545806885,-0.4155399799346924
0.005252075381577,0.2130565196275711,0.1162328571081161,-0.560276448726654,0.1107493638992309,0.0757747441530227,0.0,0.0,0.9396189451217652,0.4136967658996582
0.0065320013090968,0.2003323435783386,0.1239059343934059,-0.5658268332481384,0.1148126199841499,0.0812651216983795,0.0,0.0,0.963275909423828,0.3177810907363891
0.007770633790642,0.1874964386224746,0.1200576052069664,-0.5707843899726868,0.118600457906723,0.075756624341011,0.0,0.0,0.9806110858917236,0.0968031883239746
0.0089290617033839,0.1753686219453811,0.1121857538819313,-0.5393089652061462,0.1222334951162338,0.0726609006524086,0.0,0.0,0.9635534286499025,-0.3297412395477295
0.0101058008149266,0.1639952063560485,0.1136904805898666,-0.5058148503303528,0.1261918395757675,0.0791668146848678,0.0,0.0,0.993779182434082,-0.8866266012191772
0.0109827043488621,0.1533508449792862,0.0823593959212303,-0.4735443890094757,0.1314992904663086,0.1061489209532737,0.0,0.0,0.9817571640014648,-0.2653599977493286
0.0116955759003758,0.1425603479146957,0.06680329144001,-0.4799766838550567,0.1359623521566391,0.0892611816525459,0.0,0.0,0.986703634262085,-0.2363951206207275
0.0123694417998194,0.1324860453605651,0.0628155097365379,-0.4481686353683471,0.1405178755521774,0.0911108627915382,0.0,0.0,0.9893507957458496,-0.1385278105735778
0.0128670688718557,0.1227089986205101,0.0459043867886066,-0.4349083006381988,0.1443719565868377,0.0770814716815948,0.0,0.0,0.9872560501098632,0.4748766422271728
0.0132237430661916,0.1134213283658027,0.0322575569152832,-0.4131190180778503,0.1477790623903274,0.068142145872116,0.0,0.0,0.978007674217224,0.9131702184677124
0.0135540962219238,0.1046862006187439,0.0316216871142387,-0.3883667588233948,0.1491808742284774,0.0280360914766788,0.0,0.0,0.9826936721801758,0.8565630912780762
0.0140020372346043,0.0963208526372909,0.0450215972959995,-0.3717714548110962,0.1489545106887817,-0.0045272740535438,0.0,0.0,0.9277405738830566,0.1470328569412231
0.0144592281430959,0.0878473594784736,0.0459748283028602,-0.3765734136104584,0.1487012952566146,-0.0050643468275666,0.0,0.0,0.9778345823287964,-0.5110535025596619
0.014962482266128,0.0793956145644187,0.0493550226092338,-0.3757313191890716,0.1496698856353759,0.0193715561181306,0.0,0.0,0.9925537109375,0.6027820110321045
0.015637969598174,0.0713114365935325,0.067426785826683,-0.3593108355998993,0.1497969180345535,0.0025405071210116,0.0,0.0,0.9889322519302368,-0.6631568074226379
0.0164099689573049,0.0632482171058654,0.0754386559128761,-0.3585431277751922,0.151556983590126,0.0352008864283561,0.0,0.0,0.99641752243042,-0.8942447900772095
0.0170074459165334,0.0558132044970989,0.0563815720379352,-0.3307923674583435,0.1549190729856491,0.0672417730093002,0.0,0.0,0.99149489402771,-0.1289633512496948
0.0175410266965627,0.049035295844078,0.0499885268509388,-0.3015946447849273,0.1582823991775512,0.0672665536403656,0.0,0.0,0.92152738571167,0.2813348770141601
0.0181354526430368,0.0427342504262924,0.0555763132870197,-0.2804631888866424,0.1621418744325637,0.0771893933415412,0.0,0.0,0.8903701305389404,-0.236685037612915
0.0188232418149709,0.0363074652850627,0.064562126994133,-0.286101222038269,0.1663588881492614,0.0843404084444046,0.0,0.0,0.9753258228302002,0.0768388509750366
0.0193877220153808,0.0300590619444847,0.0527125298976898,-0.278128057718277,0.1701068133115768,0.0749582052230835,0.0,0.0,0.9065325260162354,0.6911261081695557
0.0199797637760639,0.0246246196329593,0.056769460439682,-0.2418093979358673,0.1725415587425232,0.048694759607315,0.0,0.0,0.961000919342041,-0.5193911194801331
0.020425509661436,0.0194634776562452,0.0413807742297649,-0.2297602295875549,0.1757471859455108,0.0641125738620758,0.0,0.0,0.9834809303283693,0.5420240163803101
0.0205597877502441,0.0158244706690311,0.0308468881994485,-0.1597647666931152,0.1582990735769271,-0.348957896232605,0.0,1.0,0.9874978065490724,-0.0690658688545227
0.0205615051090717,0.0134054757654666,0.0336568877100944,-0.1043021157383918,0.1248485594987869,-0.6690794825553894,0.0,1.0,0.758307695388794,-0.3127447366714477
0.0203553196042776,0.0117816301062703,0.0212582498788833,-0.0692094191908836,0.0832215249538421,-0.8326164484024048,0.0,1.0,0.4847817420959472,-0.8305087089538574
0.0199766159057617,0.0104217147454619,0.0007871940615586,-0.0587341040372848,0.0449656173586845,-0.7651191353797913,0.0,1.0,0.4666949510574341,-0.2488232851028442
0.0195552818477153,0.0090357633307576,-0.0032866685651242,-0.0608767643570899,0.0066089914180338,-0.7671342492103577,0.0,0.0,-0.6591271162033081,-0.9871737360954284
0.0190790183842182,0.0069618439301848,-0.0109687577933073,-0.0924087688326835,-0.0295859258621931,-0.7238994240760803,0.0,0.0,0.6897850036621094,-0.9907837510108948
0.0184048656374216,0.005010268650949,-0.0323637016117572,-0.0877899900078773,-0.0642143338918685,-0.6925694942474365,1.0,0.0,0.8367512226104736,-0.3848762512207031
0.0179861076176166,0.0040923450142145,-0.0218357909470796,-0.0419716201722621,-0.083341583609581,-0.3816249370574951,1.0,0.0,0.1787039041519165,-0.3059672117233276
0.0177550315856933,0.0035375929437577,-0.0230285115540027,-0.0246640685945749,-0.0833951756358146,-0.0010432440321892,1.0,0.0,-0.2471082806587219,0.4718304872512817
0.0176221840083599,0.0028735494706779,-0.0297730173915624,-0.0286792479455471,-0.0670447945594787,0.3270353376865387,1.0,0.0,-0.5999749302864075,0.2410888671875
0.0175516121089458,0.00189776183106,-0.0343439914286136,-0.0423733182251453,-0.0400435999035835,0.5400553941726685,1.0,0.0,-0.363644540309906,0.5009374618530273
0.0175556186586618,0.0004119610821362,-0.0306520219892263,-0.0654983147978782,-0.0093592964112758,0.6137242913246155,1.0,0.0,0.3616522550582886,0.6933971643447876
0.0175761226564645,-0.0003721737884916,-0.0070473724044859,-0.0348255150020122,-0.0003922298201359,0.1793194115161895,1.0,1.0,0.444725751876831,0.9912227392196656
0.0176049228757619,-0.000370528694475,0.0029048756696283,7.196644583018497e-05,-0.0004210346960462,-0.0005782406078651,1.0,1.0,-0.7167616486549377,-0.039559006690979
0.0176245681941509,-0.0003726744616869,0.001998693915084,-9.912526729749516e-05,-0.0004507321282289,-0.0005902807461097,1.0,1.0,-0.9076000452041626,-0.156646728515625
0.0176281929016113,-0.0003726029535755,0.0003563153732102,-1.2761709058395354e-06,-0.0004557016072794,-0.0001069710560841,1.0,1.0,-0.8509430289268494,-0.0348618626594543
0.0176240913569927,-0.0003725314163602,-0.0004203111457172,1.7042111721821133e-08,-0.000448812963441,0.0001262258010683,1.0,1.0,-0.8214765787124634,-0.0506068468093872
0.0176203735172748,-0.000372459879145,-0.0003912401443812,-5.855474114468961e-07,-0.0004424342769198,0.0001174389981315,1.0,1.0,-0.706381618976593,-0.0473498106002807
0.0176193229854106,-0.000372459879145,-0.0001183072017738,-1.8626182907155453e-07,-0.0004403313505463,3.546016159816645e-05,1.0,1.0,-0.6556180119514465,0.0907256603240966
0.0176197998225688,-0.000372459879145,5.067028541816399e-05,7.56508597987704e-08,-0.0004408569657243,-1.5213678125292064e-05,1.0,1.0,-0.8922919631004333,0.0367456674575805
0.01762056350708,-0.000372459879145,7.19201925676316e-05,1.0570418851330032e-07,-0.0004417688178364,-2.154711182811297e-05,1.0,1.0,-0.5656799674034119,0.0441187620162963
0.017620850354433,-0.000372459879145,3.0545692425221205e-05,4.84487472363071e-08,-0.0004420733894221,-9.167847565549891e-06,1.0,1.0,-0.792805016040802,-0.3503126502037048
0.017620850354433,-0.000372459879145,-3.4961460642080056e-06,-4.742583659123056e-09,-0.0004418749304022,1.1563555517568602e-06,1.0,1.0,-0.8461710214614868,-0.1878083944320678
0.0176207534968853,-0.000372459879145,-1.2232473636686336e-05,-1.7713757571868882e-08,-0.0004415664297994,3.679080691654235e-06,1.0,1.0,-0.8945001363754272,-0.2507526874542236
