x_pos,y_pos,x_vel,y_vel,angle,ang_vel,leg_1,leg_2,main_booster,lat_booster
-0.0016368866199627,1.4033164978027344,-0.1658385246992111,-0.3379369974136352,0.0019212550250813,0.0379106476902961,0.0,0.0,-0.198008120059967,0.7184994220733643
-0.0033238411415368,1.395424723625183,-0.1691097319126129,-0.3507414758205414,0.0023261797614395,0.0081003587692976,0.0,0.0,-0.0013319253921508,0.8323991298675537
-0.0050391196273267,1.387218952178955,-0.1699807047843933,-0.3647045791149139,0.0007969088619574,-0.0305883344262838,0.0,0.0,0.1409701108932495,0.8589150905609131
-0.0068876268342137,1.3792197704315186,-0.1816045343875885,-0.3555161654949188,-0.0024131142999976,-0.0642068237066268,0.0,0.0,-0.1246670484542846,0.5227475166320801
-0.0087875369936227,1.370914340019226,-0.1855599880218505,-0.3691445589065552,-0.0067994487471878,-0.0877345949411392,0.0,0.0,-0.2319108843803405,0.5461006164550781
-0.0107323648408055,1.362300157546997,-0.1887820363044738,-0.3828957676887512,-0.0124327251687645,-0.1126758605241775,0.0,0.0,-0.2452844381332397,0.1525243520736694
-0.0127705577760934,1.3533782958984375,-0.1982108503580093,-0.3965841233730316,-0.0179854221642017,-0.1110642775893211,0.0,0.0,-0.6796061396598816,0.504599928855896
-0.0148484231904149,1.344149112701416,-0.2009885311126709,-0.410281628370285,-0.0247042085975408,-0.1343879997730255,0.0,0.0,-0.4082134962081909,0.8644607067108154
-0.0169438365846872,1.3346197605133057,-0.2011329233646392,-0.4236916303634643,-0.0330186635255813,-0.1663044989109039,0.0,0.0,-0.6906853318214417,0.6524151563644409
-0.0190671924501657,1.324784755706787,-0.202713280916214,-0.4373439252376556,-0.0425419695675373,-0.1904837042093277,0.0,0.0,-0.8333724737167358,0.6653933525085449
-0.0212047584354877,1.3146400451660156,-0.2026953995227813,-0.4512290954589844,-0.0534913390874862,-0.2190072983503341,0.0,0.0,-0.5765971541404724,0.7878611087799072
-0.0233414657413959,1.304182052612305,-0.2009397745132446,-0.4653070271015167,-0.0661055669188499,-0.2523074746131897,0.0,0.0,-0.4533663988113403,0.6666654348373413
-0.0254767425358295,1.2934154272079468,-0.1992576122283935,-0.4792077243328094,-0.080246977508068,-0.2828544974327087,0.0,0.0,-0.7988057732582092,0.2132774591445922
-0.0276680942624807,1.2823433876037598,-0.2049665004014969,-0.4929101169109344,-0.0943082943558693,-0.2812519371509552,0.0,0.0,-0.6805877685546875,0.2529025077819824
-0.0299090389162302,1.2709659337997437,-0.2100264728069305,-0.5066127181053162,-0.1082914620637893,-0.2796890139579773,0.0,0.0,0.064612865447998,0.4394612312316894
-0.0321020111441612,1.2595572471618652,-0.2056510895490646,-0.5081052184104919,-0.1218655779957771,-0.2715067565441131,0.0,0.0,-0.2366964817047119,-0.2186131477355957
-0.0343308448791503,1.2478424310684204,-0.2093372046947479,-0.521809995174408,-0.1353650540113449,-0.2700138986110687,0.0,0.0,-0.0928494334220886,-0.0719960927963256
-0.0365882888436317,1.2358222007751465,-0.21230149269104,-0.5355119109153748,-0.148791566491127,-0.2685542702674866,0.0,0.0,-0.7483457922935486,-0.1759766936302185
-0.0388669967651367,1.2234961986541748,-0.2145280390977859,-0.5492150783538818,-0.162147581577301,-0.2671444118022918,0.0,0.0,-0.2887524962425232,-0.1110904812812805
-0.0411596298217773,1.2108643054962158,-0.2160028964281082,-0.5629184246063232,-0.1754356026649475,-0.26578488945961,0.0,0.0,-0.3461415767669678,-0.8323180079460144
-0.0435086265206337,1.1979458332061768,-0.2230527102947235,-0.5755988955497742,-0.1873409301042556,-0.2381279915571212,0.0,0.0,0.0588043928146362,-0.113602876663208
-0.045796014368534,1.185136795043945,-0.2170196771621704,-0.5708152055740356,-0.1991497576236724,-0.2361978590488433,0.0,0.0,0.082216739654541,-0.4514648914337158
-0.0479205138981342,1.172520637512207,-0.2012066841125488,-0.5622797012329102,-0.2105038613080978,-0.2271022349596023,0.0,0.0,0.2689458131790161,-0.6423732042312622
-0.0499708168208599,1.1599394083023071,-0.1952325403690338,-0.5605898499488831,-0.2204166948795318,-0.1982744038105011,0.0,0.0,0.4069360494613647,-0.4155240058898926
-0.0519952774047851,1.1478931903839111,-0.1921748965978622,-0.5369532704353333,-0.2308382242918014,-0.2084492146968841,0.0,0.0,-0.179979145526886,-0.4903285503387451
-0.0539918914437294,1.1355195045471191,-0.1894372552633285,-0.5515826344490051,-0.2412106096744537,-0.2074477970600128,0.0,0.0,0.2457747459411621,-0.8817999958992004
-0.0558828338980674,1.1236659288406372,-0.1806893646717071,-0.5282344222068787,-0.249751478433609,-0.1708174347877502,0.0,0.0,-0.4348400831222534,-0.3720230460166931
-0.0577285774052143,1.1115050315856934,-0.1762276887893676,-0.5419241189956665,-0.2582501471042633,-0.1699740439653396,0.0,0.0,-0.7363029718399048,-0.9254199266433716
-0.0596066489815712,1.0990782976150513,-0.1817726194858551,-0.5533808469772339,-0.2644249498844147,-0.1234963163733482,0.0,0.0,0.2212500572204589,-0.6835851669311523
-0.0614015571773052,1.0868911743164062,-0.1748159825801849,-0.5425035357475281,-0.2692049145698547,-0.0955990552902221,0.0,0.0,0.2449090480804443,-0.6901030540466309
-0.0629980117082595,1.0753414630889893,-0.1564019322395324,-0.5139182209968567,-0.2725234925746918,-0.066371813416481,0.0,0.0,-0.3797429800033569,-0.7313739061355591
-0.0645874962210655,1.063506007194519,-0.1573708802461624,-0.5263136625289917,-0.2741401493549347,-0.0323339365422725,0.0,0.0,0.5445849895477295,-0.7402728199958801
-0.0660349875688552,1.0525097846984863,-0.144517496228218,-0.4887666702270508,-0.2743710577487945,-0.0046181082725524,0.0,0.0,0.0451023578643798,-0.5530532002449036
-0.0674254447221756,1.0415661334991455,-0.1398732215166092,-0.4862328469753265,-0.2735254168510437,0.0169128440320491,0.0,0.0,-0.3203836679458618,-0.7114434242248535
-0.0687819495797157,1.0303380489349363,-0.1378693729639053,-0.4986151754856109,-0.2712491452693939,0.0455256178975105,0.0,0.0,-0.526174008846283,-0.3237944841384887
-0.0700475722551345,1.0188019275665283,-0.1288049072027206,-0.512299656867981,-0.2689484059810638,0.0460147932171821,0.0,0.0,-0.3258616328239441,-0.6643394827842712
-0.0712712258100509,1.0069764852523804,-0.126004546880722,-0.524910032749176,-0.2652235925197601,0.0744960457086563,0.0,0.0,0.0384472608566284,-0.7345068454742432
-0.0722983330488205,0.9955533146858216,-0.1078542470932006,-0.5067756175994873,-0.259968489408493,0.1051022633910179,0.0,0.0,-0.4566300511360168,-0.2365972399711609
-0.0732223540544509,0.9838225245475768,-0.0975741147994995,-0.5204619765281677,-0.2546933889389038,0.1055024713277816,0.0,0.0,-0.3022530078887939,-0.6481162309646606
-0.0740868598222732,0.9718033671379088,-0.0928700119256973,-0.5330823063850403,-0.2481498718261718,0.1308704912662506,0.0,0.0,-0.7864784002304077,-0.1350635290145874
-0.074841596186161,0.9594769477844238,-0.0819206088781356,-0.5467700362205505,-0.2415887415409088,0.131222516298294,0.0,0.0,-0.9308817386627196,-0.1216410398483276
-0.0754836052656173,0.9468430876731871,-0.0706746727228164,-0.5604578256607056,-0.2350110411643982,0.1315535902976989,0.0,0.0,-0.8934097290039062,-0.0265061855316162
-0.0760101303458213,0.933901846408844,-0.0591557696461677,-0.5741455554962158,-0.22841776907444,0.1318656951189041,0.0,0.0,-0.979122281074524,0.2804925441741943
-0.0764187797904014,0.9206531643867492,-0.0473859868943691,-0.5878334045410156,-0.2218097299337387,0.1321606934070587,0.0,0.0,-0.7171413898468018,0.1644972562789917
-0.0767070800065994,0.9070972204208374,-0.0353859439492225,-0.601521372795105,-0.2151877433061599,0.1324398219585418,0.0,0.0,-0.911899209022522,-0.1268060207366943
-0.0768731087446212,0.8932338356971741,-0.0231747739017009,-0.6152093410491943,-0.2085524797439575,0.132705345749855,0.0,0.0,-0.952296793460846,0.0909935235977172
-0.0769148841500282,0.879063069820404,-0.0107702296227216,-0.6288973689079285,-0.2019045799970626,0.1329582184553146,0.0,0.0,-0.9617366790771484,0.0881048440933227
-0.076830580830574,0.8645848631858826,0.0018112976104021,-0.6425853967666626,-0.1952446103096008,0.1331995278596878,0.0,0.0,-0.958642601966858,0.5221641063690186
-0.0765865296125412,0.849794328212738,0.0185808949172496,-0.6565954685211182,-0.1893876045942306,0.1171401366591453,0.0,0.0,-0.9851943850517272,-0.6076827049255371
-0.0762624740600586,0.8347088694572449,0.0253149662166833,-0.6695753335952759,-0.1822581142187118,0.1425895392894745,0.0,0.0,-0.9618113040924072,-0.3693470954895019
-0.0758079513907432,0.8193161487579346,0.0383413434028625,-0.683263897895813,-0.175118014216423,0.1428020000457763,0.0,0.0,-0.960933804512024,0.0120190382003784
-0.0752216354012489,0.8036162853240967,0.051491193473339,-0.6969525218009949,-0.1679676920175552,0.143006145954132,0.0,0.0,-0.8748164176940918,0.2599163055419922
-0.0745025649666786,0.7876090407371521,0.0647537559270858,-0.7106412053108215,-0.1608075648546219,0.143202468752861,0.0,0.0,-0.8014131188392639,-0.001540720462799
-0.0736496895551681,0.7712945938110352,0.0781192034482956,-0.724329948425293,-0.1536379903554916,0.1433914452791214,0.0,0.0,-0.8286293745040894,0.1467047929763794
-0.0726619735360145,0.7546729445457458,0.0915785282850265,-0.7380186915397644,-0.1464593410491943,0.143573373556137,0.0,0.0,-0.59764564037323,0.0414608716964721
-0.0715386420488357,0.7377439737319946,0.1051234826445579,-0.7517074346542358,-0.1392719149589538,0.143748477101326,0.0,0.0,-0.7778741717338562,0.3281557559967041
-0.0702789276838302,0.7205078601837158,0.1187465414404869,-0.765396237373352,-0.1320760548114776,0.1439169198274612,0.0,0.0,-0.749542772769928,0.2811269760131836
-0.0688822716474533,0.7029644846916199,0.1324408054351806,-0.779085099697113,-0.1248721107840538,0.1440787613391876,0.0,0.0,-0.8369204998016357,0.5877659320831299
-0.0672953575849533,0.6851100325584412,0.1527601778507232,-0.7930517196655273,-0.1189769580960273,0.1179029196500778,0.0,0.0,-0.7773991823196411,-0.2999004125595093
-0.0655701607465744,0.6669479608535767,0.1665787100791931,-0.8067390322685242,-0.1130743697285652,0.1180520057678222,0.0,0.0,-0.4879343509674072,-0.5897929668426514
-0.0637490302324295,0.6484807729721069,0.1750881373882293,-0.8202494382858276,-0.1060899943113327,0.1396871209144592,0.0,0.0,-0.3760877847671509,-0.731301486492157
-0.0618553161621093,0.6297208666801453,0.1806125044822693,-0.8331721425056458,-0.0973960757255554,0.1738782525062561,0.0,0.0,-0.5501003861427307,-0.3658835887908935
-0.059821892529726,0.6106541752815247,0.1945777535438537,-0.8468630313873291,-0.0886957868933677,0.1740055680274963,0.0,0.0,-0.3269789814949035,-0.964015543460846
-0.0577210411429405,0.5912919640541077,0.1994301825761795,-0.8599473834037781,-0.078143335878849,0.2110485583543777,0.0,0.0,0.4845787286758423,-0.6998483538627625
-0.0554992668330669,0.5721624493598938,0.210088163614273,-0.849608838558197,-0.0661785900592804,0.2392949759960174,0.0,0.0,0.2884232997894287,-0.7473227381706238
-0.0532735809683799,0.5534341931343079,0.2091064900159835,-0.8318265080451965,-0.0528617165982723,0.266337513923645,0.0,0.0,-0.009312629699707,-0.5904368162155151
-0.0509513840079307,0.5344110727310181,0.2175895720720291,-0.8450212478637695,-0.0384059995412826,0.2891145348548889,0.0,0.0,0.7605621814727783,-0.1813039779663086
-0.0483883842825889,0.5155449509620667,0.2412501275539398,-0.8381761908531189,-0.02354172244668,0.2972854971885681,0.0,0.0,0.9136744737625122,-0.0917083024978637
-0.0456290245056152,0.4978556931018829,0.2607205808162689,-0.786022961139679,-0.0085292859002947,0.3002488911151886,0.0,0.0,0.7652117013931274,-0.6127773523330688
-0.0428802482783794,0.4806196093559265,0.2587116062641144,-0.7660350799560547,0.0074298088438808,0.3191821277141571,0.0,0.0,0.777934193611145,0.462631344795227
-0.0400937087833881,0.4641708135604858,0.2629514336585998,-0.7312103509902954,0.0229341015219688,0.310085654258728,0.0,0.0,0.1500999927520752,0.2064119577407837
-0.0371535308659076,0.4480677545070648,0.2782145738601684,-0.7160089612007141,0.0385391823947429,0.3121016323566437,0.0,0.0,0.5668632984161377,-0.3452612161636352
-0.0342239364981651,0.4328533411026001,0.2777247428894043,-0.6766564846038818,0.0535802654922008,0.3008218705654144,0.0,0.0,0.1718083620071411,-0.7953766584396362
-0.0311772339046001,0.4179476201534271,0.2878112196922302,-0.663163959980011,0.0702526345849037,0.3334474861621856,0.0,0.0,0.549302339553833,-0.2582408785820007
-0.0280454643070697,0.4032831490039825,0.2964856922626495,-0.6526231169700623,0.0867786034941673,0.3305195569992065,0.0,0.0,0.7687810659408569,-0.5743165016174316
-0.0247688293457031,0.3888329267501831,0.309641569852829,-0.6433770656585693,0.1046575084328651,0.357577919960022,0.0,0.0,0.7690463066101074,0.3892720937728882
-0.0214213375002145,0.3746158480644226,0.3169094920158386,-0.6332154870033264,0.1223783120512962,0.3544158935546875,0.0,0.0,0.7858192920684814,-0.0705900192260742
-0.0180452354252338,0.3613698780536651,0.3198669552803039,-0.5902652740478516,0.1400549709796905,0.3535329699516296,0.0,0.0,0.2256536483764648,0.0073034763336181
-0.0145523073151707,0.3487314581871032,0.33130544424057,-0.5634980797767639,0.1580031663179397,0.3589640259742737,0.0,0.0,0.6283251047134399,0.246142029762268
-0.0111531261354684,0.3369564116001129,0.3225055336952209,-0.5252801775932312,0.1754358857870102,0.3486546874046325,0.0,0.0,-0.0450993180274963,-0.1009219288825988
-0.0076116560958325,0.324877381324768,0.3367887735366821,-0.5389898419380188,0.1928639262914657,0.3485608696937561,0.0,0.0,0.6398922204971313,0.1655220985412597
-0.0040390966460108,0.3136610388755798,0.3397801518440246,-0.5008718371391296,0.2104715257883072,0.3521522283554077,0.0,0.0,0.2083836793899536,0.1866704225540161
-0.0004847526433877,0.3027350902557373,0.3383589386940002,-0.4881226420402527,0.2277297526597976,0.3451645374298095,0.0,0.0,0.2891796827316284,-0.0425215363502502
0.0030504227615892,0.292263388633728,0.3367225527763366,-0.4680947065353393,0.2447825521230697,0.3410555720329284,0.0,0.0,0.1464793682098388,0.5125033855438232
0.0066399574279785,0.2822073698043823,0.3432643711566925,-0.4496257603168487,0.2607715725898742,0.3197802305221557,0.0,0.0,0.4585314989089966,-0.0655146241188049
0.0103132249787449,0.2726210355758667,0.3513718247413635,-0.4289855062961578,0.277106761932373,0.3267044425010681,0.0,0.0,0.523918867111206,-0.0392646193504333
0.0140628814697265,0.263194739818573,0.358988881111145,-0.4220649302005768,0.2935320138931274,0.328504741191864,0.0,0.0,0.5306055545806885,-0.3314161896705627
0.017928123474121,0.2540368139743805,0.3702760338783264,-0.4103858768939972,0.3103423118591308,0.3362059593200683,0.0,0.0,0.7989611625671387,-0.0274595618247985
0.0218974109739065,0.2455362230539322,0.3800538182258606,-0.3815107047557831,0.3278796076774597,0.3507463335990906,0.0,0.0,0.5640335083007812,-0.0930070281028747
0.0260123256593942,0.2373255789279937,0.3941493034362793,-0.3689539134502411,0.3460118472576141,0.3626446723937988,0.0,0.0,0.9282267093658448,0.1107662916183471
0.0299642570316791,0.2300450652837753,0.3780143857002258,-0.3278163969516754,0.3640963435173034,0.3616903722286224,0.0,0.0,0.9151008129119872,-0.3930513262748718
0.0337770469486713,0.2237122654914856,0.3640719056129455,-0.2859373986721039,0.3823279738426208,0.3646324872970581,0.0,0.0,0.8938493728637695,-0.6260186433792114
0.0375401489436626,0.2182004302740097,0.3576837182044983,-0.2500958144664764,0.4022201299667358,0.3978432118892669,0.0,0.0,0.7567613124847412,-0.7086578011512756
0.0413649566471576,0.2128938734531402,0.3624274730682373,-0.241684228181839,0.4238162636756897,0.4319228231906891,0.0,0.0,0.7484813928604126,-0.6106168031692505
0.0450092330574989,0.2079541832208633,0.343569666147232,-0.225986510515213,0.4465123116970062,0.4539207816123962,0.0,0.0,0.7420017719268799,-0.1606151461601257
0.0484793670475482,0.204001322388649,0.3260363936424255,-0.1825581341981887,0.4695945382118225,0.4616445899009704,0.0,0.0,-0.0467827320098876,0.7308017015457153
0.052136518061161,0.1997834593057632,0.3463163077831268,-0.1941844671964645,0.4911758005619049,0.4316254556179046,0.0,0.0,0.0049092769622802,0.1247569322586059
0.055636215955019,0.1958493292331695,0.3311362862586975,-0.1817262470722198,0.5123763680458069,0.4240114688873291,0.0,0.0,-0.3057267665863037,0.2236745357513427
0.0592730529606342,0.1916122287511825,0.345096617937088,-0.1954425871372223,0.5335440635681152,0.4233533442020416,0.0,0.0,0.200061559677124,-0.57003253698349
0.062692642211914,0.187713161110878,0.3226505815982818,-0.1810676008462906,0.5558087229728699,0.4452936053276062,0.0,0.0,-0.1011685132980346,0.6902072429656982
0.0662856101989746,0.183552011847496,0.3413783311843872,-0.1925151199102401,0.5767561793327332,0.4189494550228119,0.0,0.0,0.0055010318756103,-0.5402337312698364
0.0697999000549316,0.1794193387031555,0.3328286409378052,-0.1919187605381012,0.5988028645515442,0.4409331679344177,0.0,0.0,0.3143800497055053,0.5967929363250732
0.0731330886483192,0.1755297780036926,0.3162438869476318,-0.1807902753353119,0.6193386912345886,0.4107164740562439,0.0,0.0,-0.2878944873809814,0.6245622634887695
0.0766306892037391,0.1713667660951614,0.3337826728820801,-0.1927482038736343,0.638816237449646,0.3895506560802459,0.0,0.0,-0.1778842806816101,0.7350189685821533
0.0803137794137001,0.1669625788927078,0.3541320264339447,-0.2028809040784835,0.6563568711280823,0.3508127331733703,0.0,0.0,0.6838029623031616,0.7606405019760132
0.0840044021606445,0.1628113090991974,0.3563182055950165,-0.1911379843950271,0.6723154187202454,0.3191709220409393,0.0,0.0,0.4008913040161133,0.4433562755584717
0.0875206962227821,0.1592285931110382,0.3386481404304504,-0.1662266105413437,0.688787579536438,0.3294430375099182,0.0,0.0,-0.0451447963714599,0.883002758026123
0.0912158042192459,0.1554079800844192,0.3582237362861633,-0.1760890036821365,0.703318178653717,0.2906115651130676,0.0,0.0,0.3092579841613769,0.8803451061248779
0.0947497338056564,0.1522545665502548,0.343733549118042,-0.1456815600395202,0.715886116027832,0.2513583898544311,0.0,0.0,0.14951753616333,0.9387321472167968
0.0982506722211837,0.1493830233812332,0.3421691060066223,-0.1322617381811142,0.7262906432151794,0.2080900371074676,0.0,0.0,-0.0941613316535949,0.2488535642623901
0.1018805503845214,0.1462040692567825,0.3551884591579437,-0.1459492892026901,0.736625611782074,0.2066995650529861,0.0,0.0,0.3014343976974487,0.8592610359191895
0.1053072959184646,0.1435337364673614,0.3364195525646209,-0.1224899962544441,0.7449890375137329,0.1672684550285339,0.0,0.0,-0.4022757411003113,0.7871172428131104
0.1089129447937011,0.1406224370002746,0.3558824360370636,-0.1322854459285736,0.7512916922569275,0.126053512096405,0.0,0.0,-0.3124473690986633,0.6002907752990723
0.1126701384782791,0.1374412626028061,0.3719184100627899,-0.1437659710645675,0.756442666053772,0.1030192747712135,0.0,0.0,-0.2743326425552368,-0.1160864233970642
0.1165509223937988,0.1339516788721084,0.3843560814857483,-0.1574472934007644,0.7615083456039429,0.1013139635324478,0.0,0.0,0.1719272136688232,0.8725142478942871
0.1203136444091796,0.1306385397911071,0.3740635514259338,-0.1486632376909256,0.7645312547683716,0.0604582726955413,0.0,0.0,-0.3849978446960449,-0.1199150681495666
0.1241963356733322,0.1270166188478469,0.3861366808414459,-0.1623429954051971,0.7674610614776611,0.0585964992642402,0.0,0.0,-0.0653821229934692,0.2080152034759521
0.1281971037387848,0.123086079955101,0.39800626039505,-0.176022469997406,0.7702940106391907,0.0566591992974281,0.0,0.0,0.2260456085205078,0.7145106792449951
0.132056325674057,0.1195374131202697,0.3850594460964203,-0.1582803130149841,0.7714925408363342,0.023970428854227,0.0,0.0,-0.2641763687133789,0.3084921836853027
0.1360289603471756,0.1156798899173736,0.3964730501174927,-0.1719589084386825,0.7725870609283447,0.0218905266374349,0.0,0.0,-0.1650273203849792,0.8301608562469482
0.1401674300432205,0.1115809753537178,0.4146098494529724,-0.1816769242286682,0.771530270576477,-0.0211355313658714,0.0,0.0,0.1109788417816162,-0.1239566802978515
