x_pos,y_pos,x_vel,y_vel,angle,ang_vel,leg_1,leg_2,main_booster,lat_booster
-0.0015138626331463,1.4035314321517944,-0.1541445702314376,-0.3283842504024505,0.0024742260575294,0.0488587692379951,0.0,0.0,-0.3425624370574951,0.8327622413635254
-0.0029417038895189,1.3960691690444946,-0.1441270858049392,-0.3316563069820404,0.0038025407120585,0.0265698470175266,0.0,0.0,0.3289158344268799,0.6491496562957764
-0.0041807172819972,1.3889973163604736,-0.1248932108283042,-0.3143137395381927,0.0047786897048354,0.0195248909294605,0.0,0.0,-0.5335412621498108,0.844398021697998
-0.0053412439301609,1.3818297386169434,-0.1163823455572128,-0.3185565769672394,0.0051103602163493,0.0066340416669845,0.0,0.0,-0.5488512516021729,0.5760889053344727
-0.006416511721909,1.3745715618133545,-0.1071669831871986,-0.3225851356983185,0.004752357956022,-0.0071605360135436,0.0,0.0,-0.6640493273735046,0.4492092132568359
-0.0074568749405443,1.3672205209732056,-0.1043687611818313,-0.3267191052436828,0.0050846766680479,0.0066471034660935,0.0,0.0,-0.6560660600662231,0.8434209823608398
-0.0083937644958496,1.3597769737243652,-0.093094527721405,-0.3308259844779968,0.0044959620572626,-0.0117754247039556,0.0,0.0,-0.3876030445098877,0.5027463436126709
-0.0092372894287109,1.3522419929504397,-0.0831937864422798,-0.3348763883113861,0.0033490499481558,-0.0229402165859937,0.0,0.0,-0.6954255104064941,-0.4339489936828613
-0.0100326538085937,1.3446142673492432,-0.0790586471557617,-0.3390103876590729,0.0028817777056246,-0.0093462960794568,0.0,0.0,-0.8928152322769165,0.4520890712738037
-0.010775757022202,1.3368935585021973,-0.0745180994272232,-0.3431444764137268,0.0030897965189069,0.0041606472805142,0.0,0.0,-0.8164101839065552,0.6086654663085938
-0.0114079471677541,1.3290804624557495,-0.0627156645059585,-0.3472452759742737,0.0025909494142979,-0.0099777076393365,0.0,0.0,-0.9147841930389404,0.3132023811340332
-0.0119804386049509,1.3211745023727417,-0.057420153170824,-0.3513794839382171,0.0027604156639426,0.0033895510714501,0.0,0.0,-0.721213161945343,0.3802343606948852
-0.0124897956848144,1.3131754398345947,-0.0517802014946937,-0.3555136919021606,0.0035931242164224,0.0166556350886821,0.0,0.0,-0.7837398648262024,-0.4293460249900818
-0.0129328723996877,1.3050835132598877,-0.0458158031105995,-0.3596480190753937,0.0050850710831582,0.0298418402671813,0.0,0.0,-0.7871418595314026,-0.0192711353302001
-0.0133066177368164,1.296898603439331,-0.0395470298826694,-0.3637826144695282,0.0072319093160331,0.042940504848957,0.0,0.0,-0.8399953842163086,0.52008056640625
-0.0135596273466944,1.2886152267456057,-0.0269057899713516,-0.3681598305702209,0.0088098431006073,0.0315619297325611,0.0,0.0,-0.8704589605331421,-0.2445484399795532
-0.0137379644438624,1.2802388668060305,-0.0200824830681085,-0.3722945749759674,0.0110342828556895,0.0444929040968418,0.0,0.0,-0.8418785333633423,0.4685636758804321
-0.0138391498476266,1.2717697620391846,-0.0130117861554026,-0.3764298558235168,0.013899702578783,0.057313896715641,0.0,0.0,-0.908255696296692,-0.1615723967552185
-0.0138608934357762,1.2632079124450684,-0.0057106465101242,-0.3805654346942901,0.0174015127122402,0.0700423419475555,0.0,0.0,-0.8677883744239807,0.266772985458374
-0.013801097869873,1.2545533180236816,0.0018042856827378,-0.3847015798091888,0.021534664556384,0.0826701745390892,0.0,0.0,-0.9539397358894348,0.7280089855194092
-0.013588142581284,1.2458137273788452,0.018254205584526,-0.3884764611721039,0.0245409961789846,0.06013198569417,0.0,0.0,-0.8879099488258362,0.3126101493835449
-0.0132899284362792,1.2369812726974487,0.0261559933423995,-0.3926129341125488,0.028169073164463,0.0725680217146873,0.0,0.0,-0.8912891149520874,0.8905758857727051
-0.012819099240005,1.2280585765838623,0.0449636653065681,-0.3966030478477478,0.0302606225013732,0.0418350882828235,0.0,0.0,-0.9135915040969848,0.4183764457702636
-0.0122597692534327,1.219043254852295,0.0531974844634532,-0.4007394015789032,0.0329630337655544,0.0540532395243644,0.0,0.0,-0.8079007267951965,0.2030824422836303
-0.0116106029599905,1.2099353075027466,0.0615749582648277,-0.4048763513565063,0.0362689718604087,0.0661245435476303,0.0,0.0,-0.7847751975059509,0.6288933753967285
-0.0108320238068699,1.2007185220718384,0.0748604983091354,-0.4097042083740234,0.0392242483794689,0.0591055229306221,0.0,0.0,-0.7344803810119629,0.0598953962326049
-0.0099611282348632,1.191409468650818,0.0835051462054252,-0.4138391315937042,0.0427719950675964,0.0709549263119697,0.0,0.0,-0.3739042282104492,-0.0266478061676025
-0.0089965816587209,1.182007908821106,0.0922648161649704,-0.4179744720458984,0.046906191855669,0.0826841741800308,0.0,0.0,-0.7883629202842712,0.6904058456420898
-0.0078949928283691,1.1725224256515503,0.1064769849181175,-0.4216893315315246,0.0505435168743133,0.0727461501955986,0.0,0.0,-0.8573347926139832,0.929297924041748
-0.0066269873641431,1.1629465818405151,0.1243463605642318,-0.4256804883480072,0.052970215678215,0.0485341995954513,0.0,0.0,-0.8879834413528442,-0.7596836090087891
-0.0053212167695164,1.1532821655273438,0.1260705888271331,-0.4296935200691223,0.0574264898896217,0.0891253426671028,0.0,0.0,-0.8337751626968384,0.2153433561325073
-0.0039184568449854,1.1435256004333496,0.1352058202028274,-0.433830052614212,0.0624418295919895,0.1003065556287765,0.0,0.0,-0.7356519103050232,-0.1020740270614624
-0.002418041229248,1.1336767673492432,0.1444168984889984,-0.4379672408103943,0.0680084004998207,0.1113313063979148,0.0,0.0,-0.5541688799858093,0.9188485145568848
-0.0007540702936239,1.1237342357635498,0.1618747413158416,-0.4421057105064392,0.0724842324852943,0.0895167291164398,0.0,0.0,-0.9114310145378112,0.1242926120758056
0.0010087967384606,1.1136995553970337,0.1712194085121154,-0.4462428689002991,0.0774943307042121,0.1002022996544838,0.0,0.0,-0.91362726688385,-0.5188162922859192
0.0028309822082519,1.103572130203247,0.1756218820810318,-0.4504661560058594,0.0840305015444755,0.1307233572006225,0.0,0.0,-0.9115920662879944,-0.0593498349189758
0.0047529218718409,1.0933527946472168,0.185079276561737,-0.4546055793762207,0.0910820215940475,0.1410302966833114,0.0,0.0,-0.9515038132667542,0.4098625183105469
0.0067749978043138,1.0830419063568115,0.1945860683917999,-0.4587458074092865,0.0986386314034462,0.1511322259902954,0.0,0.0,-0.7783117294311523,0.3773691654205322
0.0088974954560399,1.0726395845413208,0.2041380852460861,-0.4628868401050567,0.1066895499825477,0.1610180139541626,0.0,0.0,-0.9386779069900512,0.4350752830505371
0.0111207962036132,1.062145709991455,0.2137315273284912,-0.4670287668704986,0.1152233555912971,0.170676127076149,0.0,0.0,-0.8841593265533447,-0.6952126622200012
0.0133802415803074,1.051555633544922,0.2152445763349533,-0.471535861492157,0.1258588433265686,0.2127101421356201,0.0,0.0,-0.4638336896896362,0.7811185121536255
0.0158146861940622,1.0408867597579956,0.2341983765363693,-0.4749779403209686,0.1350740194320678,0.1843032240867614,0.0,0.0,-0.6105493307113647,-0.1797581315040588
0.0183505062013864,1.0301270484924316,0.2438953220844268,-0.4791221916675567,0.1447343230247497,0.1932061910629272,0.0,0.0,-0.4251526594161987,-0.7015135884284973
0.0209421161562204,1.0192652940750122,0.2478773593902588,-0.4838899970054626,0.155998021364212,0.2252742499113083,0.0,0.0,-0.2265543937683105,-0.0790681838989257
0.023635197430849,1.0083129405975342,0.257628858089447,-0.4880381524562835,0.1676785498857498,0.2336103469133377,0.0,0.0,-0.6187618374824524,-0.3461896181106567
0.0264297481626272,0.9972702264785768,0.2674035131931305,-0.4921873211860657,0.1797607541084289,0.2416440546512603,0.0,0.0,0.0174190998077392,-0.0180143117904663
0.0293136592954397,0.9865538477897644,0.2758023142814636,-0.4778591692447662,0.192402645945549,0.2528374195098877,0.0,0.0,-0.0243315696716308,0.0458046197891235
0.0322990417480468,0.9757474660873412,0.2856162488460541,-0.4820104837417602,0.2054140567779541,0.2602281272411346,0.0,0.0,0.0959528684616088,-0.7546388506889343
0.0351209640502929,0.9655768275260924,0.2675278782844543,-0.4541350603103637,0.2202172875404358,0.2960646748542785,0.0,0.0,0.514815092086792,0.6678938865661621
0.0379732139408588,0.9560078382492064,0.2716570794582367,-0.4273720979690552,0.2339693903923034,0.2750419974327087,0.0,0.0,0.4814763069152832,0.1550173759460449
0.040933322161436,0.9471413493156432,0.2815694212913513,-0.3964233994483948,0.2486331164836883,0.2932747304439544,0.0,0.0,0.1184706687927246,-0.2939748764038086
0.0438339225947856,0.9388964772224426,0.2755641639232635,-0.3689620792865753,0.2634143829345703,0.2956253886222839,0.0,0.0,0.2734931707382202,0.0547676086425781
0.0468275062739849,0.931091606616974,0.2842723727226257,-0.3496661484241485,0.2788640260696411,0.308992862701416,0.0,0.0,0.0711556673049926,0.0344512462615966
0.0497814193367958,0.9239447712898254,0.2801096141338348,-0.3206404149532318,0.2945820093154907,0.314359962940216,0.0,0.0,-0.0086570978164672,0.5547024011611938
0.0528883934020996,0.9167302846908568,0.2966146469116211,-0.323556512594223,0.3091340065002441,0.2910400629043579,0.0,0.0,0.3227038383483886,0.6206133365631104
0.0559477806091308,0.9099465012550354,0.2930779457092285,-0.3042973279953003,0.3224892318248749,0.2671044766902923,0.0,0.0,-0.0452784299850463,0.4632508754730224
0.0591073036193847,0.9030727744102478,0.3029641509056091,-0.3084489107131958,0.3360414803028106,0.2710444927215576,0.0,0.0,0.2318847179412841,0.6176276206970215
0.062353990972042,0.896903932094574,0.3125941455364227,-0.2770296931266784,0.348689317703247,0.2529568076133728,0.0,0.0,0.370774507522583,0.7088668346405029
0.0655823722481727,0.8916784524917603,0.311966598033905,-0.2349228709936142,0.3601359128952026,0.2289313822984695,0.0,0.0,0.1385515928268432,0.7016071081161499
0.0687139481306076,0.887125551700592,0.3036337196826935,-0.20477294921875,0.3702057003974914,0.2013958692550659,0.0,0.0,0.5357255935668945,0.7513706684112549
0.0719262138009071,0.8830174207687378,0.3129829168319702,-0.1847449690103531,0.3789364695549011,0.1746150851249694,0.0,0.0,0.6580748558044434,0.6908960342407227
0.0749246627092361,0.8797709941864014,0.2931148707866668,-0.1460903137922287,0.3860986828804016,0.1432439982891082,0.0,0.0,0.8134781122207642,0.6788125038146973
0.0779937729239463,0.8773325681686401,0.301125019788742,-0.1099541634321212,0.3922683298587799,0.1233927011489868,0.0,0.0,0.8647602796554565,0.4802205562591553
0.0809214562177658,0.8757761716842651,0.2868477702140808,-0.0708251968026161,0.3986047804355621,0.1267291009426117,0.0,0.0,0.9145758152008056,0.8600113391876221
0.0838400870561599,0.8748085498809814,0.2875691056251526,-0.0442169457674026,0.4032117426395416,0.0921390131115913,0.0,0.0,0.9636895656585692,0.7664215564727783
0.0864894837141037,0.8746592402458191,0.2624537348747253,-0.0073416698724031,0.4058772623538971,0.0533104240894317,0.0,0.0,0.9732067584991456,0.5839489698410034
0.0888979882001876,0.8758749961853027,0.2394593209028244,0.053636472672224,0.4073783755302429,0.0300217270851135,0.0,0.0,0.955918312072754,0.8346576690673828
0.0914266556501388,0.8775672912597656,0.2529095411300659,0.0752275958657264,0.407334566116333,-0.0008760709315538,0.0,0.0,0.9779019355773926,0.3263446092605591
0.0936767607927322,0.8805932402610779,0.2249743640422821,0.1344722807407379,0.4073760211467743,0.0008293370483443,0.0,0.0,0.9608463048934937,0.006606101989746
0.095697782933712,0.8842330574989319,0.2026314437389373,0.1619200855493545,0.4068157970905304,-0.0112047418951988,0.0,0.0,0.9106686115264891,0.129565954208374
0.0974071472883224,0.8887952566146851,0.1720095127820968,0.2030665129423141,0.4056589305400848,-0.0231374613940715,0.0,0.0,0.7128896713256836,0.5944523811340332
0.0990309715270996,0.8942018747329712,0.1646417677402496,0.2409431636333465,0.4032292366027832,-0.0485941469669342,0.0,0.0,-0.3392010927200317,0.7504096031188965
0.1007895469665527,0.8995498418807983,0.1794009506702423,0.238692820072174,0.3994232714176178,-0.0761192291975021,0.0,0.0,-0.1675507426261901,0.7030937671661377
0.1026988998055458,0.9048405885696412,0.1961681395769119,0.236597791314125,0.393822580575943,-0.1120136976242065,0.0,0.0,-0.4822379350662231,0.1607720851898193
0.1047014221549034,0.910037636756897,0.2056668996810913,0.2324689924716949,0.3880404829978943,-0.1156418547034263,0.0,0.0,0.1576541662216186,0.1957128047943115
0.1067543998360633,0.9154844284057616,0.2107030600309372,0.2435422986745834,0.3822797238826751,-0.1152150258421897,0.0,0.0,-0.0917093157768249,0.428112268447876
0.1088991165161132,0.920837700366974,0.2200999557971954,0.2394142597913742,0.37630295753479,-0.1195351928472518,0.0,0.0,0.1084243059158325,0.3496372699737549
0.1109342575073242,0.9268364310264589,0.2093877792358398,0.2681505978107452,0.370067834854126,-0.1247026100754737,0.0,0.0,-0.699792742729187,0.4908912181854248
0.1130596175789833,0.9327415823936462,0.2186660468578338,0.2640228569507599,0.3635846972465515,-0.1296623945236206,0.0,0.0,-0.4844391345977783,0.5776010751724243
0.1153074279427528,0.938578188419342,0.2321066409349441,0.2612439095973968,0.3558657467365265,-0.1543792337179184,0.0,0.0,-0.4209223389625549,0.5547206401824951
0.1176774054765701,0.9443341493606568,0.2454372644424438,0.2578817903995514,0.3469823598861694,-0.1776675879955291,0.0,0.0,-0.1981037855148315,0.171451449394226
0.120135024189949,0.9499966502189636,0.2545028924942016,0.2537516951560974,0.3378080427646637,-0.1834858804941177,0.0,0.0,-0.633064866065979,-0.1386951208114624
0.1226792335510253,0.955566108226776,0.2634865641593933,0.2496212571859359,0.328329861164093,-0.1895633935928344,0.0,0.0,-0.7657511234283447,-0.3921064138412475
0.1253089010715484,0.96104234457016,0.2723824679851532,0.2454904913902282,0.318535566329956,-0.1958862841129303,0.0,0.0,-0.8435671329498291,-0.4395716786384582
0.1280231475830078,0.9664255380630492,0.2811844944953918,0.2413592487573623,0.3084135353565216,-0.2024409025907516,0.0,0.0,-0.7093483209609985,-0.8605831861495972
0.130765825510025,0.971689224243164,0.2829161286354065,0.2357543259859085,0.2994518280029297,-0.1792342066764831,0.0,0.0,-0.8987299203872681,-0.9224329590797424
0.133525937795639,0.9768199324607848,0.2832755148410797,0.2295065820217132,0.2919531464576721,-0.1499730348587036,0.0,0.0,-0.2287216782569885,-0.6760993599891663
0.1363250762224197,0.9818326830863952,0.2864067852497101,0.2240771949291229,0.2852632701396942,-0.1337972581386566,0.0,0.0,-0.3555185794830322,-0.8086692094802856
0.1391578614711761,0.986731231212616,0.2889419198036194,0.218801736831665,0.2794469594955444,-0.1163259521126747,0.0,0.0,0.2696011066436767,-0.9403299689292908
0.1420352905988693,0.9919863343238832,0.2918561995029449,0.234345868229866,0.2752235233783722,-0.0844684988260269,0.0,0.0,0.1952645778656005,0.2710754871368408
0.1448382437229156,0.9979302287101746,0.2848007380962372,0.2650211155414581,0.2705980837345123,-0.0925090685486793,0.0,0.0,0.4460011720657348,0.2262879610061645
0.1475653648376464,1.0047507286071775,0.2774880528450012,0.3040061891078949,0.2657079100608825,-0.0978032052516937,0.0,0.0,-0.26203453540802,0.7009905576705933
0.1504302024841308,1.0115060806274414,0.2933427095413208,0.3014650046825409,0.2587061822414398,-0.1400348544120788,0.0,0.0,-0.3835287094116211,0.0661635398864746
0.1533673256635666,1.0181677341461182,0.3009727299213409,0.2973374426364898,0.2513025403022766,-0.1480728685855865,0.0,0.0,0.0821733474731445,-0.00246262550354
0.1562586724758148,1.0252076387405396,0.2969610691070556,0.3142043948173523,0.2433325946331024,-0.1593989431858062,0.0,0.0,-0.1226871013641357,0.0766973495483398
0.1592186987400055,1.032154202461243,0.3042407929897308,0.3100753426551819,0.2349510639905929,-0.1676307916641235,0.0,0.0,-0.4939534068107605,-0.378564715385437
0.1622454673051834,1.039007544517517,0.3113318085670471,0.305945485830307,0.2261539250612259,-0.1759425550699234,0.0,0.0,0.1999505758285522,-0.7388216853141785
0.1650493592023849,1.0465644598007202,0.2881464958190918,0.3370338976383209,0.2183105498552322,-0.1568672955036163,0.0,0.0,-0.3488328456878662,0.1537595987319946
0.1679158210754394,1.054028034210205,0.2948317527770996,0.3329043388366699,0.2100452482700348,-0.1653059422969818,0.0,0.0,-0.027471899986267,-0.3980181813240051
0.1708427369594574,1.0613986253738403,0.3013007044792175,0.3287740051746368,0.2013556659221649,-0.1737916767597198,0.0,0.0,-0.4910889863967895,-0.6920064091682434
0.1737660467624664,1.0686620473861694,0.2998193502426147,0.3238168060779571,0.1938180476427078,-0.1507519334554672,0.0,0.0,-0.7168596386909485,-0.6732653975486755
0.1766910552978515,1.0758137702941897,0.2990239262580871,0.318694919347763,0.1872622966766357,-0.1311149448156356,0.0,0.0,0.074987769126892,-0.0954437255859375
0.1795219480991363,1.083427667617798,0.2903963029384613,0.3392994701862335,0.1799270957708358,-0.1467041671276092,0.0,0.0,-0.5762470364570618,-0.6684049367904663
0.1823389083147049,1.0909289121627808,0.2877644002437591,0.3341134786605835,0.173839583992958,-0.1217503398656845,0.0,0.0,-0.2490175366401672,0.179864764213562
0.1852040290832519,1.098336696624756,0.2930174469947815,0.3299844861030578,0.1673236191272735,-0.1303191930055618,0.0,0.0,-0.6549860239028931,0.2324204444885254
0.1881146430969238,1.1056513786315918,0.2980029284954071,0.3258547484874725,0.1603798419237136,-0.1388756185770034,0.0,0.0,-0.6630526781082153,-0.8586593866348267
0.1910163909196853,1.1128668785095217,0.2962530255317688,0.3213278353214264,0.1543103754520416,-0.1213892549276351,0.0,0.0,-0.0631822943687439,0.0042914152145385
0.1939581930637359,1.1199889183044434,0.3006819486618042,0.317198097705841,0.1478156745433807,-0.1298937946557998,0.0,0.0,-0.3626539707183838,-0.7573212385177612
0.1968910247087478,1.127016305923462,0.2990615963935852,0.3128906190395355,0.1420487314462661,-0.1153388768434524,0.0,0.0,-0.1542564034461975,0.6804714202880859
0.1999180763959884,1.1339634656906128,0.3104464411735534,0.3094820082187652,0.1343281418085098,-0.1544116735458374,0.0,0.0,-0.3475441932678222,-0.986962080001831
0.2028970718383789,1.1408114433288574,0.3040807247161865,0.3048993349075317,0.1281801611185073,-0.1229597106575965,0.0,0.0,-0.0614795684814453,-0.9958286285400392
0.2058333456516266,1.1475613117218018,0.2984355986118316,0.3003970086574554,0.1234015971422195,-0.0955715030431747,0.0,0.0,-0.3596693277359009,-0.9540660977363586
0.2087305039167404,1.1542009115219116,0.2932738661766052,0.2953838407993316,0.1198636814951896,-0.0707586556673049,0.0,0.0,-0.507500946521759,-0.4830081462860107
0.2116498947143554,1.1607470512390137,0.2959101796150207,0.2912546992301941,0.1159183457493782,-0.0789068788290023,0.0,0.0,-0.3539294004440307,-0.9662885069847108
0.2144966125488281,1.1671810150146484,0.2866947948932647,0.2861153483390808,0.1139102652668953,-0.0401616245508194,0.0,0.0,0.0743941068649292,-0.0045939087867736
0.2173039466142654,1.1740657091140747,0.2832214832305908,0.3061667680740356,0.1114389225840568,-0.0494267083704471,0.0,0.0,-0.362784743309021,-0.7997961044311523
0.2200643569231033,1.1808451414108276,0.277389645576477,0.3014090359210968,0.1101015731692314,-0.0267470180988311,0.0,0.0,-0.3700066804885864,0.4119020700454712
0.2228348702192306,1.1875311136245728,0.2787917256355285,0.2972802817821502,0.1083761826157569,-0.0345078334212303,0.0,0.0,-0.7278422713279724,-0.8219571709632874
0.2255580872297287,1.1941184997558594,0.2730611264705658,0.2928197085857391,0.1076411232352256,-0.0147010441869497,0.0,0.0,-0.2328581809997558,-0.9020657539367676
0.2282168418169021,1.200609803199768,0.2652581036090851,0.28845876455307,0.1082506477832794,0.012190674431622,0.0,0.0,-0.2902848124504089,-0.7059221267700195
0.2308277189731598,1.2069917917251587,0.2595764398574829,0.2835312187671661,0.109752357006073,0.0300341192632913,0.0,0.0,0.0302569866180419,-0.9809126853942872
0.2333908975124359,1.213855266571045,0.2532414197921753,0.3048156797885895,0.1128107607364654,0.0611680038273334,0.0,0.0,-0.0899810791015625,0.9184068441390992
