x_pos,y_pos,x_vel,y_vel,angle,ang_vel,leg_1,leg_2,main_booster,lat_booster
-0.0014994621742516,1.4031355381011963,-0.1514186561107635,-0.3459888398647308,0.0013201204128563,0.0260076522827148,0.0,0.0,-0.0973491072654724,0.8220102787017822
-0.0029027939308434,1.3948808908462524,-0.1394053399562835,-0.3668695092201233,0.0004049037233926,-0.0183056332170963,0.0,0.0,-0.119454026222229,-0.0359413027763366
-0.0042781829833984,1.386136770248413,-0.13616344332695,-0.3886312246322632,-0.0009469155338592,-0.0270388126373291,0.0,0.0,0.2417703866958618,0.2555830478668213
-0.0057127950713038,1.3774667978286743,-0.1412241905927658,-0.3853319883346557,-0.0031667347066104,-0.0444006919860839,0.0,0.0,0.1681065559387207,0.3520177602767944
-0.007023143582046,1.368998885154724,-0.1287881284952163,-0.3763565421104431,-0.0053889877162873,-0.0444491505622863,0.0,0.0,-0.3418271541595459,0.6794569492340088
-0.0082345008850097,1.3600406646728516,-0.116763912141323,-0.398171991109848,-0.0097028873860836,-0.0862863436341285,0.0,0.0,0.1610592603683471,-0.2056344747543335
-0.0094223022460937,1.3512024879455566,-0.113896369934082,-0.3928448557853699,-0.0145335337147116,-0.0966218411922454,0.0,0.0,-0.2096951007843017,0.0315572023391723
-0.0105729103088378,1.341875672340393,-0.1097298413515091,-0.4145902395248413,-0.0198075659573078,-0.1054902821779251,0.0,0.0,-0.4060689210891723,-0.5140913724899292
-0.0117257116362452,1.3320670127868652,-0.1105523705482482,-0.4360120594501495,-0.0244869906455278,-0.0935970246791839,0.0,0.0,-0.1990071535110473,-0.2493683099746704
-0.0128377918154001,1.3217695951461792,-0.1060255393385887,-0.4577528238296509,-0.0296126380562782,-0.1025225147604942,0.0,0.0,-0.2409025430679321,0.0966570377349853
-0.0139073375612497,1.310983657836914,-0.1013190001249313,-0.479494035243988,-0.0351850688457489,-0.1114587560296058,0.0,0.0,-0.022168219089508,-0.3586990237236023
-0.0149325374513864,1.2997093200683594,-0.0964353755116462,-0.5012362003326416,-0.0412056595087051,-0.1204229742288589,0.0,0.0,0.5820199251174927,-0.4197257757186889
-0.0157593730837106,1.288942813873291,-0.0767448842525482,-0.4786900877952575,-0.0470858849585056,-0.1176152825355529,0.0,0.0,-0.5978046655654907,-0.9437596797943116
-0.0166046135127544,1.2776834964752195,-0.0798036381602287,-0.5005725622177124,-0.0517604798078537,-0.0935003459453582,0.0,0.0,-0.7734787464141846,-0.4759868383407593
-0.0174005515873432,1.2659358978271484,-0.0744104832410812,-0.5223109126091003,-0.0568874105811119,-0.1025480031967163,0.0,0.0,-0.0063815712928771,-0.8305330276489258
-0.018199348822236,1.2536944150924685,-0.075604535639286,-0.5442315936088562,-0.0611196011304855,-0.084651805460453,0.0,0.0,-0.3844717741012573,-0.8783538937568665
-0.0189984329044818,1.240979552268982,-0.0765431150794029,-0.5652456283569336,-0.0644583404064178,-0.0667805299162864,0.0,0.0,-0.8233591914176941,-0.8662087321281433
-0.0197958946228027,1.2277737855911257,-0.0772413089871406,-0.5870344638824463,-0.0669398456811904,-0.049634613096714,0.0,0.0,-0.7690982818603516,-0.7984874248504639
-0.0205902103334665,1.2140921354293823,-0.0778060406446456,-0.6081447601318359,-0.0685447826981544,-0.0321018435060977,0.0,0.0,-0.2767655849456787,-0.8032926917076111
-0.0213991161435842,1.199928879737854,-0.0806431099772453,-0.6294915676116943,-0.0687965601682663,-0.0050357794389128,0.0,0.0,-0.2637487649917602,-0.8043599128723145
-0.0221993438899517,1.1852879524230957,-0.0805751457810401,-0.650684118270874,-0.0682447999715805,0.0110360821709036,0.0,0.0,-0.5576878786087036,-0.3647264242172241
-0.0229395870119333,1.1701582670211792,-0.0741232633590698,-0.6724252104759216,-0.0681525394320488,0.0018454659730196,0.0,0.0,-0.6779469847679138,-0.6894807815551758
-0.0236613266170024,1.154543399810791,-0.072890929877758,-0.6939650774002075,-0.0674439668655395,0.0141725931316614,0.0,0.0,-0.7739142775535583,-0.6269782185554504
-0.0243645664304494,1.138437271118164,-0.0716892629861831,-0.71576988697052,-0.0660951733589172,0.0269783176481723,0.0,0.0,-0.8102402091026306,-0.5245037078857422
-0.0250551216304302,1.1218488216400146,-0.0712565258145332,-0.7371634244918823,-0.0639173164963722,0.0435611456632614,0.0,0.0,-0.2229440212249755,-0.2513496875762939
-0.0256815906614065,1.104750394821167,-0.0643800646066665,-0.7598567605018616,-0.0622012093663215,0.034322015941143,0.0,0.0,-0.3515257835388183,-0.5678678750991821
-0.026286220178008,1.0871710777282717,-0.0628657191991806,-0.7812066674232483,-0.0598226264119148,0.0475717708468437,0.0,0.0,-0.3915631771087646,-0.5365690588951111
-0.0268748290836811,1.0691133737564087,-0.0621111802756786,-0.8024405241012573,-0.056604329496622,0.0643659606575965,0.0,0.0,-0.0891789197921752,0.6057307720184326
-0.0273571964353323,1.0505688190460205,-0.050075214356184,-0.8241358995437622,-0.0547901354730129,0.0362837091088295,0.0,0.0,0.5448319911956787,-0.4206984043121338
-0.0277647022157907,1.0322200059890747,-0.0420292243361473,-0.8154582381248474,-0.0535270348191261,0.0252622365951538,0.0,0.0,0.0580279827117919,-0.6757935285568237
-0.0281122215092182,1.0142054557800293,-0.0369356088340282,-0.8005737662315369,-0.0513635165989398,0.0432705394923687,0.0,0.0,-0.1965658068656921,0.1577427387237548
-0.02838821336627,0.9957020878791808,-0.0293252356350421,-0.8223128914833069,-0.0496586300432682,0.0340976417064666,0.0,0.0,-0.3790311813354492,0.315243124961853
-0.0285919196903705,0.9767099022865297,-0.0216250456869602,-0.8440515995025635,-0.0484113432466983,0.0249457079917192,0.0,0.0,0.2892972230911255,-0.3402177095413208
-0.0287583358585834,0.957654356956482,-0.0172126442193985,-0.8468950986862183,-0.0478505082428455,0.0112167410552501,0.0,0.0,-0.3303531408309936,-0.7743722796440125
-0.0289102550595998,0.9381160140037536,-0.0168140903115272,-0.8683233857154846,-0.0462451502680778,0.0321071930229663,0.0,0.0,0.8032844066619873,0.3547840118408203
-0.028929328545928,0.9193243384361268,-0.0031629528384655,-0.8351432085037231,-0.0450011491775512,0.0248799659311771,0.0,0.0,-0.3545602560043335,0.0864738225936889
-0.0288727767765522,0.9000439047813416,0.0048512825742363,-0.8568817377090454,-0.0442084223031997,0.0158545617014169,0.0,0.0,0.2810170650482178,-0.0953535437583923
-0.0286843292415142,0.8811573386192322,0.0183537695556879,-0.8393939733505249,-0.0437282361090183,0.0096038291230797,0.0,0.0,-0.0516682863235473,0.1273910999298095
-0.0284189227968454,0.861781895160675,0.026498720049858,-0.8611323237419128,-0.0436946749687194,0.0006714437622576,0.0,0.0,0.1281483173370361,-0.2610803842544555
-0.0280385967344045,0.8425383567810059,0.0383546501398086,-0.8552785515785217,-0.0440156832337379,-0.0064200065098702,0.0,0.0,0.1727635860443115,-0.4562385082244873
-0.0276315696537494,0.8236391544342041,0.0418298840522766,-0.8399937748908997,-0.0451280139386653,-0.0222467277199029,0.0,0.0,-0.4575655460357666,-0.6813600063323975
-0.0271886829286813,0.804252564907074,0.0447613671422004,-0.8616389632225037,-0.0456001535058021,-0.0094427829608321,0.0,0.0,-0.2331776618957519,-0.3639159202575683
-0.0266666412353515,0.7843773365020752,0.0531174354255199,-0.8833772540092468,-0.0465057827532291,-0.0181122291833162,0.0,0.0,-0.0469658374786376,-0.3601372241973877
-0.0260650627315044,0.7640131711959839,0.0615161135792732,-0.9051157236099244,-0.0478406175971031,-0.0266968421638011,0.0,0.0,0.1331386566162109,-0.744886040687561
-0.0254647247493267,0.7434605956077576,0.0603515319526195,-0.913459837436676,-0.0481483452022075,-0.0061546121723949,0.0,0.0,0.1803491115570068,0.1833328008651733
-0.0247395522892475,0.7227745056152344,0.073098175227642,-0.9194015860557556,-0.0487236268818378,-0.0115055795758962,0.0,0.0,-0.1297847032546997,-0.0908233523368835
-0.0239336006343364,0.7015995383262634,0.0816010534763336,-0.9411399960517884,-0.0497126094996929,-0.019779710099101,0.0,0.0,0.5666919946670532,-0.9198919534683228
-0.023199463263154,0.6811444759368896,0.073123499751091,-0.9090989232063292,-0.0494283810257911,0.0056848647072911,0.0,0.0,-0.0219908952713012,-0.6237955093383789
-0.0224437713623046,0.6602107882499695,0.0741452574729919,-0.9303438663482666,-0.0480291806161403,0.027983833104372,0.0,0.0,0.7643270492553711,-0.7589895129203796
-0.0216650962829589,0.6396059989929199,0.0753763616085052,-0.915691077709198,-0.0455649308860302,0.0492850430309772,0.0,0.0,0.758002519607544,-0.9051215648651124
-0.0206787101924419,0.6194161772727966,0.0944269672036171,-0.8972070813179016,-0.0414079651236534,0.0831393674015998,0.0,0.0,0.1562178134918213,-0.6648444533348083
-0.0196866039186716,0.5995209217071533,0.094110295176506,-0.8841025233268738,-0.0363639928400516,0.1008792147040367,0.0,0.0,0.536752462387085,-0.8325189352035522
-0.0185494422912597,0.5797498226165771,0.1071351915597915,-0.8785693645477295,-0.0298616848886013,0.1300461590290069,0.0,0.0,0.7321557998657227,-0.6879585385322571
-0.0173553470522165,0.5607529878616333,0.1117857545614242,-0.8441694974899292,-0.0223386902362108,0.1504598557949066,0.0,0.0,0.4677321910858154,0.0176553726196289
-0.0159365646541118,0.5419131517410278,0.133978933095932,-0.83722984790802,-0.0145487887784838,0.1557979881763458,0.0,0.0,0.6036931276321411,0.1027554273605346
-0.0145213128998875,0.5232730507850647,0.1344124972820282,-0.8283973932266235,-0.0075214207172393,0.1405473053455352,0.0,0.0,0.7583489418029785,-0.4746134877204895
-0.012916755862534,0.5054157376289368,0.1531884223222732,-0.7936392426490784,-0.0003518441226333,0.1433917135000229,0.0,0.0,-0.1396051049232483,-0.7535863518714905
-0.0112755773589015,0.4870733022689819,0.1560066491365432,-0.8152427077293396,0.0076657733879983,0.1603522598743438,0.0,0.0,0.7236734628677368,-0.1750332117080688
-0.0094801904633641,0.4695318639278412,0.171350359916687,-0.7796825170516968,0.0157515425235033,0.1617151796817779,0.0,0.0,0.77911376953125,-0.4265950918197632
-0.0076973913237452,0.4527692794799804,0.1707525998353958,-0.7451010942459106,0.0231808591634035,0.1485865414142608,0.0,0.0,0.4891860485076904,-0.2994091510772705
-0.0057936669327318,0.4360204041004181,0.1829003244638443,-0.744527280330658,0.0305628925561904,0.1476403623819351,0.0,0.0,0.559714674949646,-0.8094210028648376
-0.0039969445206224,0.4197724461555481,0.1709744036197662,-0.722330629825592,0.0391408801078796,0.1715596616268158,0.0,0.0,0.0724654197692871,-0.0980473160743713
-0.0020510673057287,0.4035443067550659,0.1857570260763168,-0.7215091586112976,0.0478640347719192,0.174463003873825,0.0,0.0,0.4386553764343261,-0.6282653212547302
-7.600784010719508e-05,0.3876267075538635,0.1875884234905243,-0.7077963948249817,0.0576760284602642,0.1962399035692215,0.0,0.0,-0.0263351798057556,0.3367325067520141
0.0019809722434729,0.3712210953235626,0.1959640979766845,-0.7295401692390442,0.0673003047704696,0.1924857199192047,0.0,0.0,0.9327359199523926,-0.3379279375076294
0.0039285658858716,0.3553476333618164,0.1858709156513214,-0.705913245677948,0.076087012887001,0.175734132528305,0.0,0.0,0.9294884204864502,-0.1595630049705505
0.0059062959626317,0.3404836356639862,0.1889307796955108,-0.661095380783081,0.0848425477743148,0.1751110851764679,0.0,0.0,0.581025242805481,0.0687601566314697
0.0080192564055323,0.3255596756935119,0.2022309303283691,-0.6638243198394775,0.0938352718949318,0.17985400557518,0.0,0.0,0.8831115961074829,-0.3784897327423095
0.0101521490141749,0.3116050362586975,0.2041849195957183,-0.6208000183105469,0.1028655469417572,0.180605337023735,0.0,0.0,0.5483300685882568,-0.4543865919113159
0.0122315408661961,0.2978106737136841,0.1993408501148224,-0.6137001514434814,0.1114044189453125,0.1707774102687835,0.0,0.0,0.7676531076431274,-0.186853289604187
0.0142119405791163,0.2845916748046875,0.1899751275777816,-0.5881379842758179,0.1194270402193069,0.1604520976543426,0.0,0.0,0.8107495307922363,-0.4507925510406494
0.0162232406437397,0.2719062566757202,0.1929478943347931,-0.5644746422767639,0.1275654286146164,0.1627675890922546,0.0,0.0,0.6153349876403809,-0.5821896195411682
0.0180264469236135,0.2599328756332397,0.1713362783193588,-0.5329418182373047,0.1365108340978622,0.1789082437753677,0.0,0.0,0.4304684400558471,0.1264091730117797
0.0199016574770212,0.2482275068759918,0.1782548278570175,-0.5211120843887329,0.1457531601190567,0.1848463267087936,0.0,0.0,0.4255722761154175,0.2133843898773193
0.0217752456665039,0.2365287840366363,0.1782169640064239,-0.520865797996521,0.154884472489357,0.1826263964176178,0.0,0.0,0.4894537925720215,0.2877428531646728
0.0237394329160451,0.2247906476259231,0.1869600862264633,-0.5227056741714478,0.1643435359001159,0.1891812980175018,0.0,0.0,0.5983703136444092,0.6905715465545654
0.0257457736879587,0.2130490094423294,0.1925646215677261,-0.5227643847465515,0.1724190264940261,0.1615102142095565,0.0,0.0,0.619335412979126,-0.4100306034088135
0.0276836398988962,0.2019660621881485,0.1856894493103027,-0.4935354888439178,0.180540382862091,0.1624275594949722,0.0,0.0,0.6520431041717529,0.0496658086776733
0.0296257026493549,0.1916204541921615,0.1856370121240615,-0.460867702960968,0.1891346573829651,0.1718854755163192,0.0,0.0,0.1717132329940796,-0.0547979474067688
0.0314509384334087,0.1816186010837555,0.1742250174283981,-0.4456079602241516,0.1974817067384719,0.1669414341449737,0.0,0.0,0.146791934967041,-0.3135048151016235
0.0332119949162006,0.1714405864477157,0.1680921912193298,-0.4534426033496856,0.20555180311203,0.1614017784595489,0.0,0.0,0.7445521354675293,-0.035668671131134
0.034911822527647,0.1620136648416519,0.1616293489933014,-0.4201581180095672,0.2139742225408554,0.1684485375881195,0.0,0.0,0.6635901927947998,0.3224059343338012
0.0364544875919818,0.1529158949851989,0.1462342143058776,-0.4055278897285461,0.2220960408449173,0.1624367386102676,0.0,0.0,0.6946074962615967,0.0757346153259277
0.0378531441092491,0.1443291008472442,0.1319084763526916,-0.3828490376472473,0.2301444858312606,0.1609690189361572,0.0,0.0,0.8175742626190186,0.3732872009277344
0.0391252525150775,0.1363737434148788,0.1191455125808715,-0.3548513054847717,0.2383334189653396,0.1637787371873855,0.0,0.0,0.803492546081543,0.2087581157684326
0.0403998382389545,0.1288903802633285,0.1187527999281883,-0.3340260684490204,0.2471779435873031,0.1768902689218521,0.0,0.0,0.2905123233795166,0.7696230411529541
0.0417469032108783,0.121331125497818,0.1272983103990554,-0.3372331857681274,0.254727154970169,0.1509848535060882,0.0,0.0,0.3693721294403076,0.7551488876342773
0.0432069785892963,0.1138183698058128,0.1397512853145599,-0.3350011706352234,0.2611158490180969,0.1277740001678466,0.0,0.0,0.6397117376327515,-0.5115803480148315
0.0446850769221782,0.1066839769482612,0.1398967802524566,-0.3185151219367981,0.269215315580368,0.1619891226291656,0.0,0.0,-0.2140499353408813,0.6028640270233154
0.0462705604732036,0.099081166088581,0.1518494784832,-0.3391534090042114,0.2760792374610901,0.137278527021408,0.0,0.0,0.3945509195327759,-0.3189795017242431
0.0477258674800396,0.0919040739536285,0.1385980397462844,-0.3203079104423523,0.2831959426403045,0.1423341035842895,0.0,0.0,0.1826092004776001,0.11472749710083
0.0490949638187885,0.0850308984518051,0.1296216994524002,-0.3069052994251251,0.2907001376152038,0.1500844955444336,0.0,0.0,0.5234473943710327,-0.1620460152626037
0.0504390709102153,0.0786039680242538,0.12632916867733,-0.2872748374938965,0.2990302741527557,0.1666028201580047,0.0,0.0,0.1212501525878906,0.3545875549316406
0.0518213286995887,0.0720378458499908,0.1295559257268905,-0.2936291098594665,0.3079808950424194,0.1790128648281097,0.0,0.0,0.0380027294158935,0.3162977695465088
0.0531094558537006,0.0654273107647895,0.1200329661369323,-0.2956898510456085,0.3170914649963379,0.1822114437818527,0.0,0.0,0.1001213788986206,0.529066801071167
0.0543469414114952,0.0592033714056015,0.1156065836548805,-0.2784196734428406,0.3255460262298584,0.1690917015075683,0.0,0.0,0.4341416358947754,0.511475682258606
0.0554711334407329,0.0532034486532211,0.1050560623407363,-0.2683416306972503,0.3332319259643554,0.1537178456783294,0.0,0.0,0.4101030826568603,0.4375412464141845
0.0562965385615825,0.0476268865168094,0.075343333184719,-0.2495247274637222,0.3407630920410156,0.1506226956844329,0.0,0.0,0.6029336452484131,0.8494668006896973
0.0570661537349224,0.0426053628325462,0.0709815919399261,-0.2246071398258209,0.3470331728458404,0.1254014372825622,0.0,0.0,0.5239793062210083,0.6667050123214722
0.0576135627925396,0.0380766503512859,0.0498496107757091,-0.2024653255939483,0.3521749675273895,0.102835401892662,0.0,0.0,0.5224144458770752,0.9105398654937744
0.0579024329781532,0.0351423844695091,0.0424519293010234,-0.1271384954452514,0.3379864692687988,-0.2837042808532715,0.0,1.0,0.9484292268753052,0.987074375152588
0.0579559318721294,0.033380851149559,0.0362687967717647,-0.0713802129030227,0.305782288312912,-0.6441011428833008,0.0,1.0,0.8230490684509277,-0.0212612152099609
0.0576413162052631,0.0324206203222274,0.0080159101635217,-0.0348817333579063,0.2651284039020538,-0.813088595867157,0.0,1.0,0.5702657699584961,0.6051973104476929
0.0571306236088275,0.0316329821944236,-0.0115406280383467,-0.0283571910113096,0.2248733788728714,-0.8051005601882935,0.0,1.0,0.3046783208847046,0.016865849494934
0.0565717704594135,0.0312347263097763,-0.0163683891296386,-0.012163246050477,0.1850048303604126,-0.7973721027374268,0.0,0.0,-0.9995240569114684,0.1242281198501586
0.0560181625187397,0.0303688384592533,-0.0158992540091276,-0.0340389758348465,0.145503968000412,-0.7900189757347107,0.0,0.0,-0.9985997676849364,-0.0631338357925415
0.0554663650691509,0.0290349572896957,-0.0158649217337369,-0.055912185460329,0.106376901268959,-0.7825431227684021,0.0,0.0,-0.9874165058135986,-0.6714984178543091
0.0548575408756732,0.0272285789251327,-0.0231947116553783,-0.0780269876122474,0.0690181404352188,-0.7471763491630554,0.0,0.0,-0.8685441613197327,-0.7102511525154114
0.0541999824345111,0.0249549970030784,-0.0294508729130029,-0.0997681394219398,0.0331218503415584,-0.7179271578788757,0.0,0.0,0.1004140377044677,-0.8750555515289307
0.0535104759037494,0.0227867700159549,-0.0347645096480846,-0.0959523245692253,-0.0006317662191577,-0.6750730276107788,0.0,0.0,0.2002978324890136,-0.8625851273536682
0.0527336113154888,0.0210421904921531,-0.0456244125962257,-0.0778552368283271,-0.0322816483676433,-0.6329987049102783,0.0,0.0,0.4762120246887207,-0.7982258200645447
0.0519597046077251,0.0198829751461744,-0.0474641807377338,-0.0524345599114894,-0.0618572421371936,-0.5915127992630005,0.0,0.0,-0.0175164341926574,-0.9546772837638856
0.051098920404911,0.0182463265955448,-0.0582789257168769,-0.074118323624134,-0.0893827378749847,-0.5505102872848511,0.0,0.0,0.4734809398651123,-0.7799419164657593
0.0500791557133197,0.016979107633233,-0.0760058313608169,-0.0580693408846855,-0.1151346787810325,-0.515039324760437,0.0,0.0,0.3763952255249023,-0.8995465636253357
0.0488871559500694,0.0159002169966697,-0.0954251512885093,-0.0499531961977481,-0.1387916803359985,-0.4731402993202209,0.0,0.0,0.2709931135177612,-0.815032958984375
0.0478653907775878,0.0155803533270955,-0.1000165939331054,-0.014418919570744,-0.1409458369016647,-0.0430828630924224,1.0,0.0,-0.6948601007461548,0.604964017868042
0.0470973029732704,0.0152549119666218,-0.0902564078569412,-0.013247326016426,-0.127553254365921,0.2678558826446533,1.0,0.0,-0.7974161505699158,0.9319417476654052
0.0464045517146587,0.0144003964960575,-0.0797448456287384,-0.0371158011257648,-0.117135964334011,0.2083459198474884,1.0,0.0,-0.7816188335418701,0.6787102222442627
0.0457839965820312,0.0131328199058771,-0.0730070918798446,-0.0555145554244518,-0.1062666550278663,0.217386320233345,1.0,0.0,-0.6983633637428284,0.6632866859436035
0.0452380180358886,0.0115385148674249,-0.0682455450296402,-0.069942869246006,-0.0927273780107498,0.2707855105400085,1.0,0.0,-0.3547333478927612,0.3999923467636108
0.0447067245841026,0.0095748165622353,-0.0697611346840858,-0.0863272845745086,-0.0762459710240364,0.3296278119087219,1.0,0.0,-0.2119986414909362,0.2660322189331054
