x_pos,y_pos,x_vel,y_vel,angle,ang_vel,leg_1,leg_2,main_booster,lat_booster
-0.0014927864540368,1.402978539466858,-0.1512784659862518,-0.3529526889324188,0.0018014785600826,0.0355382598936557,0.0,0.0,0.7326857898100434,-0.8920550431175379
-0.0029658316634595,1.395135760307312,-0.1510368287563324,-0.3485722243785858,0.0054871812462806,0.0737219005823135,0.0,0.0,-0.3896792657782726,-0.6428325152457519
-0.0044491766020655,1.3866419792175293,-0.1531225740909576,-0.3775299489498138,0.0102225709706544,0.0947166085243225,0.0,0.0,0.1096126421454837,0.9805299620319518
-0.0059260367415845,1.378002405166626,-0.15057472884655,-0.3840053677558899,0.0130837522447109,0.0572286732494831,0.0,0.0,0.8870694308813394,0.7934834632137635
-0.0071624754928052,1.3698408603668213,-0.125395655632019,-0.3627448379993438,0.0148182632401585,0.0346935614943504,0.0,0.0,-0.5406638736394866,0.9883301124833764
-0.0082773212343454,1.361034274101257,-0.1108965128660202,-0.3913990259170532,0.0142297446727752,-0.0117713520303368,0.0,0.0,0.586426023441277,0.6203987961775925
-0.0093498229980468,1.3524142503738403,-0.1054310426115989,-0.3830961883068084,0.0124396299943327,-0.0358058027923107,0.0,0.0,-0.8500805980798805,0.9960244780162462
-0.0103003503754735,1.3431531190872192,-0.0908503755927085,-0.411574512720108,0.0082773640751838,-0.0832529217004776,0.0,0.0,0.3371213030919635,-0.8879486787491927
-0.0113146780058741,1.3342710733413696,-0.0990870222449302,-0.3947504162788391,0.0059562278911471,-0.0464266911149024,0.0,0.0,-0.4835909730301131,-0.9860860753085754
-0.0123850824311375,1.3247482776641846,-0.1067610159516334,-0.4232266247272491,0.0056874114088714,-0.0053770719096064,0.0,0.0,-0.5130269093065638,-0.6033311730452604
-0.0134755130857229,1.3145800828933716,-0.1099075227975845,-0.451924979686737,0.0065444028005003,0.0171412918716669,0.0,0.0,0.0143960857944656,0.8518231990834955
-0.0144300460815429,1.3042521476745603,-0.0947247073054313,-0.459024041891098,0.005826246459037,-0.0143647165969014,0.0,0.0,-0.8806430882978864,-0.8127929546892687
-0.0154162403196096,1.2932817935943604,-0.0992883890867233,-0.4875701367855072,0.006481765769422,0.0131119014695286,0.0,0.0,-0.7102937543734971,0.8490929123262576
-0.0163105018436908,1.28165864944458,-0.0882993787527084,-0.516581654548645,0.0053732278756797,-0.0221727527678012,0.0,0.0,0.525119504194175,-0.6481243411799015
-0.0171013828366994,1.2705386877059937,-0.0797021239995956,-0.4942257702350616,0.0059807361103594,0.0121512459591031,0.0,0.0,0.3665788892899848,-0.982209183038349
-0.0178511627018451,1.2591302394866943,-0.0777622014284133,-0.5070550441741943,0.0087279668077826,0.0549497194588184,0.0,0.0,0.3304653015215613,-0.7050327970327748
-0.0185249336063861,1.24811851978302,-0.0718960911035537,-0.4894366860389709,0.0131974117830395,0.0893969684839248,0.0,0.0,-0.9103641307426408,-0.647956544847971
-0.019224738702178,1.236454963684082,-0.0756197348237037,-0.5184353590011597,0.0187744423747062,0.1115508079528808,0.0,0.0,-0.7120475252721701,-0.9182153055161578
-0.0199734680354595,1.2241535186767578,-0.0821969956159591,-0.5468466877937317,0.0260083079338073,0.1446901261806488,0.0,0.0,0.7419662421860831,-0.6657796538834044
-0.0208716392517089,1.2120957374572754,-0.0983712002635002,-0.5360680818557739,0.0344740785658359,0.1693310141563415,0.0,0.0,0.7646340247975496,0.6113562365623105
-0.021592903882265,1.200611233711243,-0.0799787640571594,-0.5106111764907837,0.0422357432544231,0.1552476286888122,0.0,0.0,0.4373809322906021,0.8601147425923181
-0.0222419742494821,1.1890588998794556,-0.0711763948202133,-0.5136284232139587,0.0484380014240741,0.1240562424063682,0.0,0.0,0.7183050372954984,-0.944167140097327
-0.02283401414752,1.177714228630066,-0.0677390173077583,-0.5045070052146912,0.0568794682621955,0.1688447594642639,0.0,0.0,-0.2206760018123539,0.7357670696198497
-0.0233539585024118,1.165721774101257,-0.0590118691325187,-0.5332757234573364,0.0638269335031509,0.1389614641666412,0.0,0.0,0.634437520969201,0.8493205111796966
-0.0239974968135356,1.1540312767028809,-0.0695423260331153,-0.5198118090629578,0.068973422050476,0.102939024567604,0.0,0.0,0.5175240190616999,0.9153099362824004
-0.0247580520808696,1.1426382064819336,-0.0793856456875801,-0.5065153241157532,0.0722624361515045,0.0657802745699882,0.0,0.0,0.0912286391788537,-0.6010096641488898
-0.0255933757871389,1.1313165426254272,-0.0882191956043243,-0.5034205317497253,0.0768975093960762,0.0927015170454979,0.0,0.0,0.694521328518827,-0.8105920156282682
-0.0267018321901559,1.120599627494812,-0.1170253157615661,-0.4766421914100647,0.0830228105187416,0.1225059255957603,0.0,0.0,-0.4308930120417389,-0.8775972157199151
-0.027891730889678,1.10923433303833,-0.1274679899215698,-0.5056118369102478,0.0914224982261657,0.1679935902357101,0.0,0.0,0.790197633156553,0.7456094415574357
-0.0290932655334472,1.098015546798706,-0.1272275298833847,-0.4990659654140472,0.098434567451477,0.1402413845062255,0.0,0.0,-0.6611328942104984,-0.8879489359420998
-0.0303614623844623,1.0861518383026123,-0.1357759684324264,-0.5278884768486023,0.1073105111718177,0.1775187253952026,0.0,0.0,-0.6781180232338948,0.7124114942402252
-0.0315797813236713,1.073647379875183,-0.1296693533658981,-0.5563405156135559,0.1151041314005851,0.1558725386857986,0.0,0.0,-0.0541398770298426,-0.9691662431879118
-0.0328849777579307,1.0604923963546753,-0.140720933675766,-0.5854834914207458,0.1252477467060089,0.2028721123933792,0.0,0.0,0.980096075238762,-0.975748292749928
-0.0344040878117084,1.047297716140747,-0.1640726029872894,-0.5874916315078735,0.1373521536588668,0.2420882731676101,0.0,0.0,-0.1859880675209644,0.9226338628752913
-0.0358500480651855,1.0334768295288086,-0.1549933403730392,-0.6152622103691101,0.1477186530828476,0.2073300778865814,0.0,0.0,-0.704432704116505,0.9568411875525455
-0.0372209548950195,1.0190356969833374,-0.1456573158502578,-0.6426973938941956,0.1562675088644027,0.170977845788002,0.0,0.0,-0.8782954422814488,0.9890690287200674
-0.0385192856192588,1.0039623975753784,-0.1366502791643142,-0.6706534028053284,0.1630845665931701,0.1363409757614135,0.0,0.0,0.7539234417432037,0.6350347615890944
-0.0398590080440044,0.9894680380821228,-0.1397732198238372,-0.6448439955711365,0.1688929796218872,0.116168163716793,0.0,0.0,-0.7156635775393971,-0.6165518499570697
-0.0412532798945903,0.974322497844696,-0.1466895490884781,-0.6739802956581116,0.1761731803417205,0.1456036865711212,0.0,0.0,0.891139039055874,-0.7139798721801094
-0.0427934639155864,0.9595553278923036,-0.1629559695720672,-0.6574075222015381,0.1851271539926529,0.1790795922279358,0.0,0.0,-0.9894231894002944,-0.9341126489435182
-0.0444235801696777,0.9441277384757996,-0.1742639392614364,-0.6871131658554077,0.1964435428380966,0.2263282090425491,0.0,0.0,-0.924069344997406,0.9934444427490234
-0.0459641441702842,0.9280816912651062,-0.1630776822566986,-0.7143775224685669,0.2055187672376632,0.1815041750669479,0.0,0.0,-0.8301102519035339,0.9580767154693604
-0.0474211685359478,0.9114077687263488,-0.1526444256305694,-0.7420447468757629,0.2125268429517746,0.1401620209217071,0.0,0.0,-0.9063860774040222,0.9891738891601562
-0.0487928390502929,0.8941158652305603,-0.1419781297445297,-0.7692305445671082,0.2173807024955749,0.0970773845911026,0.0,0.0,-0.2852168679237366,0.9982892274856568
-0.0500951781868934,0.8761910200119019,-0.133346602320671,-0.7971201539039612,0.2205325663089752,0.0630379617214202,0.0,0.0,0.844990611076355,0.9977604150772096
-0.0513489730656147,0.8582020401954651,-0.1267601549625396,-0.7997219562530518,0.2219303697347641,0.0279559846967458,0.0,0.0,0.9446589946746826,0.9958282709121704
-0.0525674819946289,0.8403844237327576,-0.121542751789093,-0.7918511033058167,0.2216191738843917,-0.0062240962870419,0.0,0.0,0.9701473712921144,0.9999756813049316
-0.0540785789489746,0.8233639597892761,-0.1487245559692382,-0.7561127543449402,0.2192051708698272,-0.0482799187302589,0.0,0.0,0.4474130868911743,0.997222065925598
-0.0557991042733192,0.8066999316215515,-0.1677325665950775,-0.7399900555610657,0.2148450016975402,-0.0872033908963203,0.0,0.0,-0.3124823570251465,0.9975372552871704
-0.0574491508305072,0.7894124388694763,-0.1589418798685073,-0.7674610614776611,0.2087139636278152,-0.1226207986474037,0.0,0.0,-0.7323294281959534,0.999271035194397
-0.0590080246329307,0.7715106010437012,-0.1474985927343368,-0.7944813966751099,0.200258731842041,-0.1691046953201294,0.0,0.0,-0.9171390533447266,0.9991532564163208
-0.0605020523071289,0.7529922127723694,-0.1393627226352691,-0.8217096328735352,0.1901470869779586,-0.2022332400083542,0.0,0.0,-0.0901830196380615,0.9547955989837646
-0.0619121566414833,0.7338502407073975,-0.1288512051105499,-0.8492412567138672,0.1779384911060333,-0.2441716641187667,0.0,0.0,0.3969335556030273,0.978767156600952
-0.0633676499128341,0.7150911092758179,-0.1315605342388153,-0.8321225047111511,0.1639277786016464,-0.2802141308784485,0.0,0.0,-0.745003879070282,0.9959375858306884
-0.0647297874093055,0.6957101225852966,-0.119864597916603,-0.8596633672714233,0.1475953161716461,-0.3266494572162628,0.0,0.0,-0.4677977561950683,0.9260423183441162
-0.0660343170166015,0.6756966710090637,-0.112663410604,-0.8878105282783508,0.1298707723617553,-0.354491114616394,0.0,0.0,-0.1286626458168029,-0.0165849328041076
-0.0673421844840049,0.6550421118736267,-0.1131277829408645,-0.916538655757904,0.1123100370168685,-0.3512147665023803,0.0,0.0,0.9814976453781128,0.2001576423645019
-0.0685791969299316,0.6349793076515198,-0.1069479584693908,-0.8905006051063538,0.0956784039735794,-0.3326323926448822,0.0,0.0,0.950713276863098,-0.1893600225448608
-0.0698238387703895,0.6157386302947998,-0.1082621216773986,-0.8541772961616516,0.0796180143952369,-0.3212077021598816,0.0,0.0,-0.0282632112503051,0.530298113822937
-0.0710345283150672,0.5958649516105652,-0.1040651574730873,-0.8824511766433716,0.0627964064478874,-0.3364323675632477,0.0,0.0,0.99753999710083,-0.6019357442855835
-0.0722564682364463,0.5760160684585571,-0.1067458018660545,-0.8815997242927551,0.0475210659205913,-0.3055068254470825,0.0,0.0,0.9980580806732178,-0.9298309087753296
-0.0737270340323448,0.5567852854728699,-0.1333727836608886,-0.8543239235877991,0.0340039655566215,-0.2703419327735901,0.0,0.0,0.9925559759140016,0.6150426864624023
-0.0750119239091873,0.5378554463386536,-0.114177867770195,-0.8410618305206299,0.0198630783706903,-0.2828174233436584,0.0,0.0,0.9277747869491576,0.00888192653656
-0.0762839317321777,0.5193559527397156,-0.1131622791290283,-0.822073221206665,0.0060103009454905,-0.2770556807518005,0.0,0.0,0.8798239231109619,-0.4145476818084717
-0.0775494575500488,0.5008974671363831,-0.1127217784523963,-0.8203805088996887,-0.0076409853063523,-0.273025780916214,0.0,0.0,0.8410577774047852,-0.5156801342964172
-0.0789961814880371,0.4827857613563537,-0.1316180080175399,-0.8050792813301086,-0.0205344222486019,-0.2578687667846679,0.0,0.0,0.8852405548095703,-0.0328658819198608
-0.0803969353437423,0.4654942452907562,-0.1272995918989181,-0.7687353491783142,-0.0331555157899856,-0.252421885728836,0.0,0.0,0.0628226995468139,-0.0904479026794433
-0.0817367583513259,0.4478383660316467,-0.1216103285551071,-0.7850247025489807,-0.0453739874064922,-0.244369700551033,0.0,0.0,0.9141831398010254,0.3627433776855469
-0.0829977020621299,0.4310184717178345,-0.1140428781509399,-0.7479561567306519,-0.0572900436818599,-0.2383208572864532,0.0,0.0,0.1008330583572387,0.4182339906692505
-0.0843000411987304,0.414032369852066,-0.1180436015129089,-0.7554470896720886,-0.0693393424153328,-0.2409861534833908,0.0,0.0,0.4454033374786377,-0.5952867269515991
-0.0856914520263671,0.3973049819469452,-0.1281363070011139,-0.7439822554588318,-0.0802377685904502,-0.2179684340953827,0.0,0.0,0.905411958694458,-0.0356002449989318
-0.0869854912161827,0.3810021579265594,-0.1187185794115066,-0.7251755595207214,-0.0908171236515045,-0.2115870416164398,0.0,0.0,0.6763336658477783,-0.2223486304283142
-0.0883266478776931,0.3653527796268463,-0.1229909285902977,-0.6962395310401917,-0.1018470525741577,-0.2205986976623535,0.0,0.0,0.0884133577346801,-0.6860650777816772
-0.0896224007010459,0.3496264517307281,-0.1200517565011978,-0.6996252536773682,-0.1112990379333496,-0.1890394687652588,0.0,0.0,0.8287825584411621,-0.4368246793746948
-0.0909004211425781,0.3339068591594696,-0.1182750687003135,-0.699386477470398,-0.1207717657089233,-0.1894547045230865,0.0,0.0,0.9053871631622314,-0.581287682056427
-0.0920890793204307,0.3180876970291137,-0.11089389026165,-0.7037423849105835,-0.1287043839693069,-0.1586521863937378,0.0,0.0,0.9835530519485474,-0.7629813551902771
-0.0933186560869216,0.3022412657737732,-0.1165723428130149,-0.7048470973968506,-0.1350627243518829,-0.1271667778491974,0.0,0.0,0.9787226915359496,-0.4318270087242126
-0.09442138671875,0.2871634662151336,-0.1039999574422836,-0.6707078218460083,-0.1413192898035049,-0.1251313090324401,0.0,0.0,0.9660394191741944,-0.8928527235984802
-0.0953433066606521,0.2728832364082336,-0.0880645215511322,-0.6350754499435425,-0.1454364955425262,-0.0823443904519081,0.0,0.0,0.9703030586242676,-0.8246250152587891
-0.0963217765092849,0.2594578862190246,-0.0952137187123298,-0.5969439148902893,-0.1480670422315597,-0.0526111833751201,0.0,0.0,0.9874284267425536,-0.590703010559082
-0.0974412932991981,0.2460185885429382,-0.1101637259125709,-0.5974788069725037,-0.149841770529747,-0.0354945547878742,0.0,0.0,0.9869005680084229,0.5199034214019775
-0.0983152389526367,0.2333272993564605,-0.0848749727010726,-0.5643144845962524,-0.1523572504520416,-0.0503094308078289,0.0,0.0,0.9643092155456544,-0.4937065243721008
-0.0991919487714767,0.2210319191217422,-0.084733672440052,-0.5467636585235596,-0.1552896052598953,-0.058646947145462,0.0,0.0,0.9300878047943116,-0.0243863463401794
-0.0999961867928505,0.2092789709568023,-0.0773342549800872,-0.5226788520812988,-0.1583797484636306,-0.0618030205368995,0.0,0.0,0.9711670875549316,-0.7171362042427063
-0.1007256507873535,0.1981365084648132,-0.0713945478200912,-0.4953872859477997,-0.1599335670471191,-0.0310759842395782,0.0,0.0,0.7705135345458984,-0.5098200440406799
-0.1012828797101974,0.187257319688797,-0.0556125529110431,-0.4835326969623565,-0.1600480377674102,-0.002289404394105,0.0,0.0,0.8913581371307373,-0.5428212881088257
-0.1017767935991287,0.1763104796409607,-0.0505760721862316,-0.4864000976085663,-0.158864215016365,0.0236768424510955,0.0,0.0,0.8202452659606934,-0.1243480443954467
-0.1020834892988205,0.165350392460823,-0.0324582047760486,-0.4869243800640106,-0.157078132033348,0.0357215739786624,0.0,0.0,0.9437476396560668,0.2791649103164673
-0.1020973175764083,0.1546991616487503,-0.004098474048078,-0.4731062352657318,-0.1543646156787872,0.0542705729603767,0.0,0.0,0.9592361450195312,0.1643002033233642
-0.1018584221601486,0.1440570205450058,0.0202874634414911,-0.4726114571094513,-0.1507624387741089,0.0720436424016952,0.0,0.0,0.9408888816833496,-0.5133045315742493
-0.1015153899788856,0.1340925097465515,0.0295626260340213,-0.442398190498352,-0.1460316926240921,0.0946149677038192,0.0,0.0,0.8478869199752808,-0.4601703882217407
-0.100995734333992,0.1247338131070137,0.046937771141529,-0.4154595136642456,-0.1410232186317443,0.1001694351434707,0.0,0.0,0.7931681871414185,-0.6456107497215271
-0.1002608314156532,0.1157872527837753,0.0666907876729965,-0.3969965279102325,-0.1342505067586898,0.1354541480541229,0.0,0.0,0.3573396205902099,-0.5366723537445068
-0.099423311650753,0.1065790504217147,0.0755570083856582,-0.4085386395454407,-0.1260941624641418,0.1631269454956054,0.0,0.0,0.8491305112838745,0.1186670064926147
-0.0985517501831054,0.097584992647171,0.079125665128231,-0.3990779817104339,-0.1181034594774246,0.1598141491413116,0.0,0.0,0.5932097434997559,0.1378543376922607
-0.0974798202514648,0.0891707986593246,0.0986795723438263,-0.3733128905296325,-0.109633170068264,0.1694055646657943,0.0,0.0,0.7747220993041992,-0.0449743270874023
-0.0963438972830772,0.0810272544622421,0.1050805300474166,-0.361331433057785,-0.1011812761425972,0.1690375804901123,0.0,0.0,0.6940748691558838,0.1696029901504516
-0.0952301025390625,0.0734754428267479,0.1033639535307884,-0.3351162075996399,-0.0932270660996437,0.1590841710567474,0.0,0.0,0.8246815204620361,-0.0654513239860534
-0.0939258560538292,0.0664162933826446,0.1218615770339965,-0.3132310509681701,-0.0847408697009086,0.1697239726781845,0.0,0.0,0.5804393291473389,0.5910286903381348
-0.0925457030534744,0.0597901679575443,0.1306782513856887,-0.2940979599952698,-0.0774813964962959,0.1451896131038665,0.0,0.0,0.3671985864639282,-0.388596773147583
-0.0911621078848838,0.0534535013139247,0.1312737017869949,-0.2812793552875519,-0.0704626888036727,0.1403740644454956,0.0,0.0,0.1582918167114257,-0.604121208190918
-0.0897967368364334,0.0469992496073246,0.1281864196062088,-0.2864843606948852,-0.06220293790102,0.16519495844841,0.0,0.0,0.6847310066223145,0.2311152219772339
-0.0884873420000076,0.040829312056303,0.1230820268392562,-0.2739148437976837,-0.0544303953647613,0.155451014637947,0.0,0.0,0.8804186582565308,0.5290236473083496
-0.0872602462768554,0.0349172912538051,0.1163998693227768,-0.2625411748886108,-0.0481838919222354,0.1249297708272934,0.0,0.0,0.6877994537353516,-0.2226822972297668
-0.0858641639351844,0.0294520948082208,0.1327246278524398,-0.242690771818161,-0.0413879714906215,0.1359183490276336,0.0,0.0,0.6495234966278076,-0.4116283059120178
-0.084366038441658,0.0238901227712631,0.1426059901714325,-0.247017428278923,-0.0342673510313034,0.1424124091863632,0.0,0.0,0.8925405740737915,-0.6370904445648193
-0.08268404006958,0.0189917664974927,0.1592018902301788,-0.2175260037183761,-0.0253820456564426,0.1777061372995376,0.0,0.0,0.8641389608383179,-0.4268259406089782
-0.0809793472290039,0.0147626735270023,0.1615590751171112,-0.187836542725563,-0.0165907219052314,0.1758264005184173,0.0,0.0,0.6055111885070801,-0.9906603693962096
-0.0791556388139724,0.0111439088359475,0.1712840497493744,-0.1607439219951629,-0.0056369584053754,0.2190752476453781,0.0,0.0,0.5455334186553955,-0.9775267839431764
-0.0772983580827713,0.0076947305351495,0.1725669652223587,-0.1532972157001495,0.0073530944064259,0.2598009407520294,0.0,0.0,0.5885028839111328,-0.832175076007843
-0.0754937157034874,0.0047874306328594,0.1656396239995956,-0.129351794719696,0.0219853594899177,0.2926456332206726,0.0,0.0,0.4472249746322632,-0.7988443970680237
-0.0736811608076095,0.0022790289949625,0.1647429913282394,-0.1118063181638717,0.0382826551795005,0.3259459137916565,0.0,0.0,-0.2823646664619446,0.0240921974182128
-0.0720590576529502,-0.0003112697741016,0.1651318669319152,-0.1150741055607795,0.0353297889232635,-0.059150643646717,0.0,1.0,-0.2880046963691711,0.2833911180496216
-0.0706642121076583,-0.0029938721563667,0.161557450890541,-0.1189726591110229,0.0130869252607226,-0.4454107284545898,0.0,1.0,0.4496462345123291,-0.2758622169494629
-0.0695119872689247,-0.0045047425664961,0.1369757503271103,-0.0671174600720405,-0.0083917370066046,-0.4295772910118103,1.0,1.0,0.4954578876495361,-0.9842862486839294
-0.068498708307743,-0.004861619323492,0.116060122847557,-0.0160172432661056,-0.0229313094168901,-0.2907924354076385,1.0,1.0,0.3738292455673218,-0.9665361046791076
-0.0675417929887771,-0.0042328741401433,0.1010617017745971,0.0278546325862407,-0.0282354317605495,-0.1060837730765342,1.0,1.0,-0.1795628070831298,-0.9662818312644958
-0.0666236877441406,-0.003491868963465,0.0861806273460388,0.0330327786505222,-0.0226883739233016,0.1109264120459556,1.0,1.0,-0.8352547287940979,-0.99273681640625
-0.0658493041992187,-0.0025827074423432,0.07052643597126,0.0405017845332622,-0.0158856883645057,0.1360345035791397,1.0,1.0,-0.9040355682373048,-0.9287792444229126
-0.0652206391096115,-0.0016681099077686,0.055883266031742,0.0407134369015693,-0.009010368026793,0.1374876946210861,1.0,1.0,-0.8465437889099121,-0.8368415832519531
-0.0647231116890907,-0.0008957409881986,0.0438070408999919,0.0343549512326717,-0.0031565411482006,0.117062047123909,1.0,1.0,-0.7977495789527893,-0.6468424201011658
