x_pos,y_pos,x_vel,y_vel,angle,ang_vel,leg_1,leg_2,main_booster,lat_booster
-0.0015505790943279,1.4032368659973145,-0.1566712111234665,-0.3414805233478546,0.0014372643781825,0.0283274166285991,0.0,0.0,-0.2962298989295959,0.6839824914932251
-0.0030683516524732,1.3951858282089231,-0.151348203420639,-0.3578238487243652,0.0010152201866731,-0.0084409769624471,0.0,0.0,0.0191344022750854,0.4343928098678589
-0.0045274733565747,1.387120485305786,-0.1455167233943939,-0.3584579825401306,0.0006340331747196,-0.0076248049736022,0.0,0.0,-0.1406002640724182,0.7637698650360107
-0.0059598921798169,1.3786648511886597,-0.1412688642740249,-0.3758026659488678,-0.0013171110767871,-0.0390265099704265,0.0,0.0,-0.2307466268539428,0.636836051940918
-0.0073513030074536,1.3698235750198364,-0.1352604031562805,-0.3929494321346283,-0.0051546213217079,-0.076757475733757,0.0,0.0,-0.0907554030418396,-0.1213053464889526
-0.0087606431916356,1.3605949878692627,-0.1366994678974151,-0.4101804494857788,-0.0093508502468466,-0.0839321464300155,0.0,0.0,-0.3416230082511902,-0.0353459119796752
-0.0101863862946629,1.3509790897369385,-0.1379697024822235,-0.4274117648601532,-0.0139078525826334,-0.0911484211683273,0.0,0.0,-0.1643956899642944,0.5941075086593628
-0.0115686412900686,1.3409764766693115,-0.1317556947469711,-0.4446343779563904,-0.0202941056340932,-0.1277370750904083,0.0,0.0,0.3925188779830932,-0.1106253266334533
-0.0129596712067723,1.3316450119018557,-0.1322359293699264,-0.4148426949977875,-0.0270907972007989,-0.1359463930130005,0.0,0.0,0.1033684015274047,-0.0801028609275817
-0.014349746517837,1.3226537704467771,-0.1317637413740158,-0.3997551798820495,-0.0342539399862289,-0.1432757973670959,0.0,0.0,0.2941259145736694,0.3149248361587524
-0.0156664848327636,1.3139704465866089,-0.1243881583213806,-0.386113166809082,-0.0414615683257579,-0.1441656053066253,0.0,0.0,-0.3788633346557617,0.2235063314437866
-0.0169919971376657,1.3049001693725586,-0.1248955354094505,-0.4033511281013489,-0.0490350537002086,-0.1514835506677627,0.0,0.0,-0.831030547618866,-0.4008969068527221
-0.018324851989746,1.295443415641785,-0.1252690553665161,-0.4205850958824157,-0.0569748133420944,-0.1588096469640731,0.0,0.0,-0.5813367962837219,-0.1341503858566284
-0.019663905724883,1.2856000661849976,-0.1255159676074981,-0.4378213584423065,-0.0652816295623779,-0.1661517173051834,0.0,0.0,-0.6199434399604797,-0.2016814351081848
-0.0210079196840524,1.2753702402114868,-0.1256427466869354,-0.4550590813159942,-0.0739561021327972,-0.1735054850578308,0.0,0.0,0.0012265443801879,-0.5005189776420593
-0.0223087314516305,1.2650139331817627,-0.1220863685011863,-0.4606934785842895,-0.0818741843104362,-0.1583764255046844,0.0,0.0,-0.0102818608283996,-0.6548677086830139
-0.0236515048891305,1.254283428192139,-0.1269425451755523,-0.4773229956626892,-0.0891550928354263,-0.1456314027309417,0.0,0.0,-0.7569496631622314,-0.637631356716156
-0.0250348094850778,1.243166208267212,-0.1315937489271164,-0.4945143163204193,-0.0958383977413177,-0.1336784958839416,0.0,0.0,-0.5806964039802551,-0.3341075778007507
-0.0264190677553415,1.231662392616272,-0.1313193440437317,-0.5117518305778503,-0.1028913334012031,-0.1410715878009796,0.0,0.0,0.3224266767501831,-0.460416316986084
-0.0278210639953613,1.2204577922821045,-0.1324245184659958,-0.4985269606113434,-0.1106152236461639,-0.1544921994209289,0.0,0.0,-0.2481599450111389,-0.292904794216156
-0.029222298413515,1.2088667154312134,-0.1319878995418548,-0.5157721638679504,-0.1187081336975097,-0.161872997879982,0.0,0.0,0.4908714294433594,-0.8747388124465942
-0.0306319240480661,1.1974895000457764,-0.1342365443706512,-0.5062055587768555,-0.1254127025604248,-0.1341035664081573,0.0,0.0,0.1585727930068969,0.4062725305557251
-0.0319015495479106,1.18627667427063,-0.1202889308333396,-0.4989183247089386,-0.1320636868476867,-0.1330317258834839,0.0,0.0,-0.1352937221527099,-0.9008294939994812
-0.0332319252192974,1.1746797561645508,-0.1275921463966369,-0.5159078240394592,-0.1374977529048919,-0.1086911410093307,0.0,0.0,0.4924297332763672,-0.7291730642318726
-0.0346771255135536,1.1636031866073608,-0.1399164348840713,-0.4927278161048889,-0.1420935988426208,-0.0919249728322029,0.0,0.0,-0.6010864973068237,-0.0853593349456787
-0.0361209884285926,1.152118444442749,-0.1394191980361938,-0.510913074016571,-0.1470571309328079,-0.0992703884840011,0.0,0.0,0.1176711320877075,-0.803597629070282
-0.0375487320125103,1.140994668006897,-0.1390493363142013,-0.4947675168514251,-0.1507765352725982,-0.0743880644440651,0.0,0.0,-0.9405165314674376,0.5085427761077881
-0.0389410033822059,1.1294822692871094,-0.1343434751033783,-0.5121654272079468,-0.1556558459997177,-0.0975862741470336,0.0,0.0,-0.8298184275627136,-0.8726077675819397
-0.0404114723205566,1.1176098585128784,-0.143925055861473,-0.5279942750930786,-0.1587714701890945,-0.0623125322163105,0.0,0.0,-0.0906516313552856,-0.4121947288513183
-0.041877843439579,1.1053506135940552,-0.1431546509265899,-0.5452281832695007,-0.1622505038976669,-0.0695806741714477,0.0,0.0,0.2018934488296508,-0.496321439743042
-0.0432270988821983,1.0936131477355957,-0.1311501711606979,-0.5220810174942017,-0.1660282760858535,-0.0755555406212806,0.0,0.0,-0.2049027681350708,-0.676685094833374
-0.0446322448551654,1.0815001726150513,-0.1379092186689376,-0.5386524796485901,-0.1686377972364425,-0.0521906539797782,0.0,0.0,0.1500029563903808,-0.6886685490608215
-0.0460566505789756,1.069861650466919,-0.1407805979251861,-0.5174486041069031,-0.1702982783317566,-0.0332089215517044,0.0,0.0,-0.4613227844238281,-0.4672579169273376
-0.0474772453308105,1.057836651802063,-0.140042632818222,-0.5346821546554565,-0.1723140329122543,-0.0403154343366622,0.0,0.0,-0.4643466472625732,-0.522091269493103
-0.0489336028695106,1.045436143875122,-0.1442882269620895,-0.5512914657592773,-0.173663854598999,-0.0269968770444393,0.0,0.0,0.2811741828918457,-0.8302798271179199
-0.050333309918642,1.033534288406372,-0.1399533003568649,-0.528973400592804,-0.1736806780099868,-0.0003364631265867,0.0,0.0,-0.8849419951438904,0.7549843788146973
-0.0516743659973144,1.02122700214386,-0.1322933733463287,-0.5472021102905273,-0.1754938215017318,-0.0362628027796745,0.0,0.0,-0.8404066562652588,-0.0978491306304931
-0.0530128479003906,1.008533000946045,-0.1316989064216613,-0.5644356608390808,-0.1776501685380935,-0.043126605451107,0.0,0.0,-0.4728243350982666,-0.924616813659668
-0.0544246658682823,0.9954828023910522,-0.1406652778387069,-0.5800673961639404,-0.178164541721344,-0.010287812910974,0.0,0.0,-0.8513630628585815,-0.8304371237754822
-0.0558963790535926,0.9820634722709656,-0.1479055136442184,-0.5963257551193237,-0.177426666021347,0.0147574190050363,0.0,0.0,-0.679735004901886,-0.2207493782043457
-0.0573671348392963,0.9682574272155762,-0.1474874913692474,-0.6135590076446533,-0.1770195960998535,0.0081414571031928,0.0,0.0,-0.9800160527229308,0.4416581392288208
-0.0588377937674522,0.9540643095970154,-0.147140771150589,-0.6307920813560486,-0.1769384443759918,0.0016231095651164,0.0,0.0,-0.978338062763214,-0.4653593301773071
-0.0603089332580566,0.9394844174385072,-0.1468713134527206,-0.6480250954627991,-0.1771779060363769,-0.0047896639443933,0.0,0.0,-0.9198046326637268,-0.2191988825798034
-0.0617813095450401,0.9245175719261168,-0.1466849446296692,-0.66525799036026,-0.1777323186397552,-0.0110880360007286,0.0,0.0,-0.9925345182418824,-0.6238821744918823
-0.0633085221052169,0.9091704487800598,-0.1531839668750763,-0.6820348501205444,-0.177264854311943,0.0093493433669209,0.0,0.0,-0.9480331540107728,-0.1135672926902771
-0.0648386925458908,0.8934365510940552,-0.1531805396080017,-0.699267566204071,-0.1770994514226913,0.0033080645371228,0.0,0.0,-0.6638534665107727,-0.2525115013122558
-0.0663726776838302,0.8773157000541687,-0.1532765477895736,-0.7165002226829529,-0.1772289425134658,-0.002589417155832,0.0,0.0,0.1825510263442993,-0.596402645111084
-0.067939855158329,0.861731231212616,-0.1573448926210403,-0.6925621628761292,-0.1765947788953781,0.0126828998327255,0.0,0.0,-0.7781680822372437,-0.7934355139732361
-0.069587230682373,0.8457869291305542,-0.1670394837856292,-0.7083618640899658,-0.1742940247058868,0.0460150092840194,0.0,0.0,-0.5467090606689453,-0.5228186845779419
-0.0712839141488075,0.8294653296470642,-0.1727739870548248,-0.7250393033027649,-0.1711793690919876,0.0622928068041801,0.0,0.0,-0.5039947628974915,0.3349753618240356
-0.0729887038469314,0.8127569556236267,-0.1733162850141525,-0.7422720789909363,-0.1683250516653061,0.0570864677429199,0.0,0.0,-0.705424964427948,-0.3339684605598449
-0.0747024565935134,0.7956615090370178,-0.1739809960126876,-0.7595044374465942,-0.1657208204269409,0.0520848855376243,0.0,0.0,-0.6365382075309753,0.0446846485137939
-0.0764265060424804,0.7781791090965271,-0.1747719645500183,-0.7767364978790283,-0.1633557230234146,0.0473018512129783,0.0,0.0,-0.0165406465530395,0.1081433296203613
-0.078162096440792,0.7603095769882202,-0.1756927669048309,-0.7939683198928833,-0.1612181365489959,0.0427516177296638,0.0,0.0,0.6514542102813721,-0.5331619381904602
-0.0797165855765342,0.7427444458007812,-0.1588639318943023,-0.7803109884262085,-0.1578045785427093,0.0682711750268936,0.0,0.0,0.0804678201675415,0.6252291202545166
-0.0812575370073318,0.7252507209777832,-0.1559624373912811,-0.7773001790046692,-0.1559365540742874,0.0373606383800506,0.0,0.0,-0.09019535779953,0.0291583538055419
-0.0828136429190635,0.7073697447776794,-0.1572915017604828,-0.7945312261581421,-0.154256671667099,0.033597894012928,0.0,0.0,0.6127185821533203,0.4931364059448242
-0.084151841700077,0.6900464296340942,-0.1359567940235138,-0.7697084546089172,-0.1521271616220474,0.0425905957818031,0.0,0.0,-0.0249807834625244,0.0068557262420654
-0.0855077728629112,0.672335684299469,-0.1375706493854522,-0.7869390845298767,-0.1501557528972625,0.0394281819462776,0.0,0.0,0.6770274639129639,0.204870343208313
-0.086839772760868,0.6554380655288696,-0.1346810162067413,-0.750857949256897,-0.1486839652061462,0.029435709118843,0.0,0.0,-0.1478958129882812,-0.1910687685012817
-0.0881921797990799,0.6381530165672302,-0.1365867406129837,-0.7680879831314087,-0.1473373621702194,0.0269322395324707,0.0,0.0,0.7923026084899902,-0.596411406993866
-0.0896161049604415,0.6216487884521484,-0.1445270180702209,-0.7333113551139832,-0.1452086567878723,0.0425737798213958,0.0,0.0,0.7552807331085205,-0.14560467004776
-0.0908535942435264,0.6055441498756409,-0.1264010518789291,-0.7155025005340576,-0.14256252348423,0.0529230535030365,0.0,0.0,-0.3535438776016235,-0.2509621977806091
-0.0921153053641319,0.589052140712738,-0.1287524253129959,-0.7327321767807007,-0.1399872153997421,0.0515062138438224,0.0,0.0,0.8541300296783447,0.4862815141677856
-0.0933310538530349,0.5728390216827393,-0.1241461485624313,-0.720342218875885,-0.1374229192733764,0.0512859001755714,0.0,0.0,0.8487908840179443,0.2227487564086914
-0.0946202278137207,0.5572496652603149,-0.1308126747608184,-0.692689836025238,-0.135531410574913,0.0378302335739135,0.0,0.0,0.4579168558120727,0.839996337890625
-0.0957475677132606,0.5423869490623474,-0.1129672527313232,-0.6605432033538818,-0.135297879576683,0.0046708206646144,0.0,0.0,-0.1394946575164795,-0.4989806413650512
-0.0969041809439659,0.5271366238594055,-0.1159130483865737,-0.6777714490890503,-0.1350561678409576,0.0048342929221689,0.0,0.0,0.6508100032806396,-0.0472972393035888
-0.0979499816894531,0.5127609968185425,-0.1049664616584777,-0.6388819813728333,-0.1346609443426132,0.0079043973237276,0.0,0.0,-0.5935786366462708,0.4741688966751098
-0.0990275368094444,0.4979976117610931,-0.1082039475440979,-0.6561097502708435,-0.1342168152332306,0.0088829146698117,0.0,0.0,0.513866662979126,0.1012212038040161
-0.1001385673880577,0.4837856888771057,-0.1112280711531639,-0.631630539894104,-0.1340926140546798,0.0024839993566274,0.0,0.0,0.2064690589904785,0.311272382736206
-0.1012008637189865,0.4698570072650909,-0.106550857424736,-0.6190225481987,-0.1337750703096389,0.0063508274033665,0.0,0.0,-0.2120988965034485,0.4300078153610229
-0.1022987365722656,0.4555405378341675,-0.1102119460701942,-0.6362495422363281,-0.1333482265472412,0.0085368677973747,0.0,0.0,0.7223961353302002,0.3707680702209472
-0.1032773032784462,0.4417159259319305,-0.0987666472792625,-0.6143446564674377,-0.1324381977319717,0.0182006657123565,0.0,0.0,0.813453197479248,0.4419790506362915
-0.1042736023664474,0.42814901471138,-0.1005241125822067,-0.602893054485321,-0.1315514743328094,0.0177343282848596,0.0,0.0,0.5725342035293579,0.1158397197723388
-0.105204202234745,0.4146416187286377,-0.0944099351763725,-0.6002103686332703,-0.1301989108324051,0.0270508434623479,0.0,0.0,0.2522958517074585,-0.0776162147521972
-0.106165125966072,0.4011335968971252,-0.0975208282470703,-0.6002321839332581,-0.1287728548049926,0.0285214576870203,0.0,0.0,0.4380559921264648,0.5437054634094238
-0.1070430725812912,0.3882627189159393,-0.0883305817842483,-0.5719919204711914,-0.1282474845647812,0.0105071533471345,0.0,0.0,0.7141436338424683,0.7162827253341675
-0.1077083572745323,0.37624192237854,-0.0660308077931404,-0.5343021750450134,-0.1287373155355453,-0.0097965020686388,0.0,0.0,-0.0158255696296691,-0.5526190400123596
-0.1084676757454872,0.3638485372066498,-0.0769871920347213,-0.5507259964942932,-0.1276814192533493,0.0211178511381149,0.0,0.0,-0.1260783672332763,0.0383622646331787
-0.1092709526419639,0.3510671257972717,-0.0816460698843002,-0.5679517388343811,-0.1263767182826995,0.0260944478213787,0.0,0.0,0.1604220867156982,0.381439208984375
-0.110021211206913,0.3387185335159302,-0.0767330899834632,-0.5486844778060913,-0.1246778815984726,0.0339764691889286,0.0,0.0,-0.5476150512695312,0.3217717409133911
-0.1108174324035644,0.3259818255901336,-0.0816020518541336,-0.5659101605415344,-0.1227026507258415,0.0395044572651386,0.0,0.0,-0.3367116451263428,-0.0359336137771606
-0.111660286784172,0.3128570318222046,-0.0865692049264907,-0.5831357836723328,-0.1204384565353393,0.0452840514481067,0.0,0.0,0.4189726114273071,-0.3314312100410461
-0.1124888435006141,0.3002404868602752,-0.0853840559720993,-0.5605343580245972,-0.1179209947586059,0.0503492578864097,0.0,0.0,0.1311292648315429,0.5660474300384521
-0.1132085770368576,0.2878096997737884,-0.073803536593914,-0.5523357391357422,-0.1161088943481445,0.036242127418518,0.0,0.0,0.376681923866272,0.1075336933135986
-0.1139248833060264,0.275412380695343,-0.0738610252737999,-0.5508192181587219,-0.1138833537697792,0.0445106625556945,0.0,0.0,0.8029953241348267,0.95949387550354
-0.1144538894295692,0.2632426023483276,-0.053718477487564,-0.540814995765686,-0.1130702570080757,0.0162619613111019,0.0,0.0,0.7639777660369873,0.2971564531326294
-0.114808365702629,0.2515668272972107,-0.0373443737626075,-0.5187790989875793,-0.111190065741539,0.0376036427915096,0.0,0.0,0.4565588235855102,-0.278908908367157
-0.1150531768798828,0.240000918507576,-0.0272954404354095,-0.5138338804244995,-0.1083927527070045,0.055946409702301,0.0,0.0,0.7734308242797852,-0.2060753107070922
-0.1152683272957801,0.2292504906654358,-0.024660212919116,-0.4775720834732055,-0.1052674129605293,0.062506690621376,0.0,0.0,0.4119551181793213,0.5438159704208374
-0.1153958290815353,0.2190718948841095,-0.0152365816757082,-0.4522108733654022,-0.1027953922748565,0.0494404807686805,0.0,0.0,-0.0813960433006286,0.4219831228256225
-0.1155756935477256,0.2085052132606506,-0.020859831944108,-0.4694364964962005,-0.0999538525938987,0.0568308532238006,0.0,0.0,0.5259300470352173,0.8170211315155029
-0.1156113594770431,0.1979666352272033,-0.0053170886822044,-0.4682635068893432,-0.0982108935713768,0.0348589494824409,0.0,0.0,0.5355714559555054,0.3418221473693847
-0.1157023459672927,0.1877537071704864,-0.0110162738710641,-0.4537828266620636,-0.0963131040334701,0.0379561409354209,0.0,0.0,0.7865363359451294,0.152658462524414
-0.1156661063432693,0.1785325556993484,0.0008983107400126,-0.4096579253673553,-0.0936061963438987,0.0541380643844604,0.0,0.0,-0.2269666194915771,0.1025607585906982
-0.1156836524605751,0.1689233183860778,-0.0048733814619481,-0.4268837571144104,-0.0905091315507888,0.0619413331151008,0.0,0.0,0.4590505361557007,0.7491440773010254
-0.1157537475228309,0.1599909216165542,-0.0088279573246836,-0.3968874216079712,-0.0887084230780601,0.0360140949487686,0.0,0.0,0.2595242261886596,-0.3769901394844055
-0.1157647147774696,0.1514564901590347,-0.0036233547143638,-0.379158616065979,-0.0862027779221534,0.0501127652823925,0.0,0.0,-0.2200146913528442,-0.3209520578384399
-0.1158297508955001,0.1425340920686721,-0.0094437133520841,-0.3963845074176788,-0.083295814692974,0.0581392347812652,0.0,0.0,0.4785341024398803,0.8203001022338867
-0.1159109100699424,0.1342334896326065,-0.0096877766773104,-0.3688289523124695,-0.0817349106073379,0.0312179438769817,0.0,0.0,0.1832746267318725,-0.3372033834457397
-0.1160347014665603,0.1260801404714584,-0.0142886564135551,-0.3622647821903229,-0.0798493102192878,0.0377120785415172,0.0,0.0,0.3178818225860595,0.8300285339355469
-0.1162141785025596,0.1182617545127868,-0.0184859596192836,-0.3474554419517517,-0.079317457973957,0.0106370076537132,0.0,0.0,0.7717247009277344,0.7183111906051636
-0.116521455347538,0.1109076365828514,-0.0298379659652709,-0.3268963396549225,-0.0801940560340881,-0.0175319705158472,0.0,0.0,0.6228270530700684,0.7117843627929688
-0.116655632853508,0.1042046844959259,-0.0117632132023572,-0.2980023920536041,-0.0818417072296142,-0.0329529643058776,0.0,0.0,0.1501886844635009,0.5473415851593018
-0.1167323142290115,0.0974817872047424,-0.0054076663218438,-0.2989205121994018,-0.0840792283415794,-0.0447504483163356,0.0,0.0,0.6580613851547241,-0.0753149390220642
-0.1166524887084961,0.0914969518780708,0.0091418800875544,-0.2660596668720245,-0.0852264612913131,-0.0229446832090616,0.0,0.0,0.0441569089889526,0.5863537788391113
-0.1165529265999794,0.085858017206192,0.0118879610672593,-0.2507307827472687,-0.0871448144316673,-0.038366787135601,0.0,0.0,0.0171775817871093,0.8758859634399414
-0.1162858977913856,0.0806046798825264,0.0299712121486663,-0.2336762994527816,-0.0903931185603141,-0.0649658665060997,0.0,0.0,-0.1880273818969726,0.8348433971405029
-0.1159962639212608,0.0749533772468566,0.0337164849042892,-0.2514610588550567,-0.0950956791639328,-0.0940514653921127,0.0,0.0,-0.0152023434638977,0.0640181303024292
-0.1157570853829383,0.0689142569899559,0.0282242391258478,-0.2686878442764282,-0.0993773117661476,-0.0856325700879097,0.0,0.0,0.3426841497421264,-0.103500485420227
-0.1154553443193435,0.0634351074695587,0.0338336639106273,-0.2437652647495269,-0.1030092984437942,-0.0726396590471267,0.0,0.0,0.5257372856140137,0.3950903415679931
-0.1150852218270301,0.0581881366670131,0.0399057939648628,-0.2333998680114746,-0.105875089764595,-0.0573157891631126,0.0,0.0,0.1991608142852783,-0.5918208360671997
-0.1148599609732627,0.0532463639974594,0.0239630136638879,-0.2197347730398178,-0.1073088720440864,-0.0286755468696355,0.0,0.0,0.2006173133850097,0.1109168529510498
-0.1147347465157508,0.0484894141554832,0.013979542069137,-0.2115293890237808,-0.1087517216801643,-0.0288568772375583,0.0,0.0,0.3202240467071533,0.7150673866271973
-0.1145696640014648,0.0440093390643596,0.0189981944859027,-0.1992948651313781,-0.1112272813916206,-0.0495113395154476,0.0,0.0,0.4494950771331787,0.5632851123809814
-0.11432895809412,0.0398263074457645,0.0272131469100713,-0.1861497461795807,-0.1143478006124496,-0.0624103024601936,0.0,0.0,0.6867892742156982,-0.1025930643081665
-0.1139575988054275,0.0357793904840946,0.0392216145992279,-0.1800254881381988,-0.1164294555783271,-0.0416331216692924,0.0,0.0,0.4973076581954956,0.3189154863357544
-0.113469123840332,0.0322520360350608,0.0501096434891223,-0.1568688452243805,-0.1176807507872581,-0.0250260736793279,0.0,0.0,0.4346048831939697,0.0487846136093139
-0.1129178032279014,0.0293759200721979,0.0558615326881408,-0.1278832703828811,-0.1184101626276969,-0.014587971381843,0.0,0.0,0.1490345001220703,0.344989538192749
