x_pos,y_pos,x_vel,y_vel,angle,ang_vel,leg_1,leg_2,main_booster,lat_booster
-0.0015386581653729,1.4034076929092407,-0.1552577465772628,-0.3338791728019714,0.0012412583455443,0.0244462341070175,0.0,0.0,-0.9987912687889242,-0.7838876395234075
-0.0031493187416344,1.3956979513168335,-0.16317018866539,-0.342655599117279,0.0033191610127687,0.0415625050663948,0.0,0.0,-0.3543217047986813,-0.6322814205722758
-0.004814529325813,1.3877664804458618,-0.169052392244339,-0.3525227308273315,0.0058153667487204,0.0499290265142917,0.0,0.0,-0.9504040534419452,0.7951506252964408
-0.0064457892440259,1.3796160221099854,-0.1638045608997345,-0.3622458875179291,0.0064874719828367,0.0134435277432203,0.0,0.0,-0.8526688706872643,-0.8134122233294611
-0.0081437109038233,1.3712509870529177,-0.1711816191673278,-0.3717885017395019,0.0078584784641861,0.0274228155612945,0.0,0.0,-0.8124973245543001,-0.9833231917939984
-0.0099181178957223,1.3626670837402344,-0.1797658652067184,-0.3815193176269531,0.010159071534872,0.0460157543420791,0.0,0.0,0.500255813609187,-0.7684828213681153
-0.0117979999631643,1.354651927947998,-0.1912258863449096,-0.3562566936016083,0.0133606810122728,0.0640383213758468,0.0,0.0,0.4051013841843747,-0.5659795155076806
-0.0136088375002145,1.3472487926483154,-0.1851953119039535,-0.3290695548057556,0.0174269191920757,0.0813321322202682,0.0,0.0,-0.2998056788142766,0.952941322459207
-0.015363598242402,1.3396412134170532,-0.1771239042282104,-0.3381349146366119,0.0190537385642528,0.0325392074882984,0.0,0.0,0.5702155485275191,-0.8307076198093881
-0.01721534691751,1.3328557014465332,-0.1878814995288849,-0.3016185462474823,0.0217336062341928,0.0536024272441864,0.0,0.0,0.2940462544930478,0.5098081949387037
-0.0189814567565917,1.3265554904937744,-0.1778700649738311,-0.2800282537937164,0.0229818951338529,0.0249679666012525,0.0,0.0,-0.5719545077181936,0.8593731754690832
-0.020689582452178,1.3200392723083496,-0.1695456802845001,-0.2895908951759338,0.0217285379767417,-0.0250694658607244,0.0,0.0,-0.5986768295585652,0.6142103082341768
-0.0223566051572561,1.3133113384246826,-0.1633365899324417,-0.2989693582057953,0.0183929130434989,-0.0667187124490737,0.0,0.0,0.6955376902109984,0.6898510030710947
-0.0239167213439941,1.3069108724594116,-0.1508200466632843,-0.28441321849823,0.0132633727043867,-0.1026002317667007,0.0,0.0,-0.5054774271926463,-0.6951463721303697
-0.0255367271602153,1.300300121307373,-0.1572751104831695,-0.2937746942043304,0.0085832932963967,-0.0936098843812942,0.0,0.0,-0.667038063528639,-0.6652337433540021
-0.0272177699953317,1.2934646606445312,-0.1638473719358444,-0.3037813603878021,0.0043738586828112,-0.0841965153813362,0.0,0.0,0.7625815638772317,0.9881970051886888
-0.0286781303584575,1.2877949476242063,-0.1394170820713043,-0.2519818842411041,-0.0021658397745341,-0.1308059692382812,0.0,0.0,-0.3174609399379571,0.6442727468639736
-0.03009376488626,1.2819033861160278,-0.1327233463525772,-0.2618798613548279,-0.0108982939273118,-0.1746647953987121,0.0,0.0,0.3309356892595294,-0.6509419794376152
-0.0314852707087993,1.2767717838287354,-0.1311636865139007,-0.2281424552202224,-0.0187933389097452,-0.1579152941703796,0.0,0.0,-0.8176063589419924,0.6795074834031696
-0.0328484550118446,1.271423101425171,-0.1265352666378021,-0.2378726154565811,-0.0284735783934593,-0.1936222612857818,0.0,0.0,0.7592985533811332,-0.9165257977302098
-0.0341283790767192,1.267062783241272,-0.1196632236242294,-0.1939639449119568,-0.0366991832852363,-0.1645270884037017,0.0,0.0,0.0900321091269036,0.5228720945750206
-0.0353659614920616,1.2629190683364868,-0.1137918978929519,-0.1844400465488433,-0.0465673543512821,-0.1973813027143478,0.0,0.0,0.7630941036799228,-0.9531587482321252
-0.0365156158804893,1.259423851966858,-0.106522299349308,-0.1556228548288345,-0.054921705275774,-0.167102113366127,0.0,0.0,0.5727354397214044,0.7166438663156167
-0.0375380516052246,1.256139874458313,-0.0918848291039466,-0.1463613063097,-0.0651802495121955,-0.2051892578601837,0.0,0.0,0.8872651937089029,0.6305452454212819
-0.0386547073721885,1.2537559270858765,-0.0989614799618721,-0.1065540313720703,-0.0777678564190864,-0.2517746090888977,0.0,0.0,0.1891005468576458,-0.884728196984478
-0.0399425514042377,1.2519214153289795,-0.1171694546937942,-0.0821829736232757,-0.0892709195613861,-0.2300610542297363,0.0,0.0,0.7612659323234889,0.7812659875035111
-0.0411135666072368,1.2510260343551636,-0.1033220738172531,-0.0406733192503452,-0.1029419749975204,-0.2734212577342987,0.0,0.0,0.7119896492552213,-0.9826830335713022
-0.0424433723092079,1.2512388229370115,-0.1203675493597984,0.0085383895784616,-0.1154728457331657,-0.2506170868873596,0.0,0.0,-0.7049376169323063,-0.8871815855663508
-0.0438761711120605,1.2512598037719729,-0.132215604186058,3.921362440451048e-05,-0.1264688819646835,-0.219920352101326,0.0,0.0,-0.810539035147934,0.5071667989189512
-0.0452893264591693,1.2510578632354736,-0.1286676675081253,-0.0100973211228847,-0.1390655040740966,-0.2519323229789734,0.0,0.0,-0.9755680587219626,-0.968519903386778
-0.046793557703495,1.25066876411438,-0.1390570104122162,-0.0184026453644037,-0.1504033505916595,-0.2267570048570633,0.0,0.0,-0.6809077858924866,-0.8660609126091003
-0.0483934395015239,1.2500779628753662,-0.1499710828065872,-0.0273000467568635,-0.1604097336530685,-0.2001278698444366,0.0,0.0,-0.8391777276992798,-0.6325491666793823
-0.0500675216317176,1.2492927312850952,-0.1582220792770385,-0.0359222963452339,-0.1695945560932159,-0.1836965382099151,0.0,0.0,-0.8235113620758057,-0.3583157062530517
-0.0517600998282432,1.248293399810791,-0.1594852358102798,-0.0455649718642234,-0.1794006675481796,-0.1961222440004348,0.0,0.0,-0.9588478803634644,-0.9140183925628662
-0.0535405166447162,1.247100591659546,-0.1694172471761703,-0.0540751293301582,-0.1880429536104202,-0.1728457659482956,0.0,0.0,-0.9581668972969056,-0.5419825911521912
-0.0553796775639057,1.2457094192504885,-0.1757590770721435,-0.0628899857401847,-0.1962476819753646,-0.1640948951244354,0.0,0.0,-0.9239910244941713,-0.8322662115097046
-0.0573054328560829,1.2441198825836182,-0.185538575053215,-0.0715970322489738,-0.2033300697803497,-0.1416477859020233,0.0,0.0,-0.9407386183738708,0.2187145948410034
-0.0592497810721397,1.2423160076141355,-0.186801940202713,-0.0812385305762291,-0.2110306024551391,-0.154010608792305,0.0,0.0,-0.9134251475334167,-0.6430068016052246
-0.0612646117806434,1.2403219938278198,-0.1946187317371368,-0.0896205231547355,-0.2179648727178573,-0.1386853903532028,0.0,0.0,-0.9779074788093568,-0.4590036869049072
-0.0632981285452842,1.2381138801574707,-0.1958809196949005,-0.0992625504732132,-0.2255148440599441,-0.1509993821382522,0.0,0.0,-0.6836578845977783,-0.1798511743545532
-0.06535005569458,1.2356916666030884,-0.1971423923969268,-0.1089056357741355,-0.2336790561676025,-0.1632841825485229,0.0,0.0,-0.8995307683944702,-0.5630002021789551
-0.0674550980329513,1.2330666780471802,-0.2027476280927658,-0.1179186329245567,-0.2415542155504226,-0.1575036346912384,0.0,0.0,-0.7935082912445068,-0.7409798502922058
-0.0696275681257247,1.2302372455596924,-0.2101299464702606,-0.1269321739673614,-0.2487927079200744,-0.1447699218988418,0.0,0.0,-0.9193460941314696,-0.824546217918396
-0.0718713775277137,1.2272124290466309,-0.2180438339710235,-0.1355258673429489,-0.2552503049373626,-0.1291525959968567,0.0,0.0,-0.9419437646865844,-0.6173310875892639
-0.0741851776838302,1.223986268043518,-0.2257548868656158,-0.1443820893764495,-0.2609886527061462,-0.1147671490907669,0.0,0.0,-0.8383819460868835,-0.357566773891449
-0.0765172019600868,1.2205458879470823,-0.2270067185163498,-0.1540247499942779,-0.267331451177597,-0.1268559992313385,0.0,0.0,-0.8922036290168762,-0.0893061161041259
-0.07886753231287,1.216891527175903,-0.2282561361789703,-0.1636682301759719,-0.2742761671543121,-0.138894110918045,0.0,0.0,-0.969485342502594,-0.1676766276359558
-0.0812360793352127,1.2130234241485596,-0.2295028269290924,-0.17331263422966,-0.2818200290203094,-0.1508773118257522,0.0,0.0,-0.8895541429519653,-0.0900803208351135
-0.0836226493120193,1.2089416980743408,-0.2307465374469757,-0.1829580515623092,-0.2899600863456726,-0.1628011614084243,0.0,0.0,-0.943253219127655,-0.2658417224884033
-0.0860273391008377,1.2046465873718262,-0.2319869548082351,-0.1926044970750808,-0.2986931204795837,-0.1746610552072525,0.0,0.0,-0.8459978103637695,-0.1354633569717407
-0.0884497612714767,1.2001382112503052,-0.2332237958908081,-0.2022520750761032,-0.3080157041549682,-0.1864520609378814,0.0,0.0,-0.9210926294326782,-0.9363824129104614
-0.0909655541181564,1.195459246635437,-0.2440443038940429,-0.2095760554075241,-0.3158280253410339,-0.1562462896108627,0.0,0.0,-0.9482437372207642,-0.202017068862915
-0.0934989899396896,1.1905667781829834,-0.2452715933322906,-0.2192229926586151,-0.3242222368717193,-0.1678844392299652,0.0,0.0,-0.9614426493644714,-0.8351121544837952
-0.0961102470755577,1.185499668121338,-0.2541548609733581,-0.2267932146787643,-0.3314895927906036,-0.1453464031219482,0.0,0.0,-0.8594911098480225,-0.5907050967216492
-0.0987726226449012,1.1802337169647217,-0.259595662355423,-0.235575184226036,-0.3384237587451935,-0.1386834532022476,0.0,0.0,-0.6936336159706116,-0.5679442882537842
-0.1015016585588455,1.1747777462005615,-0.2670292258262634,-0.2438805848360061,-0.3445823192596435,-0.1231714934110641,0.0,0.0,-0.9277124404907228,-0.8038563132286072
-0.1042964905500412,1.1691421270370483,-0.2744109332561493,-0.2516989409923553,-0.3499058187007904,-0.1064702495932579,0.0,0.0,-0.9301165342330932,-0.8751468062400818
-0.1071574240922927,1.163323163986206,-0.2818225920200348,-0.2596636116504669,-0.3543995916843414,-0.0898753851652145,0.0,0.0,-0.8001878261566162,-0.3107651472091675
-0.1100354194641113,1.1572906970977783,-0.2830098867416382,-0.2693080902099609,-0.3594449162483215,-0.1009071245789527,0.0,0.0,-0.4289005398750305,-0.2627431154251098
-0.1129302978515625,1.1510441303253174,-0.2841891348361969,-0.2789531052112579,-0.3650355637073517,-0.1118128150701522,0.0,0.0,-0.6048559546470642,-0.664265513420105
-0.1158878356218338,1.1446043252944946,-0.2911383509635925,-0.2874007821083069,-0.369922399520874,-0.0977369099855423,0.0,0.0,-0.8351044654846191,-0.3262118101119995
-0.1188619583845138,1.1379508972167969,-0.2922991216182709,-0.2970456480979919,-0.3753407299518585,-0.1083665490150451,0.0,0.0,-0.7243350148200989,-0.8385527729988098
-0.1219017058610916,1.131110429763794,-0.2996647357940674,-0.3051597774028778,-0.3799130320549011,-0.0914462208747863,0.0,0.0,0.1835705041885376,-0.7075084447860718
-0.1248283386230468,1.1246891021728516,-0.2892734408378601,-0.286302238702774,-0.3835209012031555,-0.0721573084592819,0.0,0.0,-0.6426618099212646,-0.7964247465133667
-0.12782983481884,1.1180830001831057,-0.2977921664714813,-0.2942404747009277,-0.3860226571559906,-0.0500352457165718,0.0,0.0,-0.4072556495666504,-0.4175053834915161
-0.1308470666408538,1.1112627983093262,-0.2989069819450378,-0.3038836419582367,-0.3890230059623718,-0.0600068867206573,0.0,0.0,-0.1910486221313476,0.1253331899642944
-0.1338797509670257,1.1042284965515137,-0.300008624792099,-0.313526839017868,-0.3925125300884247,-0.0697901993989944,0.0,0.0,-0.2857695817947387,-0.3364866971969604
-0.1369278877973556,1.0969804525375366,-0.3010963797569275,-0.3231700956821441,-0.3964812755584717,-0.0793751329183578,0.0,0.0,-0.6990595459938049,-0.6959770917892456
-0.1400369703769683,1.089555740356445,-0.3080574572086334,-0.3307819366455078,-0.399534523487091,-0.0610646791756153,0.0,0.0,0.3789706230163574,-0.4049373269081116
-0.1430795639753341,1.08250892162323,-0.3006415665149688,,-0.4034089744091034,-0.0774887949228286,0.0,0.0,-0.4395288228988647,-0.5634400248527527
-0.1461828202009201,1.075279951095581,-0.3075567781925201,-0.322075754404068,-0.4063828587532043,-0.0594777390360832,0.0,0.0,0.12693452835083,-0.1652517914772033
-0.149113267660141,1.068409442901611,-0.2899600565433502,-0.3062493205070495,-0.4096940457820892,-0.0662242844700813,0.0,0.0,-0.0913709998130798,-0.6539610624313354
-0.1521125733852386,1.0613682270050049,-0.298007994890213,-0.3134971559047699,-0.4117726385593414,-0.0415715500712394,0.0,0.0,0.2373502254486084,0.346400499343872
-0.1549019813537597,1.0546743869781494,-0.2768732905387878,-0.2981152832508087,-0.4140054583549499,-0.0446562878787517,0.0,0.0,-0.1884493827819824,-0.3287878632545471
-0.1577047407627105,1.0477659702301023,-0.2778357863426208,-0.3077558875083923,-0.4166334867477417,-0.052560668438673,0.0,0.0,0.375809907913208,-0.1791083216667175
-0.1603589951992035,1.0409798622131348,-0.26288503408432,-0.3023499548435211,-0.4193806946277618,-0.0549442246556282,0.0,0.0,0.2182862758636474,-0.191987931728363
-0.1629451811313629,1.0343365669250488,-0.2556384205818176,-0.2961468994617462,-0.4226022064685821,-0.0644302666187286,0.0,0.0,0.4744136333465576,-0.3451855182647705
-0.1652599275112152,1.0284518003463743,-0.2281467914581298,-0.2625531256198883,-0.4262096583843231,-0.0721491500735282,0.0,0.0,0.8564251661300659,-0.4210802316665649
-0.1671256124973297,1.0235483646392822,-0.1833108365535736,-0.2189134210348129,-0.4297369420528412,-0.0705453976988792,0.0,0.0,0.8983219861984253,-0.1994651556015014
-0.1687284409999847,1.0197917222976685,-0.1561954319477081,-0.1682240813970565,-0.4341804981231689,-0.088870957493782,0.0,0.0,0.9515759944915771,-0.4995325207710266
-0.1703162193298339,1.016449213027954,-0.1537661850452423,-0.1501144021749496,-0.4396344721317291,-0.1090795770287513,0.0,0.0,0.9626457691192628,-0.3389770984649658
-0.1714712083339691,1.0141360759735107,-0.1104493364691734,-0.1043994724750518,-0.4451534152030945,-0.1103790998458862,0.0,0.0,0.6407263278961182,-0.5958471894264221
-0.1725299805402755,1.0124821662902832,-0.1014988422393798,-0.0749120414257049,-0.4499553143978119,-0.0960378497838974,0.0,0.0,0.7867248058319092,-0.4241814017295837
-0.1733327805995941,1.0116420984268188,-0.0754296481609344,-0.038907267153263,-0.4552834630012512,-0.1065631881356239,0.0,0.0,0.3800594806671142,-0.4950484037399292
-0.1738967895507812,1.011380672454834,-0.0512937977910041,-0.0132921738550066,-0.4608921408653259,-0.1121737211942672,0.0,0.0,-0.4146000146865845,-0.6826524138450623
-0.1745100021362304,1.0109347105026243,-0.0571514070034027,-0.0212036482989788,-0.4654954075813293,-0.0920651108026504,0.0,0.0,-0.3287305831909179,-0.7871060371398926
-0.1751864403486251,1.010306715965271,-0.0647287666797638,-0.028898449614644,-0.4687244296073913,-0.0645810440182685,0.0,0.0,0.2739295959472656,-0.6988648176193237
-0.1757092475891113,1.009856939315796,-0.0506109185516834,-0.0205538533627986,-0.4705709218978882,-0.0369300320744514,0.0,0.0,-0.5122052431106567,-0.7686551809310913
-0.1762796342372894,1.0092222690582275,-0.0563227348029613,-0.0284497421234846,-0.4713614583015442,-0.0158106964081525,0.0,0.0,-0.132114291191101,-0.7967684268951416
-0.1769011467695236,1.0083990097045898,-0.0624531395733356,-0.0364814512431621,-0.4710200726985931,0.0068278349936008,0.0,0.0,-0.4376368522644043,-0.6154276728630066
-0.1775704324245453,1.0073970556259155,-0.0683078169822692,-0.0440667904913425,-0.4694942831993103,0.0305160377174615,0.0,0.0,0.2187243700027465,-0.8180071115493774
-0.1780238151550293,1.0069587230682373,-0.0481925830245018,-0.0185138061642646,-0.4663335978984833,0.0632137507200241,0.0,0.0,-0.155509352684021,-0.5658940076828003
-0.1785126626491546,1.0063302516937256,-0.0525271780788898,-0.0267226733267307,-0.4623176753520965,0.080318734049797,0.0,0.0,-0.2812883853912353,-0.7823107838630676
-0.1790539771318435,1.0055124759674072,-0.0589405074715614,-0.0347557887434959,-0.4570204019546509,0.1059455052018165,0.0,0.0,0.1642729043960571,-0.6824536919593811
-0.1795265227556228,1.0050231218338013,-0.0532849542796611,-0.0197875704616308,-0.4503978490829468,0.1324512064456939,0.0,0.0,0.3498032093048095,-0.3239626884460449
-0.1796330511569976,1.0052247047424316,-0.016963118687272,0.0109742637723684,-0.4434898793697357,0.1381594240665435,0.0,0.0,-0.4684809446334839,-0.6910775303840637
-0.1797930747270584,1.00524640083313,-0.0236778520047664,0.0033748089335858,-0.4351023435592651,0.1677499413490295,0.0,0.0,-0.226029634475708,-0.1792330741882324
-0.1799549162387848,1.0050524473190308,-0.0239029731601476,-0.0062574502080678,-0.4267148375511169,0.1677493751049041,0.0,0.0,-0.3512042760848999,-0.2759963870048523
-0.1801181733608245,1.0046426057815552,-0.0240902788937091,-0.015889149159193,-0.418310672044754,0.1680830717086792,0.0,0.0,-0.1820808053016662,-0.2853798866271972
-0.1802823990583419,1.0040167570114136,-0.0242400858551263,-0.0255203451961278,-0.4098735451698303,0.1687432825565338,0.0,0.0,0.0399987697601318,-0.5261543393135071
-0.1803489625453949,1.0038862228393557,-0.0154765490442514,-0.0032775008585304,-0.4003833532333374,0.1898036450147628,0.0,0.0,-0.4645436406135559,0.0622910261154174
-0.1804152429103851,1.003539800643921,-0.0155535545200109,-0.0129092587158083,-0.3908287584781647,0.1910910904407501,0.0,0.0,-0.2725563049316406,-0.0264316797256469
-0.1804808676242828,1.0029776096343994,-0.015594532713294,-0.0225407071411609,-0.3811948299407959,0.1926786005496978,0.0,0.0,-0.4900069832801819,-0.2228701114654541
-0.1805452406406402,1.002199411392212,-0.0156001420691609,-0.0321719050407409,-0.3714669644832611,0.1945566087961197,0.0,0.0,0.0416655540466308,-0.2738127112388611
-0.1803812086582183,1.0018022060394287,0.0068079493939876,-0.0151982139796018,-0.361322283744812,0.2028936594724655,0.0,0.0,-0.6561737060546875,0.0319496393203735
-0.1802150756120681,1.001189112663269,0.0068705389276146,-0.0248295944184064,-0.351056158542633,0.205322265625,0.0,0.0,-0.8301045894622803,0.4886654615402221
-0.1800462752580642,1.0003600120544434,0.0069661168381571,-0.0344609208405017,-0.3406556248664856,0.2080107480287552,0.0,0.0,-0.7516558766365051,0.2213640213012695
-0.1798744201660156,0.9993149638175964,0.0070937708951532,-0.0440922640264034,-0.3301081955432892,0.2109484672546386,0.0,0.0,-0.6283060312271118,0.0856620073318481
-0.1796992272138595,0.9980541467666626,0.0072525450959801,-0.053723681718111,-0.3194019496440887,0.2141248285770416,0.0,0.0,-0.6096433401107788,0.5693624019622803
-0.1794720590114593,0.9965538382530212,0.0134942783042788,-0.064687393605709,-0.3098343908786773,0.1913509666919708,0.0,0.0,-0.8766377568244934,0.0602896213531494
-0.1792407035827636,0.99483722448349,0.0137133207172155,-0.0743169710040092,-0.3000857830047607,0.194972887635231,0.0,0.0,-0.2955542802810669,0.215836763381958
-0.1790047585964203,0.9929044246673584,0.0139603931456804,-0.0839467421174049,-0.2901457250118255,0.198801189661026,0.0,0.0,-0.716068685054779,0.1682085990905761
-0.1787637770175933,0.9907556772232056,0.0142344217747449,-0.0935767665505409,-0.280004471540451,0.2028252631425857,0.0,0.0,-0.5889113545417786,0.4569654464721679
-0.178517535328865,0.9883907437324524,0.014534318819642,-0.1032070815563201,-0.2696527540683746,0.2070344984531402,0.0,0.0,-0.8139323592185974,0.2836999893188476
-0.1782655715942382,0.9858099818229676,0.0148589937016367,-0.1128377467393875,-0.2590818405151367,0.2114184200763702,0.0,0.0,-0.765841007232666,0.8004341125488281
-0.1779489517211914,0.9829891324043274,0.0226109884679317,-0.1237981840968132,-0.2498454004526138,0.184728741645813,0.0,0.0,-0.683256208896637,0.7381080389022827
-0.1775674819946289,0.9799279570579528,0.0303716212511062,-0.1347465813159942,-0.2419308722019195,0.1582908481359481,0.0,0.0,-0.9048250913619996,0.7708361148834229
-0.1771088540554046,0.9766167998313904,0.0397005081176757,-0.1461657583713531,-0.2356734871864318,0.1251474022865295,0.0,0.0,-0.5623684525489807,0.8238203525543213
-0.1765695512294769,0.9730656743049622,0.0494177937507629,-0.1571123898029327,-0.2310948669910431,0.0915724784135818,0.0,0.0,-0.9184880256652832,0.7161067724227905
-0.1759649217128753,0.9692838191986084,0.057169921696186,-0.1675699204206466,-0.2277592718601226,0.0667120292782783,0.0,0.0,-0.6038120985031128,0.3249962329864502
