x_pos,y_pos,x_vel,y_vel,angle,ang_vel,leg_1,leg_2,main_booster,lat_booster
-0.001503562903963,1.4030115604400637,-0.1526952683925628,-0.3514910042285919,0.0020919926464557,0.0412911772727966,0.0,0.0,-0.0192398279939529,0.7674409520693468
-0.0029190063942223,1.3945097923278809,-0.1422760635614395,-0.3778586089611053,0.0028174356557428,0.0145109053701162,0.0,0.0,0.5369074800718769,-0.7419120492886571
-0.0042310715653002,1.3859533071517944,-0.1340419054031372,-0.3802961111068725,0.0056167892180383,0.0559923574328422,0.0,0.0,-0.5004993346476643,0.6510305415246146
-0.005473899655044,1.3767821788787842,-0.1264125555753708,-0.4076206386089325,0.0077161006629467,0.0419900864362716,0.0,0.0,-0.9305610690821312,-0.8461774505842262
-0.0067384717985987,1.3670003414154053,-0.1302421391010284,-0.4347755014896393,0.0114687699824571,0.0750603079795837,0.0,0.0,-0.7290880982768264,-0.8899839500306939
-0.0080237388610839,1.3566036224365234,-0.1340365707874298,-0.4621263146400451,0.016917860135436,0.1089918762445449,0.0,0.0,-0.0845277542939815,0.9746920502550336
-0.0091993333771824,1.3455963134765625,-0.1215306669473648,-0.4892648160457611,0.0208453554660081,0.0785571411252021,0.0,0.0,0.1044426794210493,0.7726289256395258
-0.0101697919890284,1.3346326351165771,-0.0999082326889038,-0.4873159527778625,0.0236774869263172,0.0566476956009864,0.0,0.0,0.9819904047109632,0.9368608476723072
-0.0110653880983591,1.3245737552642822,-0.0908549278974533,-0.4470815658569336,0.0249577481299638,0.0256075300276279,0.0,0.0,-0.5938805880604539,-0.6037119118391567
-0.0119651798158884,1.313904047012329,-0.0928282290697097,-0.4742646217346191,0.0277727525681257,0.0563051514327526,0.0,0.0,0.34084557889441,-0.9218110256637716
-0.0128249172121286,1.3033461570739746,-0.0910772979259491,-0.4693413972854614,0.0328204371035099,0.1009631305932998,0.0,0.0,-0.5004755600839721,-0.6578908711388518
-0.0136823654174804,1.2921723127365112,-0.0923464521765708,-0.4967767000198364,0.0393542796373367,0.1306889057159423,0.0,0.0,-0.3478819493409986,0.9017064175958546
-0.0144031522795557,1.2803958654403689,-0.0768297463655471,-0.5235300660133362,0.0440471619367599,0.0938664525747299,0.0,0.0,0.6621642489970518,-0.9669315502602706
-0.0150850294157862,1.268533706665039,-0.0753095149993896,-0.5274312496185303,0.0511031858623027,0.1411331593990326,0.0,0.0,-0.0638197499861732,0.6918386503587304
-0.0156452171504497,1.2560715675354004,-0.0617684200406074,-0.5540772080421448,0.0567947439849376,0.1138415932655334,0.0,0.0,0.4210103481720726,-0.9828499569896396
-0.0161319728940725,1.2433713674545288,-0.0568170957267284,-0.5647761821746826,0.0648621693253517,0.1613632589578628,0.0,0.0,-0.0983894100275304,0.60408885262064
-0.0165019035339355,1.230072021484375,-0.0439790375530719,-0.5913980603218079,0.0717827752232551,0.1384247094392776,0.0,0.0,-0.5957279658048726,0.9200135666784888
-0.0167212486267089,1.2161626815795898,-0.0269718430936336,-0.6184517741203308,0.0767755731940269,0.0998651310801506,0.0,0.0,0.8379737112332297,-0.8991997310061837
-0.0168987270444631,1.2029905319213867,-0.0251269582659006,-0.5858166217803955,0.0841011330485344,0.1465243548154831,0.0,0.0,-0.5595485115175225,-0.695914154739636
-0.0170740131288766,1.18919837474823,-0.0268233511596918,-0.6135284900665283,0.0933225154876709,0.1844442635774612,0.0,0.0,0.6153380031303437,-0.6639250460185881
-0.0171692855656147,1.1759096384048462,-0.0207739640027284,-0.5913484692573547,0.1044916808605194,0.2234037816524505,0.0,0.0,0.2923558760051323,0.7987221251436609
-0.0171599388122558,1.162532925605774,-0.0090313572436571,-0.5952422022819519,0.1144062951207161,0.1983098536729812,0.0,0.0,0.0178715236936626,-0.9252054458123796
-0.0170974731445312,1.1490478515625,-0.005853584036231,-0.6003033518791199,0.1264648586511612,0.2411925792694091,0.0,0.0,0.4687034315732814,-0.9049936637493196
-0.0169998165220022,1.1353555917739868,-0.0045523131266236,-0.6098262071609497,0.1407332718372345,0.285394012928009,0.0,0.0,-0.1440939889732566,0.9057721285892172
-0.0167768485844135,1.1210672855377195,0.0090854549780488,-0.6363396048545837,0.1539360433816909,0.2640792727470398,0.0,0.0,-0.9457193502514368,-0.7507270308508717
-0.0165518764406442,1.1061351299285889,0.007109054364264,-0.6653153300285339,0.1693225353956222,0.3077294826507568,0.0,0.0,0.9288892673068,-0.8004710901320282
-0.016453742980957,1.0918385982513428,-0.0074442820623517,-0.6374645829200745,0.1866392344236374,0.3463339507579803,0.0,0.0,0.210379046717597,0.7179841011223606
-0.0164436344057321,1.0778179168701172,-0.0149514898657798,-0.6252371668815613,0.202698141336441,0.3211782574653625,0.0,0.0,0.99468086217273,0.9270171715753084
-0.016644287854433,1.0645391941070557,-0.0341270789504051,-0.592146098613739,0.216880589723587,0.2836493849754333,0.0,0.0,0.1891169416425335,0.6884367906860289
-0.0168059356510639,1.0511746406555176,-0.0291012339293956,-0.595932126045227,0.2299741804599762,0.2618722319602966,0.0,0.0,0.0287450838022147,0.9967433149463352
-0.0169203765690326,1.0380127429962158,-0.0226632915437221,-0.5867639780044556,0.2413564473390579,0.2276457846164703,0.0,0.0,-0.7668773745743187,0.9151990904493914
-0.016893196851015,1.024257779121399,-0.007195059210062,-0.6129887104034424,0.2514491975307464,0.2018541842699051,0.0,0.0,0.4698740377382924,-0.7433218748855606
-0.017099667340517,1.010883092880249,-0.0321806631982326,-0.5964447855949402,0.2632178664207458,0.2353732138872146,0.0,0.0,0.1812875792171742,-0.9641799899807976
-0.0174155235290527,0.9972135424613952,-0.0452895797789096,-0.6100684404373169,0.2772543728351593,0.2807304263114929,0.0,0.0,0.7116977691805948,-0.8476710013458394
-0.0178738590329885,0.9838544726371764,-0.061490137130022,-0.5967885255813599,0.2933509945869446,0.3219326734542846,0.0,0.0,-0.8637707474374541,0.6151295588718351
-0.0182026866823434,0.9699128270149232,-0.0475225262343883,-0.6226457953453064,0.3084650635719299,0.3022822439670563,0.0,0.0,0.3049592315514111,0.7062717775130359
-0.0185258872807025,0.9558876752853394,-0.0457569062709808,-0.6262617707252502,0.3224200904369354,0.2791005373001098,0.0,0.0,0.5272868588903301,0.7067092411190148
-0.0188998226076364,0.942304253578186,-0.0497417300939559,-0.6065142154693604,0.3353058993816376,0.2577159404754638,0.0,0.0,-0.152906873699073,0.8980394681277633
-0.0191289894282817,0.9281530380249025,-0.0338615849614143,-0.6315259337425232,0.3467700779438019,0.2292833030223846,0.0,0.0,-0.3031250468441062,0.7270601054578031
-0.0192168243229389,0.913423240184784,-0.0184917692095041,-0.657031238079071,0.3569784760475158,0.2041676938533783,0.0,0.0,0.0741210527751419,0.956866214480726
-0.0194046013057231,0.8987979292869568,-0.0269072614610195,-0.6520496010780334,0.3655438423156738,0.1713075190782547,0.0,0.0,-0.7820212841033936,0.998776078224182
-0.0194171909242868,0.8836106657981873,-0.0073073012754321,-0.6765468716621399,0.3719399571418762,0.1279225200414657,0.0,0.0,-0.5975448489189148,0.9992432594299316
-0.019255256280303,0.8678518533706665,0.0121237691491842,-0.701461672782898,0.3762617707252502,0.0864356607198715,0.0,0.0,-0.2048444747924804,0.9993257522583008
-0.0189203266054391,0.851530134677887,0.0313955135643482,-0.7259616851806641,0.3784870207309723,0.0445042327046394,0.0,0.0,-0.0931991338729858,0.99984610080719
-0.0184265132993459,0.8346266150474548,0.0487967953085899,-0.7514175176620483,0.3791023194789886,0.0123059228062629,0.0,0.0,0.05207359790802,0.9995752573013306
-0.0178151130676269,0.8174620866775513,0.0622323676943779,-0.7625819444656372,0.3779428601264953,-0.0231890324503183,0.0,0.0,0.0037574768066406,0.997310996055603
-0.017099380493164,0.8001276850700378,0.0743464007973671,-0.7696777582168579,0.3749904930591583,-0.059047408401966,0.0,0.0,0.6138322353363037,0.9968407154083252
-0.0166390426456928,0.7833036184310913,0.0506204478442668,-0.74654620885849,0.3701364994049072,-0.0970797166228294,0.0,0.0,-0.3829501867294311,0.9951038360595704
-0.0160350799560546,0.7659094333648682,0.0662280768156051,-0.7715717554092407,0.3639617562294006,-0.1234951242804527,0.0,0.0,0.2326363325119018,0.9870634078979492
-0.0154212955385446,0.748465359210968,0.0688815787434578,-0.7734092473983765,0.3560433089733124,-0.1583690047264099,0.0,0.0,0.1586670875549316,0.8572728633880615
-0.0146853448823094,0.7310696244239807,0.0824826806783676,-0.7709665298461914,0.3466919064521789,-0.1870279759168625,0.0,0.0,-0.2536046504974365,0.9872660636901855
-0.013795661740005,0.7131053805351257,0.0993812754750251,-0.7959347367286682,0.3357798159122467,-0.2182415425777435,0.0,0.0,0.4785530567169189,0.7893050909042358
-0.0127850528806447,0.6951752305030823,0.1126444339752197,-0.7942478060722351,0.3236906230449676,-0.2417844235897064,0.0,0.0,0.5477056503295898,0.1869776248931884
-0.0119198802858591,0.6776992678642273,0.0978887230157852,-0.7742137908935547,0.3118845820426941,-0.2361213415861129,0.0,0.0,0.5115034580230713,0.7652273178100586
-0.0108999256044626,0.6603448390960693,0.1144083142280578,-0.7686908841133118,0.2990318536758423,-0.2570544779300689,0.0,0.0,0.4989103078842163,0.2740166187286377
-0.0099989892914891,0.6429551243782043,0.1026870608329773,-0.770336925983429,0.2860391438007355,-0.2598542273044586,0.0,0.0,0.6001839637756348,0.8750228881835938
-0.0090639116242527,0.6261469125747681,0.1075060814619064,-0.7443572878837585,0.2716621458530426,-0.2875403165817261,0.0,0.0,0.8110116720199585,0.5186491012573242
-0.0080436710268259,0.6098806858062744,0.1164125949144363,-0.7203363180160522,0.2569427788257599,-0.2943873703479767,0.0,0.0,0.424141526222229,-0.472480833530426
-0.0070516588166356,0.5940592885017395,0.1131121963262558,-0.7007965445518494,0.2427680492401123,-0.2834942638874054,0.0,0.0,0.7699114084243774,-0.8038226366043091
-0.0063217161223292,0.5788055658340454,0.0852877721190452,-0.6759664416313171,0.2302794754505157,-0.2497713267803192,0.0,0.0,-0.5415313839912415,-0.4082078337669372
-0.0055018425919115,0.5629415512084961,0.0940897315740585,-0.7032225728034973,0.2180268913507461,-0.2450520694255828,0.0,0.0,0.8117027282714844,-0.0118224620819091
-0.0048657418228685,0.5475581884384155,0.0760254636406898,-0.68192458152771,0.2054957896471023,-0.2506217956542969,0.0,0.0,0.4513962268829345,-0.457174003124237
-0.0041260719299316,0.5322647094726562,0.0856839269399643,-0.6781213879585266,0.1936906576156616,-0.2361027896404266,0.0,0.0,-0.0481334924697876,-0.0335970520973205
-0.0032965659629553,0.5163608193397522,0.0944849252700805,-0.7053751349449158,0.1821032911539077,-0.2317475825548172,0.0,0.0,0.9098944664001464,-0.3798023462295532
-0.0024522780440747,0.500532329082489,0.0957391634583473,-0.702142059803009,0.1707688122987747,-0.2266894578933715,0.0,0.0,0.9140028953552246,-0.1903074979782104
-0.001775836921297,0.4850687086582184,0.0794263333082199,-0.6859601140022278,0.1589751094579696,-0.2358742207288742,0.0,0.0,0.8948961496353149,-0.5200350284576416
-0.0011807441478595,0.4704504609107971,0.0700111389160156,-0.6486127972602844,0.1484925746917724,-0.2096506655216217,0.0,0.0,0.5514243841171265,0.0987066030502319
-0.0004604339483194,0.4556456804275512,0.0819891020655632,-0.6570319533348083,0.1385559737682342,-0.1987321078777313,0.0,0.0,0.4484473466873169,0.0387458801269531
0.0002692222478799,0.4413462877273559,0.0826539322733879,-0.6346556544303894,0.1289105415344238,-0.1929085999727249,0.0,0.0,0.6966049671173096,-0.80101478099823
0.0008574485545977,0.4271223545074463,0.0669285506010055,-0.6314981579780579,0.1208429485559463,-0.1613519340753555,0.0,0.0,0.4864459037780761,-0.8816147446632385
0.0012990951072424,0.4131677746772766,0.0504558682441711,-0.6197072267532349,0.1145847886800766,-0.1251629889011383,0.0,0.0,-0.5288662314414978,0.1640030145645141
0.0018292426830157,0.3986010253429413,0.0591692328453063,-0.6469508409500122,0.1084830313920974,-0.1220351234078407,0.0,0.0,0.770226001739502,0.2753651142120361
0.0022127151023596,0.384749174118042,0.044988740235567,-0.6151717305183411,0.1018901839852333,-0.1318572461605072,0.0,0.0,0.7409107685089111,0.1890488862991333
0.0026992796920239,0.3712049424648285,0.0548124238848686,-0.6015585064888,0.0957936644554138,-0.1219305619597435,0.0,0.0,0.5453746318817139,0.3764591217041015
0.0032073021866381,0.3575901985168457,0.0569656714797019,-0.6047171354293823,0.0896800234913826,-0.122272789478302,0.0,0.0,0.7495644092559814,-0.42733895778656
0.0038434981834143,0.3438871800899505,0.0693341866135597,-0.6086934208869934,0.0840185806155204,-0.1132291182875633,0.0,0.0,0.8236162662506104,-0.663968026638031
0.0044456482864916,0.3301137089729309,0.0645824894309043,-0.6119140982627869,0.0796992033720016,-0.0863876715302467,0.0,0.0,0.937735080718994,-0.1574037075042724
0.0050505637191236,0.3171176612377167,0.0647924616932869,-0.5773809552192688,0.075433500111103,-0.0853141546249389,0.0,0.0,0.5621902942657471,-0.3802932500839233
0.0057586668990552,0.3046712875366211,0.0746817141771316,-0.5529816150665283,0.071606732904911,-0.0765352100133895,0.0,0.0,0.6248155832290649,-0.7614469528198242
0.0063130380585789,0.2928029596805572,0.0579217001795768,-0.5273619890213013,0.0691446959972381,-0.0492405295372009,0.0,0.0,0.6828436851501465,-0.6845306754112244
0.0067321779206395,0.2807993292808532,0.0432705543935298,-0.533435583114624,0.0677986443042755,-0.0269208643585443,0.0,0.0,0.8503561019897461,-0.0566047430038452
0.0072205541655421,0.2695122957229614,0.0499360859394073,-0.501593291759491,0.066719077527523,-0.0215914286673069,0.0,0.0,0.4052025079727173,-0.2240938544273376
0.0076739313080906,0.2583365142345428,0.0467851758003234,-0.4966374635696411,0.0652877688407898,-0.0286261979490518,0.0,0.0,0.3513984680175781,-0.7137020826339722
0.0080677028745412,0.2473703473806381,0.0394216030836105,-0.4873822331428528,0.0652347356081008,-0.0010606767609715,0.0,0.0,0.6760643720626831,-0.3253189325332641
0.0084850313141942,0.2368520051240921,0.0418224409222602,-0.4674789011478424,0.0651512295007705,-0.0016703165601938,0.0,0.0,0.4618562459945678,-0.5390293002128601
0.0089906696230173,0.2264954596757888,0.0493461117148399,-0.4603461921215057,0.0663573741912841,0.0241226758807897,0.0,0.0,0.5216563940048218,-0.7516399025917053
0.0095207216218113,0.2159870713949203,0.050233781337738,-0.4671670496463775,0.0691084340214729,0.0550211854279041,0.0,0.0,0.5318813323974609,-0.2975351810455322
0.0101902009919285,0.2054334729909896,0.0637705400586128,-0.4691993296146393,0.0722516626119613,0.0628644153475761,0.0,0.0,0.6030135154724121,-0.1558377146720886
0.0110404016450047,0.1951114684343338,0.0811827406287193,-0.45894256234169,0.0760392546653747,0.0757520943880081,0.0,0.0,0.749060869216919,-0.6069049835205078
0.0120464321225881,0.1848094314336776,0.0951791033148765,-0.4581561982631683,0.0814137607812881,0.107489988207817,0.0,0.0,0.8223379850387573,-0.5683206915855408
0.0130092622712254,0.1751315891742706,0.0897719785571098,-0.4304940402507782,0.0878651067614555,0.1290265619754791,0.0,0.0,0.8345952033996582,-0.5866800546646118
0.0139627456665039,0.1661032736301422,0.0876153409481048,-0.401732325553894,0.0955374911427497,0.1534480601549148,0.0,0.0,0.8946654796600342,-0.223317265510559
0.0150586124509572,0.1576255708932876,0.1012395247817039,-0.3773428499698639,0.1038158386945724,0.1655669957399368,0.0,0.0,0.6156903505325317,-0.6970868706703186
0.016245936974883,0.1490131765604019,0.10882568359375,-0.3834920227527618,0.1136468350887298,0.1966196894645691,0.0,0.0,0.3437131643295288,0.0861589908599853
0.0174136161804199,0.1403989940881729,0.1071526855230331,-0.3836127519607544,0.1232078447937965,0.1912201941013336,0.0,0.0,0.4899349212646484,0.1193869113922119
0.0186295509338378,0.1323453485965728,0.111714519560337,-0.3587835431098938,0.1330412030220031,0.196667268872261,0.0,0.0,0.535036563873291,-0.084972858428955
0.0198201183229684,0.1244617998600006,0.1093756109476089,-0.3512704074382782,0.1426856964826584,0.1928899139165878,0.0,0.0,0.1640101671218872,0.3906000852584839
0.0209083557128906,0.1167798861861229,0.0996608734130859,-0.3423227667808532,0.1518283933401107,0.1828540712594986,0.0,0.0,0.5758333206176758,-0.1212248802185058
0.0220398902893066,0.1094918549060821,0.1037326008081436,-0.3249050974845886,0.1612516343593597,0.1884646713733673,0.0,0.0,0.2563245296478271,-0.2142428755760193
0.0230994224548339,0.1024266332387924,0.0968336388468742,-0.3150234818458557,0.170376256108284,0.1824925243854522,0.0,0.0,0.4689112901687622,0.0583052635192871
0.0240308754146099,0.0957147479057312,0.0844854190945625,-0.2993189990520477,0.1790439337491989,0.173353761434555,0.0,0.0,0.0688416957855224,0.3608810901641845
0.0249436385929584,0.0888618826866149,0.082827903330326,-0.3056102097034454,0.187514528632164,0.1694122552871704,0.0,0.0,0.7530215978622437,0.7199128866195679
0.0257123950868845,0.0823160037398338,0.0703093856573104,-0.2917750477790832,0.1941189616918563,0.1320889294147491,0.0,0.0,0.3772032260894775,-0.6230396628379822
0.0262624733150005,0.0757446587085723,0.047603815793991,-0.2930489778518677,0.2015746235847473,0.1491132974624633,0.0,0.0,0.5326871871948242,0.7091701030731201
0.0268849376589059,0.0695938169956207,0.0562008321285247,-0.2742072641849518,0.2076678425073623,0.1218644827604293,0.0,0.0,0.6411373615264893,0.6097240447998047
0.0275864601135253,0.0633981302380561,0.065307006239891,-0.2760531008243561,0.2125535756349563,0.0977142825722694,0.0,0.0,0.73305344581604,0.3192436695098877
0.0283065792173147,0.0578110553324222,0.0666312202811241,-0.2490995824337005,0.2179969698190689,0.1088678017258644,0.0,0.0,-0.0115151405334472,-0.2554914951324463
0.0290618892759084,0.0516110770404338,0.0702941119670867,-0.2763382196426391,0.2232909202575683,0.1058790236711502,0.0,0.0,0.8328844308853149,0.1887911558151245
0.0297928806394338,0.0462374314665794,0.067299298942089,-0.239718496799469,0.2291645407676696,0.117472268640995,0.0,0.0,0.5398948192596436,0.579270601272583
0.030547808855772,0.0410817228257656,0.0708252415060997,-0.2298724204301834,0.2338963747024536,0.0946370065212249,0.0,0.0,0.358910322189331,0.0190373659133911
0.0311644561588764,0.0362909398972988,0.0571823492646217,-0.213645190000534,0.2384435832500457,0.0909443274140358,0.0,0.0,0.6831045150756836,0.3997266292572021
0.0316704735159873,0.0320782996714115,0.0460016503930091,-0.1879791468381881,0.2431176751852035,0.0934819728136062,0.0,0.0,0.4267724752426147,0.3285846710205078
0.0321632400155067,0.0278542134910821,0.0445133931934833,-0.188532143831253,0.2479532659053802,0.0967119708657264,0.0,0.0,0.4349400997161865,-0.1106199622154235
0.03238096088171,0.0246741157025098,0.0356270559132099,-0.1390503793954849,0.233908325433731,-0.2808415293693542,0.0,1.0,0.9090832471847534,0.1064825057983398
0.0322181694209575,0.0224394425749778,0.0150806307792663,-0.0946550294756889,0.2021824717521667,-0.634541928768158,0.0,1.0,0.7776639461517334,-0.0944546461105346
0.0318546295166015,0.0208867639303207,0.0045986613258719,-0.0639330893754959,0.1610278338193893,-0.8231288194656372,0.0,1.0,0.6015613079071045,0.0572184324264526
0.0314649567008018,0.0194759219884872,0.0004104293766431,-0.0589116252958774,0.1217524334788322,-0.7855087518692017,0.0,1.0,0.4238165616989136,-0.3248965740203857
0.0311476700007915,0.0179542880505323,0.0073244357481598,-0.064905360341072,0.0829986184835434,-0.7750776410102844,0.0,0.0,-0.916011393070221,-0.772611677646637
0.0307835582643747,0.0158357713371515,0.0016160808736458,-0.0924745053052902,0.0453760474920272,-0.7524529099464417,0.0,0.0,-0.5350595116615295,-0.9229143261909484
0.0303494445979595,0.0131263826042413,-0.0069368169642984,-0.1197067201137542,0.0093536181375384,-0.7204498648643494,0.0,0.0,0.5685329437255859,-0.9755488634109496
0.0298999790102243,0.0102536296471953,-0.0103326933458447,-0.1278133690357208,-0.0248149819672107,-0.6833726167678833,0.0,0.0,0.9589782953262328,-0.9934411644935608
0.0295108798891305,0.0078801251947879,-0.0063766301609575,-0.1063413918018341,-0.0569557845592498,-0.6428169012069702,0.0,0.0,0.8229848146438599,-0.9892805218696594
