x_pos,y_pos,x_vel,y_vel,angle,ang_vel,leg_1,leg_2,main_booster,lat_booster
-0.0015396118396893,1.4029196500778198,-0.1561541408300399,-0.3555827438831329,0.0019672578200697,0.0388208851218223,0.0,0.0,-0.3884547352790832,0.8435529470443726
-0.0030232430435717,1.394233226776123,-0.1486634016036987,-0.3860583007335663,0.0022633506450802,0.0059233321808278,0.0,0.0,0.024326205253601,0.7756557464599609
-0.0043658255599439,1.3852121829986572,-0.1332665383815765,-0.4009400308132171,0.0012788262683898,-0.0196925699710845,0.0,0.0,-0.3213104009628296,0.6211674213409424
-0.0056847571395337,1.3754839897155762,-0.1300990283489227,-0.4323649108409881,-0.0004921598592773,-0.0354231409728527,0.0,0.0,0.5938539505004883,0.428966760635376
-0.0068942070938646,1.3659944534301758,-0.1199628859758377,-0.42175954580307,-0.0014628206845372,-0.0194150861352682,0.0,0.0,0.1961883306503296,0.8155603408813477
-0.0079401014372706,1.356387972831726,-0.1022939532995224,-0.4269558489322662,-0.0037314994260668,-0.0453777089715004,0.0,0.0,-0.484182059764862,-0.6650521755218506
-0.0090552326291799,1.3460769653320312,-0.1108108162879943,-0.4582727253437042,-0.0044210110791027,-0.0137916058301925,0.0,0.0,0.525702953338623,0.8920180797576904
-0.0099567417055368,1.3359582424163818,-0.0881113409996032,-0.4497283399105072,-0.0064413393847644,-0.0404102765023708,0.0,0.0,-0.1666979789733886,-0.2990493178367615
-0.010872745886445,1.32513427734375,-0.0897784531116485,-0.4810684323310852,-0.0082414643839001,-0.0360057502985,0.0,0.0,0.5358192920684814,0.1307854652404785
-0.0117980958893895,1.314618468284607,-0.0909361839294433,-0.4673817753791809,-0.009823034517467,-0.0316343382000923,0.0,0.0,-0.4466683864593506,0.593447208404541
-0.0126838684082031,1.3033970594406128,-0.0858526453375816,-0.498747706413269,-0.0125236846506595,-0.0540180131793022,0.0,0.0,-0.0551113486289978,-0.4157872200012207
-0.013583374209702,1.2914708852767944,-0.0874425917863845,-0.5300764441490173,-0.0149965062737464,-0.0494609549641609,0.0,0.0,0.7750864028930664,-0.6909083127975464
-0.0143875125795602,1.2799681425094604,-0.0798982977867126,-0.5112349390983582,-0.0155047802254557,-0.0101662594825029,0.0,0.0,-0.2506403923034668,0.1460798978805542
-0.0152047155424952,1.2677602767944336,-0.0814334601163864,-0.5425764918327332,-0.0157835558056831,-0.0055760159157216,0.0,0.0,-0.1171597838401794,-0.8741185665130615
-0.0160871502012014,1.2548577785491943,-0.0895502418279647,-0.5734328627586365,-0.0145013490691781,0.0256463345140218,0.0,0.0,0.1353286504745483,0.0996160507202148
-0.0169036872684955,1.241555094718933,-0.0835463479161262,-0.5912173390388489,-0.0126328794285655,0.037373024970293,0.0,0.0,0.3153188228607178,-0.6554164290428162
-0.0176536552608013,1.2285752296447754,-0.0786634981632232,-0.5768592357635498,-0.0090124942362308,0.0724143907427787,0.0,0.0,-0.8494871258735657,0.194301962852478
-0.0184152610599994,1.2148902416229248,-0.0800552442669868,-0.608199417591095,-0.0051595065742731,0.0770667716860771,0.0,0.0,-0.801864743232727,0.3668951988220215
-0.0191880222409963,1.200500726699829,-0.0814012587070465,-0.639530599117279,-0.0010726934997364,0.0817432627081871,0.0,0.0,-0.7349525690078735,0.1744029521942138
-0.0199713706970214,1.18540620803833,-0.0826997607946395,-0.6708632707595825,0.0032472980674356,0.0864074602723121,0.0,0.0,-0.1058421730995178,0.6917647123336792
-0.0206985473632812,1.1696125268936155,-0.0756377205252647,-0.7019549608230591,0.0061348602175712,0.0577563643455505,0.0,0.0,0.0252778530120849,0.1629804372787475
-0.0214297287166118,1.153525710105896,-0.0763017460703849,-0.7149803638458252,0.0092891510576009,0.0630913525819778,0.0,0.0,-0.006759762763977,0.1870296001434326
-0.0221699718385934,1.1367340087890625,-0.0774350687861442,-0.746317446231842,0.0126742664724588,0.0677080005407333,0.0,0.0,0.6906765699386597,0.5504662990570068
-0.0228022579103708,1.1197129487991333,-0.0659987777471542,-0.7565187215805054,0.0154002076014876,0.0545239523053169,0.0,0.0,0.105202317237854,0.5277552604675293
-0.0235121734440326,1.1026326417922974,-0.0727232918143272,-0.7591438889503479,0.0171123053878545,0.0342449583113193,0.0,0.0,0.6278400421142578,0.5508129596710205
-0.0243514068424701,1.0858664512634275,-0.0843675881624221,-0.7451686859130859,0.0175567679107189,0.0088891070336103,0.0,0.0,0.6344606876373291,-0.1583704948425293
-0.0252058021724224,1.069473385810852,-0.0861327648162841,-0.7285908460617065,0.0182435847818851,0.0137361614033579,0.0,0.0,-0.4293091297149658,0.0484213829040527
-0.0260659214109182,1.052375555038452,-0.0869262069463729,-0.7599219679832458,0.0191529914736747,0.0181879289448261,0.0,0.0,0.4310253858566284,0.2200225591659546
-0.0270566940307617,1.0355756282806396,-0.099698856472969,-0.7466701865196228,0.0197594463825225,0.012129234150052,0.0,0.0,0.4081882238388061,0.3394172191619873
-0.0280777923762798,1.0186935663223269,-0.1028649061918258,-0.750323474407196,0.0205002166330814,0.0148153556510806,0.0,0.0,0.6846190690994263,-0.487236738204956
-0.0291009899228811,1.0024018287658691,-0.1033732071518898,-0.7240898013114929,0.0215432550758123,0.0208608750253915,0.0,0.0,-0.8379389047622681,-0.5177350044250488
-0.0301729198545217,0.9854008555412292,-0.1096483319997787,-0.7556387782096863,0.0239599496126174,0.0483339838683605,0.0,0.0,-0.394899308681488,0.3588922023773193
-0.0312466621398925,0.9676949381828308,-0.1100382059812545,-0.7869703769683838,0.0265838764607906,0.0524786598980426,0.0,0.0,0.3332792520523071,0.8950860500335693
-0.0323170647025108,0.949713170528412,-0.1080552116036415,-0.7992120385169983,0.0275822784751653,0.0199679546058177,0.0,0.0,0.0657155513763427,-0.1237684488296508
-0.033388327807188,0.9316336512565612,-0.1083805784583091,-0.8035622239112854,0.0288287047296762,0.024928331375122,0.0,0.0,0.7681143283843994,-0.1917489767074585
-0.0344625487923622,0.9140636324882508,-0.1089746206998825,-0.7809177041053772,0.0303604025393724,0.0306337960064411,0.0,0.0,0.6327273845672607,0.3483598232269287
-0.0355746261775493,0.8964622020721436,-0.112832486629486,-0.7823157906532288,0.0319630317389965,0.0320526175200939,0.0,0.0,0.7823913097381592,0.2964073419570923
-0.0366692543029785,0.879389226436615,-0.1114680171012878,-0.7588440775871277,0.03394191339612,0.0395776443183422,0.0,0.0,-0.7226865887641907,0.3476111888885498
-0.037760354578495,0.8616113662719727,-0.1112959161400795,-0.7901755571365356,0.0361023731529712,0.0432092621922493,0.0,0.0,0.7300362586975098,0.4026927947998047
-0.0388402938842773,0.844084620475769,-0.1105010956525802,-0.7790313959121704,0.0385762862861156,0.049478180706501,0.0,0.0,0.2751336097717285,0.6829080581665039
-0.0399761199951171,0.8267573714256287,-0.1147337928414344,-0.7701324820518494,0.0397219322621822,0.0229128208011388,0.0,0.0,-0.1071459650993347,0.5913296937942505
-0.0410490036010742,0.8087272047996521,-0.1071875914931297,-0.8013359308242798,0.0396164655685424,-0.0021092211827635,0.0,0.0,0.8260065317153931,0.8114564418792725
-0.0419462211430072,0.7905136942863464,-0.0883839279413223,-0.8094583749771118,0.0382950045168399,-0.0264293048530817,0.0,0.0,0.8273719549179077,-0.1427677273750305
-0.0427477844059467,0.772477924823761,-0.0794845595955848,-0.8015715479850769,0.0376366563141346,-0.0131670553237199,0.0,0.0,0.8463888168334961,0.8120136260986328
-0.0435376167297363,0.7542218565940857,-0.0767327025532722,-0.8113246560096741,0.0354125574231147,-0.0444818139076232,0.0,0.0,0.6237776279449463,0.0037952661514282
-0.0442837700247764,0.7357556819915771,-0.0727139860391616,-0.8206738829612732,0.03354087844491,-0.0374338887631893,0.0,0.0,0.8887002468109131,0.3613103628158569
-0.0449661239981651,0.7173541784286499,-0.0668021738529205,-0.8178172707557678,0.0321293361485004,-0.0282309651374816,0.0,0.0,0.7244629859924316,0.7823578119277954
-0.0457313545048236,0.6995577216148376,-0.0733936876058578,-0.7908904552459717,0.0290397498756647,-0.0617918744683265,0.0,0.0,0.4618186950683594,-0.12034273147583
-0.0466210357844829,0.6820968985557556,-0.08542250841856,-0.7759681344032288,0.0255324132740497,-0.070146694779396,0.0,0.0,0.32860267162323,0.6701869964599609
-0.0474731437861919,0.664544403553009,-0.0803900212049484,-0.780044436454773,0.0207794904708862,-0.0950583219528198,0.0,0.0,0.6731460094451904,0.5999397039413452
-0.0481183044612407,0.647160530090332,-0.0590017028152942,-0.7725446820259094,0.0153339775279164,-0.1089104637503624,0.0,0.0,-0.3033485412597656,-0.195526123046875
-0.0487477295100688,0.6290723085403442,-0.057538628578186,-0.8038780093193054,0.0099949091672897,-0.1067813038825988,0.0,0.0,0.7209558486938477,-0.0009366869926452
-0.0492514595389366,0.6109757423400879,-0.0455925613641738,-0.8042677640914917,0.0052826469764113,-0.0942453444004058,0.0,0.0,0.6432387828826904,-0.1811268329620361
-0.0497386939823627,0.5933646559715271,-0.0440634749829769,-0.7827070951461792,0.0006786562153138,-0.092079646885395,0.0,0.0,0.5539660453796387,-0.2518731355667114
-0.0500679984688758,0.575736939907074,-0.0290061272680759,-0.783460259437561,-0.0031898361630737,-0.0773699507117271,0.0,0.0,0.6684105396270752,-0.6641896963119507
-0.050534151494503,0.5581158399581909,-0.0438798479735851,-0.7831653356552124,-0.0058937100693583,-0.0540773458778858,0.0,0.0,0.8513393402099609,-0.7477996945381165
-0.0509199127554893,0.5411359071731567,-0.0376792773604393,-0.7546676397323608,-0.006780999712646,-0.0177458580583333,0.0,0.0,0.7792940139770508,0.4846432209014892
-0.0511317253112793,0.5245391130447388,-0.021047931164503,-0.7376400232315063,-0.0069128363393247,-0.0026367164682596,0.0,0.0,0.864745020866394,0.4383947849273681
-0.0512316711246967,0.5086302161216736,-0.0103191528469324,-0.7070567607879639,-0.0065929559059441,0.0063974694348871,0.0,0.0,0.6768062114715576,0.1453404426574707
-0.0513818748295307,0.4932134747505188,-0.0150413606315851,-0.6851879954338074,-0.006575362291187,0.0003518462763167,0.0,0.0,0.5727658271789551,0.753632664680481
-0.051393985748291,0.4776128828525543,0.0001386685034958,-0.6933643221855164,-0.0079094404354691,-0.0266816560178995,0.0,0.0,0.8001599311828613,0.7756979465484619
-0.0514351837337017,0.4624585509300232,-0.0009946412174031,-0.6735451221466064,-0.0109916217625141,-0.0616434924304485,0.0,0.0,0.4389975070953369,0.2258263826370239
-0.0513402000069618,0.4472732543945312,0.012069103308022,-0.6749232411384583,-0.0135392481461167,-0.0509525910019874,0.0,0.0,0.8760690689086914,0.0195714235305786
-0.0511850342154502,0.4324264526367187,0.0179379526525735,-0.6598798632621765,-0.0159321408718824,-0.0478578135371208,0.0,0.0,0.8238375186920166,0.5782676935195923
-0.0509432777762413,0.4175329804420471,0.0277092065662145,-0.6619747281074524,-0.0194251015782356,-0.069859355688095,0.0,0.0,0.915717363357544,-0.6929816603660583
-0.050872802734375,0.4029689431190491,0.0095547651872038,-0.6473254561424255,-0.0219011697918176,-0.0495212897658348,0.0,0.0,0.8596649169921875,0.3853664398193359
-0.0507315620779991,0.3891439139842987,0.0165056567639112,-0.6144853234291077,-0.0242515448480844,-0.0470074974000453,0.0,0.0,0.4982258081436157,0.4441952705383301
-0.050483513623476,0.3750089406967163,0.0268262978643178,-0.6282562017440796,-0.0262490324676036,-0.039949782192707,0.0,0.0,0.8829398155212402,-0.0879520773887634
-0.0501527786254882,0.3616267442703247,0.0349477343261241,-0.59479820728302,-0.0281007681041955,-0.0370345935225486,0.0,0.0,0.2431230545043945,-0.0924042463302612
-0.0498560890555381,0.3480767011642456,0.0318753644824028,-0.6022675037384033,-0.0302818082273006,-0.0436207577586174,0.0,0.0,0.6274547576904297,-0.7665746808052063
-0.0496724136173725,0.3348322510719299,0.0192304514348506,-0.5886587500572205,-0.0311303902417421,-0.0169718824326992,0.0,0.0,0.865715503692627,0.0526168346405029
-0.0494047179818153,0.3219349682331085,0.0274808220565319,-0.5732271075248718,-0.0318295806646347,-0.0139836873859167,0.0,0.0,0.8780791759490967,0.2147361040115356
-0.0492249503731727,0.3097791373729706,0.019375329837203,-0.5402922034263611,-0.033221960067749,-0.0278472211211919,0.0,0.0,0.4839104413986206,-0.1327342987060547
-0.0489341728389263,0.297692596912384,0.0302071571350097,-0.5372032523155212,-0.0343290120363235,-0.0221411604434251,0.0,0.0,0.7883263826370239,-0.4649474620819092
-0.0486370101571083,0.2855376005172729,0.0310367885977029,-0.540249228477478,-0.0356289818882942,-0.025999542325735,0.0,0.0,0.8002372980117798,-0.7252225279808044
-0.0482756607234478,0.2731998860836029,0.0358372703194618,-0.5483382940292358,-0.0353354141116142,0.0058713294565677,0.0,0.0,0.6830737590789795,-0.9223938584327698
-0.0479825027287006,0.2606721818447113,0.0272476430982351,-0.5567407011985779,-0.0332923904061317,0.040860615670681,0.0,0.0,0.9730508327484132,-0.0164917111396789
-0.0476387962698936,0.2488602250814438,0.0323866084218025,-0.5249347686767578,-0.0313304886221885,0.0392378345131874,0.0,0.0,0.6202588081359863,0.452292799949646
-0.0471623428165912,0.2375390827655792,0.0453322753310203,-0.50311279296875,-0.029043510556221,0.0457394532859325,0.0,0.0,0.7281627655029297,-0.2528501749038696
-0.0467489250004291,0.2268001586198806,0.0396155342459678,-0.4772551655769348,-0.0273403991013765,0.0340622290968894,0.0,0.0,0.3384013175964355,-0.7398284673690796
-0.0464745536446571,0.2157582640647888,0.0244303345680236,-0.4906988739967346,-0.0243787355720996,0.0592333786189556,0.0,0.0,0.8648358583450317,0.0321731567382812
-0.0461031906306743,0.2053478509187698,0.0339686758816242,-0.4626340866088867,-0.0212522242218256,0.0625302493572235,0.0,0.0,0.529645562171936,-0.2505747079849243
-0.0457844734191894,0.1950348019599914,0.0292023513466119,-0.4583243727684021,-0.0186074953526258,0.0528943948447704,0.0,0.0,0.7977322340011597,0.0734579563140869
-0.0454813949763774,0.1851247102022171,0.0279488712549209,-0.4404236078262329,-0.0162883754819631,0.04638247564435,0.0,0.0,0.6534487009048462,0.9094979763031006
-0.0450781807303428,0.1755624562501907,0.0398776158690452,-0.4249834716320038,-0.0158483162522315,0.0088008800521492,0.0,0.0,0.5112841129302979,-0.2717678546905517
-0.0445564277470111,0.1660916209220886,0.0514106154441833,-0.4209189414978027,-0.0150916771963238,0.0151327643543481,0.0,0.0,0.3670356273651123,-0.8219156265258789
-0.0440428741276264,0.1563335210084915,0.04896030575037,-0.4336695969104767,-0.0127279506996274,0.0472743399441242,0.0,0.0,0.4067106246948242,-0.7441133856773376
-0.0434652343392372,0.1463788896799087,0.0537826344370842,-0.4424003660678863,-0.0088013587519526,0.0785321295261383,0.0,0.0,0.4239330291748047,-0.6272503733634949
-0.0427633300423622,0.1364565044641494,0.0647194683551788,-0.4409731030464172,-0.0034000396262854,0.1080261692404747,0.0,0.0,0.8618509769439697,-0.6632673740386963
-0.0419123657047748,0.1264906972646713,0.0779159143567085,-0.4429247975349426,0.0036869945470243,0.1417407095432281,0.0,0.0,0.8513907194137573,-0.7116930484771729
-0.0410968773066997,0.1170883774757385,0.073010541498661,-0.4179240465164184,0.012118742801249,0.16863514482975,0.0,0.0,0.8050885200500488,0.0415835380554199
-0.0402265563607215,0.1082257851958274,0.07838124781847,-0.3939868509769439,0.020652987062931,0.1706850230693817,0.0,0.0,0.8571372032165527,0.8349177837371826
-0.0391211509704589,0.0997934937477111,0.1033323854207992,-0.3748840093612671,0.0277776308357715,0.1424929201602935,0.0,0.0,0.7657554149627686,-0.6785881519317627
-0.0379308685660362,0.091175802052021,0.1102050319314003,-0.3831995129585266,0.0364733189344406,0.1739136576652526,0.0,0.0,0.9579310417175292,-0.3924249410629272
-0.0367938056588172,0.0827553123235702,0.1052456945180893,-0.374474436044693,0.0448304079473018,0.1671419888734817,0.0,0.0,0.9728600978851318,-0.8888742327690125
-0.0356314666569232,0.075188048183918,0.1058223247528076,-0.3366618454456329,0.0551242977380752,0.2058777511119842,0.0,0.0,0.750433087348938,0.3836477994918823
-0.0344957336783409,0.0678184106945991,0.1033318787813186,-0.3279488384723663,0.0652570724487304,0.2026553153991699,0.0,0.0,0.8056349754333496,0.0473254919052124
-0.0335208885371685,0.0610330663621425,0.0879148989915847,-0.3020134270191192,0.0747161507606506,0.1891816258430481,0.0,0.0,0.566097617149353,0.2819908857345581
-0.0324818603694438,0.0545427650213241,0.094009444117546,-0.288982480764389,0.0845150128006935,0.1959774494171142,0.0,0.0,0.6964471340179443,0.4039304256439209
-0.0315311439335346,0.0484932027757167,0.0854785293340683,-0.2694393098354339,0.0940206050872802,0.1901117116212844,0.0,0.0,0.7558605670928955,-0.2623428106307983
-0.0307111740112304,0.0429157838225364,0.0728590860962867,-0.248482197523117,0.1030836701393127,0.181261658668518,0.0,0.0,0.4883332252502441,0.6614599227905273
-0.0298781394958496,0.0373058877885341,0.0755926072597503,-0.2498833090066909,0.1107471361756324,0.1532691866159439,0.0,0.0,0.7714633941650391,0.6783890724182129
-0.0291660316288471,0.0319400392472744,0.0652056783437728,-0.2389407157897949,0.1167120635509491,0.1192982345819473,0.0,0.0,0.8293501138687134,0.7492728233337402
-0.0286109931766986,0.0267105195671319,0.0514315292239189,-0.2327489256858825,0.1207609623670578,0.0809779837727546,0.0,0.0,0.9213240146636964,0.8403332233428955
-0.0279253963381052,0.0220618583261966,0.0659172385931015,-0.2068224102258682,0.1233850792050361,0.0524822659790515,0.0,0.0,0.737677812576294,0.4160735607147217
-0.0271918289363384,0.0172978974878788,0.0704368725419044,-0.211973488330841,0.1262924969196319,0.0581484250724315,0.0,0.0,0.9053454399108888,0.6647427082061768
-0.0263070110231637,0.0131874652579426,0.0864476040005683,-0.1828605383634567,0.1283139437437057,0.0404288098216056,0.0,0.0,0.7419204711914062,-0.3301636576652527
-0.0256021507084369,0.0103684999048709,0.0874881148338317,-0.1239432170987129,0.1113128140568733,-0.340142011642456,0.0,1.0,0.7046887874603271,-0.2738933563232422
-0.0249377246946096,0.00874959025532,0.0970269218087196,-0.070128746330738,0.0804821327328682,-0.6172604560852051,0.0,1.0,0.4858424663543701,-0.6152493357658386
-0.0242748260498046,0.0071876142174005,0.0949301272630691,-0.0681255608797073,0.0521453209221363,-0.5667372941970825,0.0,1.0,0.0026770830154418,-0.4242398142814636
-0.0236424449831247,0.0056733107194304,0.0919393599033355,-0.0665482953190803,0.0237896647304296,-0.5671132206916809,0.0,0.0,-0.1186985969543457,-0.9603870511054992
-0.023046875372529,0.0034701086115092,0.0865402370691299,-0.0977067649364471,-0.0028472207486629,-0.5327381491661072,0.0,0.0,0.7271995544433594,-0.9364186525344848
-0.0223979949951171,0.0012848591431975,0.0898323208093643,-0.0973504707217216,-0.0274743847548961,-0.4925431311130523,0.0,0.0,0.6039299964904785,-0.9691620469093324
-0.0218203552067279,2.8762817237293348e-05,0.0615882277488708,-0.0559209398925304,-0.0311915557831525,-0.0742643028497695,1.0,0.0,0.0562014579772949,-0.3740159869194031
-0.0212003700435161,-0.0007827305817045,0.0477664396166801,-0.0358444042503833,-0.0170903652906417,0.2820993661880493,1.0,0.0,-0.5143254399299622,-0.6145541071891785
-0.0205567367374897,-0.0018532180693,0.0364644601941108,-0.0475015975534915,0.0105020962655544,0.5519202947616577,1.0,1.0,0.6650693416595459,0.5465388298034668
-0.0200091358274221,-0.0024620436597615,0.0419309176504612,-0.0273524634540081,0.0224897377192974,0.2388947904109954,1.0,1.0,0.2707020044326782,0.524428129196167
-0.0194832794368267,-0.0026515864301472,0.0513172522187233,-0.0084523102268576,0.0237239804118871,0.0246689543128013,1.0,1.0,-0.4920409917831421,-0.748079240322113
-0.0191349983215332,-0.0025332833174616,0.0358442850410938,0.0052681867964565,0.0227115452289581,-0.0202642921358346,1.0,1.0,-0.4025648832321167,-0.1384405493736267
-0.0189062114804983,-0.0020907544530928,0.0262817498296499,0.0197130758315324,0.0193328205496072,-0.0675907135009765,1.0,1.0,-0.5467680096626282,0.0884088277816772
-0.0186971668154001,-0.0014882945688441,0.0254169944673776,0.0268358271569013,0.0148425409570336,-0.0898463800549507,1.0,1.0,-0.4670132398605346,-0.1405291557312011
