x_pos,y_pos,x_vel,y_vel,angle,ang_vel,leg_1,leg_2,main_booster,lat_booster
-0.0015733719337731,1.4029457569122314,-0.1596251428127288,-0.3544111251831054,0.0020489355083554,0.0404382422566413,0.0,0.0,-0.5784866809844971,0.9101018905639648
-0.0031192780006676,1.3943119049072266,-0.1548804938793182,-0.3837279081344604,0.0023391700815409,0.0058061080053448,0.0,0.0,0.3184318542480469,0.8536430597305298
-0.0045272829011082,1.385477066040039,-0.1397790759801864,-0.3926625251770019,0.001330126542598,-0.0201829709112644,0.0,0.0,-0.121630847454071,0.2008605003356933
-0.0059850690886378,1.37596333026886,-0.1450192034244537,-0.4228307008743286,0.0005746016977354,-0.0151116605848073,0.0,0.0,0.2347362041473388,0.9568376541137696
-0.0073052407242357,1.3665052652359009,-0.1296561360359192,-0.4203578531742096,-0.0017609810456633,-0.0467160530388355,0.0,0.0,0.337651252746582,0.3179959058761596
-0.0085632326081395,1.3570277690887451,-0.1242363899946212,-0.4212220013141632,-0.003305722028017,-0.0308977849781513,0.0,0.0,0.4330765008926391,0.6863800287246704
-0.0098368646577,1.3476231098175049,-0.1246453374624252,-0.4180017411708832,-0.0059915487654507,-0.0537213198840618,0.0,0.0,-0.2845452427864074,0.0282491445541381
-0.0111601827666163,1.337539553642273,-0.1298719495534896,-0.4481661915779114,-0.0084133083000779,-0.0484399795532226,0.0,0.0,0.7512942552566528,0.5612218379974365
-0.0124948499724268,1.3281139135360718,-0.1301283091306686,-0.418941855430603,-0.0117208678275346,-0.0661575719714164,0.0,0.0,0.422760009765625,0.8316342830657959
-0.0138068199157714,1.3189518451690674,-0.126461461186409,-0.4072470963001251,-0.0164103973656892,-0.0937990620732307,0.0,0.0,0.203675627708435,-0.1806485652923584
-0.0150981899350881,1.3097593784332275,-0.1249727234244346,-0.4086072742938995,-0.0205346010625362,-0.0824912935495376,0.0,0.0,-0.2154171466827392,0.9079686403274536
-0.0163589473813772,1.29988431930542,-0.1201423406600952,-0.4389910399913788,-0.0264027640223503,-0.1173740401864051,0.0,0.0,-0.4489981532096863,0.4369511604309082
-0.0176688190549612,1.2893308401107788,-0.1253219842910766,-0.4691515564918518,-0.0320018976926803,-0.1119926199316978,0.0,0.0,-0.0981894731521606,0.7644438743591309
-0.0189605709165334,1.2780890464782717,-0.1220815330743789,-0.499810516834259,-0.0390242151916027,-0.1404590010643005,0.0,0.0,0.3438440561294555,0.4989807605743408
-0.0201603882014751,1.267167091369629,-0.1136948317289352,-0.4855890870094299,-0.0452374555170536,-0.1242764592170715,0.0,0.0,0.024554967880249,-0.2436332702636718
-0.0213325507938861,1.255838394165039,-0.1115325912833213,-0.5036784410476685,-0.0508647635579109,-0.1125562191009521,0.0,0.0,0.6783061027526855,0.2361232042312622
-0.0223691947758197,1.2451226711273191,-0.0989196300506591,-0.4764329493045807,-0.0555689632892608,-0.0940921977162361,0.0,0.0,-0.4968863725662231,0.2740219831466675
-0.0234542842954397,1.2337279319763184,-0.1040297150611877,-0.5066038370132446,-0.0600090324878692,-0.0888091325759887,0.0,0.0,-0.5047675371170044,0.1534258127212524
-999.0,1.2216546535491943,-0.1091189607977867,-0.5367619395256042,-0.0641859173774719,-0.0835451930761337,0.0,0.0,0.3854650259017944,-0.9580464363098145
-0.0258916858583688,1.209627628326416,-0.1283193975687027,-0.5346317887306213,-0.0662585496902465,-0.0414557456970214,0.0,0.0,-0.6754223108291626,-0.1656139492988586
-0.0272438041865825,1.1969215869903564,-0.1333696544170379,-0.5647976994514465,-0.0680731460452079,-0.0362955033779144,0.0,0.0,-0.4556228518486023,0.2822391986846924
-0.0286434181034564,1.1835365295410156,-0.1383921205997467,-0.5949565768241882,-0.069631353020668,-0.0311666168272495,0.0,0.0,0.1512155532836914,-0.4962413311004638
-0.0299738887697458,1.1700310707092283,-0.1321462243795395,-0.6002852320671082,-0.0705155432224273,-0.0176855828613042,0.0,0.0,-0.4927079677581787,-0.8056772351264954
-0.0314080230891704,1.155843734741211,-0.1442020982503891,-0.6305142641067505,-0.0697344318032264,0.0156234428286552,0.0,0.0,0.2547827959060669,-0.4717362523078918
-0.0329625122249126,1.1417200565338137,-0.1559844464063644,-0.6276865005493164,-0.069206953048706,0.0105505846440792,0.0,0.0,-0.7994072437286377,-0.4478171467781067
-0.0345643982291221,1.1268962621688845,-0.1609754115343094,-0.658800482749939,-0.0684354156255722,0.0154309291392564,0.0,0.0,-0.0749569535255432,0.335031509399414
-0.0362124443054199,1.111393690109253,-0.165823608636856,-0.6889581084251404,-0.067424438893795,0.0202195476740598,0.0,0.0,-0.7841920852661133,0.1878128051757812
-0.0379060730338096,1.0952123403549194,-0.170625239610672,-0.7191157937049866,-0.0661783888936042,0.0249210279434919,0.0,0.0,0.4616162776947021,0.6274361610412598
-0.0396757125854492,1.079390525817871,-0.1769296377897262,-0.7031890153884888,-0.0662132278084755,-0.0006964456988498,0.0,0.0,-0.1928745508193969,0.4704921245574951
-0.0414899811148643,1.0628901720046997,-0.1816255450248718,-0.733346700668335,-0.0660224109888076,0.0038161550182849,0.0,0.0,0.499502420425415,-0.7855052947998047
-0.0433404929935932,1.0468741655349731,-0.1870765835046768,-0.7117341160774231,-0.0640153363347053,0.0401416942477226,0.0,0.0,-0.8734610080718994,-0.270782470703125
-0.045234490185976,1.0301793813705444,-0.191647857427597,-0.7418922185897827,-0.0617930255830287,0.0444462932646274,0.0,0.0,0.5088045597076416,-0.4056476354598999
-0.0472014434635639,1.013909101486206,-0.1987989842891693,-0.7230426073074341,-0.0597098991274833,0.0416625365614891,0.0,0.0,-0.1053321957588195,-0.1718719005584716
-0.0492106452584266,0.9969601035118104,-0.2032235562801361,-0.753200888633728,-0.057422861456871,0.0457405894994735,0.0,0.0,-0.2886660099029541,-0.0149045586585998
-0.0512611381709575,0.9793323278427124,-0.207565575838089,-0.7833592891693115,-0.0549379177391529,0.0496988967061042,0.0,0.0,-0.3262321949005127,-0.5397630333900452
-0.0533934608101844,0.9610335230827332,-0.2169932574033737,-0.8131481409072876,-0.0512187592685222,0.0743834599852562,0.0,0.0,-0.045370876789093,0.706953763961792
-0.0555120483040809,0.9420483112335204,-0.2144563943147659,-0.843697190284729,-0.0486604571342468,0.0511663258075714,0.0,0.0,0.4914174079895019,0.8210103511810303
-0.057532500475645,0.9234129190444946,-0.2032141983509063,-0.8282068371772766,-0.0475003570318222,0.0232018157839775,0.0,0.0,0.694541335105896,0.4268535375595093
-0.0595897659659385,0.9053964614868164,-0.2068900167942047,-0.8006932735443115,-0.0463550984859466,0.0229050070047378,0.0,0.0,-0.0803858041763305,0.2373127937316894
-0.0616835579276084,0.8867012858390808,-0.2107085734605789,-0.8308516144752502,-0.0450448803603649,0.0262043587863445,0.0,0.0,0.8930937051773071,0.8995363712310791
-0.0638360008597374,0.8686763644218445,-0.2146626263856887,-0.8011255860328674,-0.0456140711903572,-0.0113837383687496,0.0,0.0,-0.7865421772003174,-0.1817151308059692
-0.0660222992300987,0.8499727249145508,-0.2182118445634842,-0.8312839865684509,-0.0460327342152595,-0.0083731692284345,0.0,0.0,0.1206533908843994,0.6279202699661255
-0.0681081786751747,0.8308936953544617,-0.2071452587842941,-0.8479987382888794,-0.0474555380642414,-0.0284562762826681,0.0,0.0,0.9506598711013794,0.6333198547363281
-0.0700201019644737,0.812057614326477,-0.1889489740133285,-0.8372374176979065,-0.0496687591075897,-0.0442645922303199,0.0,0.0,0.3810987472534179,0.3499126434326172
-0.0719831436872482,0.792914092540741,-0.1940313726663589,-0.8508973717689514,-0.0519113838672637,-0.0448527373373508,0.0,0.0,0.8134678602218628,0.0749393701553344
-0.0739044174551963,0.7736374735832214,-0.1902175843715667,-0.8568031787872314,-0.0538008473813533,-0.0377892479300498,0.0,0.0,0.7753064632415771,0.7622392177581787
-0.0756940841674804,0.7543869614601135,-0.1757854223251342,-0.8557025194168091,-0.0569464936852455,-0.0629128962755203,0.0,0.0,0.8576061725616455,0.5191465616226196
-0.0775468796491622,0.7358753085136414,-0.1807627826929092,-0.8229196667671204,-0.0614120885729789,-0.0893118530511856,0.0,0.0,0.9859390258789062,-0.5337748527526855
-0.0795738250017166,0.7181277871131897,-0.1988392472267151,-0.7889444828033447,-0.0652220249176025,-0.0761987268924713,0.0,0.0,0.6048769950866699,0.5307116508483887
-0.0815683379769325,0.7004377841949463,-0.1945683062076568,-0.7864388227462769,-0.0700591206550598,-0.0967418700456619,0.0,0.0,0.7414097785949707,0.0755356550216674
-0.0833874717354774,0.6829542517662048,-0.1778079569339752,-0.7772432565689087,-0.0741172432899475,-0.0811625346541404,0.0,0.0,0.1378688812255859,0.00423264503479
-0.0852236747741699,0.6655556559562683,-0.1794077754020691,-0.7734840512275696,-0.0782874524593353,-0.0834041088819503,0.0,0.0,0.8492004871368408,0.1265335083007812
-0.0869116783142089,0.6482083797454834,-0.1652266979217529,-0.7711804509162903,-0.0818284675478935,-0.0708204209804534,0.0,0.0,0.7104616165161133,-0.0534396767616272
-0.0885391235351562,0.631416916847229,-0.1592409312725067,-0.7464848756790161,-0.0852992087602615,-0.0694147273898124,0.0,0.0,0.6330950260162354,0.5562105178833008
-0.0899318680167198,0.6146392822265625,-0.1351102590560913,-0.7459127306938171,-0.0894247516989708,-0.0825110524892807,0.0,0.0,0.6847399473190308,-0.1739343404769897
-0.0913838371634483,0.5979142785072327,-0.1406158506870269,-0.7436148524284363,-0.0939621850848198,-0.0907486230134964,0.0,0.0,0.7513079643249512,-0.865867555141449
-0.0927166938781738,0.5817744135856628,-0.1306779831647873,-0.7174897789955139,-0.0965487509965896,-0.0517315343022346,0.0,0.0,-0.2510901093482971,-0.1919432878494262
-0.094049260020256,0.5649561285972595,-0.1306766718626022,-0.747649073600769,-0.0991122424602508,-0.0512698590755462,0.0,0.0,0.8834002017974854,-0.7119280099868774
-0.0952498465776443,0.5488622188568115,-0.1191426143050193,-0.7153462171554565,-0.1000205799937248,-0.0181668139994144,0.0,0.0,0.8009635210037231,0.4710690975189209
-0.0964418426156044,0.5333806872367859,-0.1179052218794822,-0.6881589293479919,-0.1013051941990852,-0.0256923399865627,0.0,0.0,0.5464518070220947,0.7609657049179077
-0.0974782928824424,0.5177140831947327,-0.1009121984243393,-0.6964810490608215,-0.1040164232254028,-0.0542244240641593,0.0,0.0,0.4765577316284179,0.0041644573211669
-0.0985277146100997,0.5023182034492493,-0.1017960906028747,-0.6844831109046936,-0.1071489453315734,-0.062650442123413,0.0,0.0,0.7080192565917969,-0.3727545738220215
-0.0993795394897461,0.4870207905769348,-0.0826082080602645,-0.6800707578659058,-0.1097044423222541,-0.0511097609996795,0.0,0.0,0.7622352838516235,-0.6599082946777344
-0.1001684218645095,0.4720247983932495,-0.0776902064681053,-0.6665783524513245,-0.110898733139038,-0.0238857455551624,0.0,0.0,0.939262628555298,-0.3207372426986694
-0.1008776649832725,0.4570501446723938,-0.0697307512164115,-0.6656273603439331,-0.1120772585272789,-0.0235706754028797,0.0,0.0,0.9828335046768188,-0.0739312767982482
-0.1016341224312782,0.4424793124198913,-0.0737416297197341,-0.6477394104003906,-0.1139759346842765,-0.0379735752940177,0.0,0.0,0.6058380603790283,0.4364004135131836
-0.1022521033883094,0.4284660220146179,-0.0599414780735969,-0.6229549646377563,-0.1158167868852615,-0.0368169248104095,0.0,0.0,0.5015263557434082,-0.822700023651123
-0.1027963608503341,0.4141573309898376,-0.0543032996356487,-0.6359525322914124,-0.1159428879618644,-0.0025219994131475,0.0,0.0,0.9382455348968506,-0.1670637130737304
-0.1031657233834266,0.4006568193435669,-0.036909844726324,-0.6000255942344666,-0.1159717366099357,-0.0005768372793681,0.0,0.0,0.86995530128479,-0.5596875548362732
-0.1036004051566124,0.387300968170166,-0.0441885590553283,-0.5935364365577698,-0.1152571737766265,0.0142910880967974,0.0,0.0,0.9458999633789062,-0.0577806234359741
-0.1040194481611251,0.3744736611843109,-0.0420552231371402,-0.570090651512146,-0.1151016801595687,0.0031097352039068,0.0,0.0,0.1722652912139892,-0.4989384412765503
-0.1043329238891601,0.361622154712677,-0.0315341129899024,-0.5711652040481567,-0.1149081438779831,0.0038706916384398,0.0,0.0,0.7344352006912231,-0.0380091071128845
-0.1046441048383712,0.349436491727829,-0.0306186936795711,-0.5416226983070374,-0.1154069826006889,-0.0099766915664076,0.0,0.0,0.4721457958221435,-0.7917617559432983
-0.1048492416739463,0.3373372256755829,-0.0216375570744276,-0.537655770778656,-0.1142859682440757,0.0224200077354908,0.0,0.0,0.4885786771774292,0.0824655294418335
-0.1050064116716384,0.3250899016857147,-0.0166333932429552,-0.5442571640014648,-0.1133787333965301,0.0181448310613632,0.0,0.0,0.8489136695861816,-0.4691223502159118
-0.1050075516104698,0.3126932978630066,-0.0013094349997118,-0.5508676171302795,-0.1121953725814819,0.023667212575674,0.0,0.0,0.864642858505249,0.134790301322937
-0.1049608215689659,0.3001953363418579,0.0037317904643714,-0.5553950667381287,-0.1112552210688591,0.0188027508556842,0.0,0.0,0.9516146183013916,-0.0802794694900512
-0.1047780960798263,0.2884173691272735,0.0174494981765747,-0.5234065055847168,-0.1104410514235496,0.0162837263196706,0.0,0.0,0.6751492023468018,-0.7315159440040588
-0.1044301018118858,0.2771962285041809,0.0324083864688873,-0.4985429644584656,-0.1080650314688682,0.0475201122462749,0.0,0.0,0.7706046104431152,-0.5273385047912598
-0.1041122451424598,0.2666356265544891,0.0287843439728021,-0.4691428542137146,-0.1050784364342689,0.0597319193184375,0.0,0.0,0.1972824335098266,-0.0843740701675415
-0.1038176566362381,0.2557695209980011,0.0269681718200445,-0.4827643036842346,-0.1026093363761901,0.0493819937109947,0.0,0.0,0.2503352165222168,-0.0415624976158142
-0.1033858284354209,0.2451130747795105,0.040631990879774,-0.4734498560428619,-0.1000832319259643,0.0505220964550972,0.0,0.0,0.3409910202026367,-0.405636191368103
-0.1029428467154502,0.2344876676797866,0.0422192551195621,-0.4721021950244903,-0.0980218201875686,0.0412281826138496,0.0,0.0,0.4762383699417114,-0.6287313103675842
-0.1024960502982139,0.2241057902574539,0.0415311902761459,-0.4612133204936981,-0.0949025154113769,0.0623861029744148,0.0,0.0,0.2315267324447631,-0.09418785572052
-0.1019609421491622,0.2138252109289169,0.0504831559956073,-0.4567268490791321,-0.0919076651334762,0.059897281229496,0.0,0.0,0.1693634986877441,-0.2739037871360779
-0.1012783050537109,0.2034728825092315,0.0650393068790435,-0.4599101841449737,-0.0887094065546989,0.0639651417732238,0.0,0.0,0.5468335151672363,-0.6023041009902954
-0.100542165338993,0.1929183602333068,0.0692020058631897,-0.4688372910022735,-0.0843381136655807,0.0874258503317833,0.0,0.0,0.780003547668457,-0.5381974577903748
-0.0996565818786621,0.1823220551013946,0.0828470736742019,-0.4706364274024963,-0.0786774531006813,0.1132132783532142,0.0,0.0,0.8218111991882324,0.4496392011642456
-0.0985097885131836,0.1719701588153839,0.1082838624715805,-0.4597591161727905,-0.0723429471254348,0.1266901940107345,0.0,0.0,0.6422803401947021,-0.1962614059448242
-0.0971460342407226,0.1615119129419326,0.1294040381908416,-0.4644907414913177,-0.0654414594173431,0.1380298137664795,0.0,0.0,0.7933838367462158,0.0522981882095336
-0.0956842452287674,0.1515970379114151,0.139304831624031,-0.440378725528717,-0.0586395487189292,0.1360380053520202,0.0,0.0,0.7887022495269775,-0.808763861656189
-0.0941499695181846,0.1422426253557205,0.1449127197265625,-0.4154407083988189,-0.0502222552895545,0.1683458983898162,0.0,0.0,0.5392324924468994,-0.7076345682144165
-0.0924613028764724,0.1331391483545303,0.1587401032447815,-0.4042916893959045,-0.0402150116860866,0.2001447230577469,0.0,0.0,0.6983780860900879,-0.8574549555778503
-0.0906602889299392,0.1238497570157051,0.1681042909622192,-0.4125812947750091,-0.0283694546669721,0.2369111031293869,0.0,0.0,0.7800569534301758,-0.4589657783508301
-0.0888481140136718,0.1147087216377258,0.1695412099361419,-0.4060870110988617,-0.0168414842337369,0.2305595427751541,0.0,0.0,0.8592867851257324,0.6010851860046387
-0.0868175476789474,0.1063503101468086,0.1923686563968658,-0.3713945150375366,-0.0062868548557162,0.2110925465822219,0.0,0.0,0.5466932058334351,-0.9450900554656982
-0.0848303809762001,0.0981149300932884,0.1861966997385025,-0.3660078644752502,0.006073105148971,0.2471991777420044,0.0,0.0,0.7733118534088135,-0.6641867756843567
-0.0829924568533897,0.0904882252216339,0.1703297048807144,-0.339071124792099,0.0193683933466672,0.2659055590629577,0.0,0.0,0.6135072708129883,0.885446310043335
-0.0809493064880371,0.0832164362072944,0.192525640130043,-0.3233848214149475,0.0310065243393182,0.232762724161148,0.0,0.0,0.7391060590744019,-0.491732120513916
-0.0789335221052169,0.0764491856098175,0.19008469581604,-0.3010402023792267,0.0423556417226791,0.2269826829433441,0.0,0.0,0.7008254528045654,-0.1306905150413513
-0.0769819244742393,0.0701548680663108,0.1841011047363281,-0.2800942063331604,0.0532890297472476,0.2186676263809204,0.0,0.0,0.3131119012832641,-0.5356190800666809
-0.0750613212585449,0.0637696385383606,0.1799904406070709,-0.2842574715614319,0.0652262717485427,0.2387445420026779,0.0,0.0,0.8002748489379883,0.4992653131484985
-0.0732562094926834,0.0576761588454246,0.1690440624952316,-0.2713591158390045,0.0765676125884056,0.2268267571926117,0.0,0.0,0.7406775951385498,0.8731138706207275
-0.0715455040335655,0.0517165772616863,0.1616769134998321,-0.2653744518756866,0.0858712941408157,0.186073437333107,0.0,0.0,0.7387797832489014,0.9064054489135742
-0.0696504563093185,0.0462403632700443,0.1817280352115631,-0.2438559681177139,0.0935726910829544,0.154027983546257,0.0,0.0,0.7319707870483398,0.2614738941192627
-0.0676731094717979,0.0406730286777019,0.1896602064371109,-0.2479638457298278,0.101586990058422,0.1602858006954193,0.0,0.0,0.8857731819152832,-0.273521363735199
-0.0655645355582237,0.035752709954977,0.2019810229539871,-0.2193064987659454,0.1103907823562622,0.1760756522417068,0.0,0.0,0.713618278503418,-0.891399621963501
-0.0635868087410926,0.0313465222716331,0.1871386468410492,-0.1966517716646194,0.1209597215056419,0.2113790214061737,0.0,0.0,0.2013137340545654,-0.172962486743927
-0.061526108533144,0.0272073373198509,0.1949227899312973,-0.1849051862955093,0.1320494413375854,0.2217944413423538,0.0,0.0,0.1572797298431396,-0.7214436531066895
-0.0594603531062603,0.0229959823191165,0.1938929855823516,-0.1883427500724792,0.1446947157382965,0.2529055476188659,0.0,0.0,0.0078636407852172,-0.7124168872833252
-0.0574727058410644,0.0188415627926588,0.1846179366111755,-0.1860718727111816,0.1588163375854492,0.2824325263500213,0.0,0.0,0.4983870983123779,-0.6512913703918457
-0.0556327812373638,0.0158424954861402,0.1870876848697662,-0.1329777389764785,0.155715987086296,-0.0620157197117805,0.0,1.0,0.9067261219024658,0.7320660352706909
-0.0539604201912879,0.0135509585961699,0.1911498308181762,-0.0995237380266189,0.1318567097187042,-0.4771977961063385,0.0,1.0,-0.2041771411895752,-0.8050397038459778
-0.0523676872253418,0.0105784991756081,0.1814935207366943,-0.130298301577568,0.1097531244158744,-0.4420904219150543,0.0,0.0,0.0036641359329223,-0.2702072858810425
-0.0508404746651649,0.00751509424299,0.1783027201890945,-0.1344807147979736,0.0843468382954597,-0.5081811547279358,0.0,1.0,0.5028777122497559,-0.7656708359718323
-0.0494627952575683,0.0046845413744449,0.1658506244421005,-0.1244644597172737,0.0565091036260128,-0.5568035840988159,0.0,1.0,0.8252909183502197,-0.3449869155883789
-0.0481091514229774,0.0021591519471257,0.1658969074487686,-0.1113745719194412,0.0263035036623477,-0.6041587591171265,0.0,1.0,0.5011197328567505,-0.7916268110275269
-0.0466835983097553,-0.0005652213003486,0.170681431889534,-0.1208240091800689,-0.0014606239274144,-0.5552829504013062,0.0,1.0,0.7222490310668945,-0.1125147938728332
-0.0451095588505268,-0.0020845318213105,0.1693538129329681,-0.0675762668251991,-0.0132524920627474,-0.2358369082212448,1.0,1.0,0.8846415281295776,-0.9849700331687928
-0.0435449592769146,-0.0019781731534749,0.1556272059679031,0.0047338129952549,-0.0124342525377869,0.0163651369512081,1.0,1.0,-0.5342099666595459,-0.956079602241516
