x_pos,y_pos,x_vel,y_vel,angle,ang_vel,leg_1,leg_2,main_booster,lat_booster
-0.0015241622459143,1.4029496908187866,-0.1541198939085006,-0.3542461395263672,0.0015215969178825,0.029996970668435,0.0,0.0,-0.0678929090499877,0.9591987133026124
-0.0029685974586755,1.3943229913711548,-0.1435935497283935,-0.383411556482315,0.0006869956268928,-0.0166928060352802,0.0,0.0,0.0280276536941528,0.6626276969909668
-0.0042695999145507,1.385393142700195,-0.1277689635753631,-0.396878182888031,-0.0016123204259201,-0.0459907576441764,0.0,0.0,0.0336447954177856,0.1539750099182129
-0.0056488988921046,1.3762576580047607,-0.1349762827157974,-0.4060330390930176,-0.0045394320040941,-0.0585478544235229,0.0,0.0,0.3519688844680786,0.197350263595581
-0.0069260597229003,1.3672468662261963,-0.1249757558107376,-0.4004868865013122,-0.0072371936403214,-0.0539601854979991,0.0,0.0,0.4342294931411743,0.014098048210144
-0.0080875400453805,1.3582671880722046,-0.1137056499719619,-0.3991118967533111,-0.009647462517023,-0.0482099801301956,0.0,0.0,-0.2163190841674804,0.0408792495727539
-0.0092571256682276,1.348612666130066,-0.1142386347055435,-0.4291104972362518,-0.0123444646596908,-0.0539452321827411,0.0,0.0,-0.3066650629043579,0.1663975715637207
-0.0104362489655613,1.3382834196090698,-0.1148896366357803,-0.4591046869754791,-0.0153321968391537,-0.059759896248579,0.0,0.0,0.5952320098876953,0.8105640411376953
-0.0115625383332371,1.3284989595413208,-0.107669785618782,-0.4349181950092315,-0.020243240520358,-0.0982297211885452,0.0,0.0,0.434230089187622,0.1866407394409179
-0.0126885417848825,1.3189857006072998,-0.1073311418294906,-0.4228945970535278,-0.0254550073295831,-0.1042450442910194,0.0,0.0,0.1905183792114257,0.1073617935180664
-0.0137543678283691,1.309437870979309,-0.1013091430068016,-0.42444708943367,-0.0306739695370197,-0.1043886914849281,0.0,0.0,-0.3603485822677612,-0.279491662979126
-0.0148341180756688,1.29921555519104,-0.1023960560560226,-0.4544472396373749,-0.0361973606050014,-0.1104779243469238,0.0,0.0,-0.7606322765350342,0.4143898487091064
-0.015928840264678,1.288319110870361,-0.1035820618271827,-0.4844444096088409,-0.0420272126793861,-0.1166074126958847,0.0,0.0,-0.3976097106933594,-0.4848129749298095
-0.0170395858585834,1.2767481803894043,-0.1048630028963089,-0.5144433379173279,-0.0481656119227409,-0.1227792352437973,0.0,0.0,0.7493788003921509,-0.1005396246910095
-0.0179757121950387,1.2658002376556396,-0.0878182649612426,-0.4867734909057617,-0.0539105199277401,-0.1149085909128189,0.0,0.0,-0.2566276788711548,-0.7273595333099365
-0.0189767833799123,1.2541730403900146,-0.0951908454298973,-0.5169514417648315,-0.0587876625359058,-0.0975513458251953,0.0,0.0,-0.598437488079071,-0.9434159398078918
-0.0200533866882324,1.2418875694274902,-0.1038833856582641,-0.5461759567260742,-0.0625298842787742,-0.0748511180281639,0.0,0.0,-0.2340624332427978,-0.749094545841217
-0.0211947448551654,1.228925347328186,-0.1111864894628524,-0.5762212872505188,-0.0654507279396057,-0.0584220886230468,0.0,0.0,0.2934015989303589,-0.8770744204521179
-0.0222968105226755,1.216235876083374,-0.1087782531976699,-0.5640442371368408,-0.0668655335903167,-0.028298607096076,0.0,0.0,-0.5759957432746887,-0.5835652351379395
-0.0234719272702932,1.2028764486312866,-0.1170886531472206,-0.5937703847885132,-0.0672796964645385,-0.0082842158153653,0.0,0.0,0.3836640119552612,-0.1761057376861572
-0.0245194435119628,1.1897742748260498,-0.104523941874504,-0.5823352932929993,-0.0675095096230506,-0.0045964876189827,0.0,0.0,-0.2980040907859802,-0.5525068044662476
-0.0256319046020507,1.175998330116272,-0.1117863655090332,-0.6122371554374695,-0.0669759288430213,0.010672578588128,0.0,0.0,-0.4156702756881714,0.3397308588027954
-0.0267669670283794,1.1615478992462158,-0.113728366792202,-0.6422311067581177,-0.0667551383376121,0.0044161980040371,0.0,0.0,-0.7151421308517456,-0.495718240737915
-0.0279251094907522,1.1464228630065918,-0.115718588232994,-0.6722275018692017,-0.0668453946709632,-0.0018052462255582,0.0,0.0,0.0542055368423461,-0.7203933000564575
-0.0292398445308208,1.131255865097046,-0.1324374377727508,-0.6740425825119019,-0.0658928006887435,0.0190535858273506,0.0,0.0,0.130216360092163,0.1141499280929565
-0.0306471828371286,1.1161236763000488,-0.1409215629100799,-0.6725361347198486,-0.065709576010704,0.0036645662039518,0.0,0.0,0.5305449962615967,-0.5328999161720276
-0.0320727340877056,1.1013312339782717,-0.1435116231441497,-0.6573998332023621,-0.0647610500454902,0.0189703274518251,0.0,0.0,0.2834901809692383,0.8681538105010986
-0.0335285179316997,1.086837649345398,-0.1443932652473449,-0.6442162990570068,-0.0659371763467788,-0.0235224962234497,0.0,0.0,-0.0024561882019042,-0.8267433047294617
-0.0350883491337299,1.0716840028762815,-0.1565140634775161,-0.6734703779220581,-0.0654105395078659,0.0105325495824217,0.0,0.0,-0.4192535877227783,0.7650532722473145
-0.0366151817142963,1.05584716796875,-0.151424765586853,-0.703913152217865,-0.0666531771421432,-0.0248528514057397,0.0,0.0,-0.123345673084259,-0.3049821257591247
-0.0381673797965049,1.03933584690094,-0.1536672264337539,-0.7339087724685669,-0.0681914389133453,-0.0307652745395898,0.0,0.0,0.4086189270019531,-0.906721293926239
-0.0398670211434364,1.0227186679840088,-0.169862300157547,-0.7385385632514954,-0.0682917535305023,-0.0020063095726072,0.0,0.0,-0.365706205368042,-0.0649229288101196
-0.041592501103878,1.0054271221160889,-0.1721536964178085,-0.7685341238975525,-0.0686808750033378,-0.0077825197950005,0.0,0.0,0.5214849710464478,-0.802861750125885
-0.0434501655399799,0.9879640340805054,-0.1865967661142349,-0.7761026620864868,-0.067860722541809,0.0164030529558658,0.0,0.0,-0.0031710863113403,-0.7242879271507263
-0.0453895553946495,0.9698334336280824,-0.1959041208028793,-0.8057149648666382,-0.0659181401133537,0.0388516075909137,0.0,0.0,0.3890997171401977,-0.2118661999702453
-0.0472981445491313,0.9519786238670348,-0.1926100105047226,-0.7934717535972595,-0.0641814619302749,0.0347333848476409,0.0,0.0,0.0926439762115478,-0.5002013444900513
-0.0492724403738975,0.933903157711029,-0.1998794972896576,-0.8032556176185608,-0.0617586374282836,0.048456571996212,0.0,0.0,0.8366974592208862,0.1342325210571289
-0.0511788353323936,0.9164159893989564,-0.1930108964443206,-0.7771093249320984,-0.0594073086977005,0.0470263808965683,0.0,0.0,0.4845114946365356,0.1091610193252563
-0.0531021133065223,0.8993910551071167,-0.1942744553089141,-0.7565866708755493,-0.0574817545711994,0.0385111309587955,0.0,0.0,0.261350154876709,0.0934550762176513
-0.0550038330256938,0.882384717464447,-0.1919635087251663,-0.7557727694511414,-0.0557133443653583,0.0353684276342392,0.0,0.0,-0.5193517804145813,-0.1120436191558837
-0.0569323524832725,0.8647035956382751,-0.1943852007389068,-0.7857680916786194,-0.0541963204741478,0.0303402654826641,0.0,0.0,0.4681317806243896,0.5518425703048706
-0.0587004646658897,0.8470301628112793,-0.1772693693637848,-0.7854672074317932,-0.0537412017583847,0.0091025568544864,0.0,0.0,0.0293999910354614,-0.1212416887283325
-0.060424517840147,0.8289698362350464,-0.1729001700878143,-0.8026605844497681,-0.0532457493245601,0.0099088819697499,0.0,0.0,0.7859423160552979,0.560760498046875
-0.0619861595332622,0.8110769987106323,-0.1556204855442047,-0.7952578067779541,-0.0537875406444072,-0.0108355432748794,0.0,0.0,0.4797947406768799,0.2083325386047363
-0.0635969191789627,0.7929074764251709,-0.1601269096136093,-0.8075689077377319,-0.0547248944640159,-0.0187473893165588,0.0,0.0,0.6484801769256592,-0.0394906401634216
-0.0651706680655479,0.7745587229728699,-0.1564078629016876,-0.8155290484428406,-0.0556708462536335,-0.0189190804958343,0.0,0.0,0.2097464799880981,0.5849609375
-0.0666576400399208,0.7560144662857056,-0.1464352756738662,-0.8242799639701843,-0.0579068250954151,-0.0447196438908577,0.0,0.0,0.9682571887969972,-0.2803432941436767
-0.0682476982474327,0.7382945418357849,-0.1559068113565445,-0.7876729369163513,-0.0609692186117172,-0.0612478852272033,0.0,0.0,0.8148146867752075,-0.2744640707969665
-0.0699572563171386,0.721209704875946,-0.1669823676347732,-0.7594950795173645,-0.0649057328701019,-0.0787301436066627,0.0,0.0,-0.4749537706375122,-0.5718186497688293
-0.0717406272888183,0.7034531831741333,-0.1753486692905426,-0.7893103361129761,-0.0678570345044136,-0.0590262189507484,0.0,0.0,0.3669039011001587,0.2674179077148437
-0.0734003037214279,0.6857171058654785,-0.1633571088314056,-0.7883926033973694,-0.0704447627067565,-0.0517542883753776,0.0,0.0,0.8185956478118896,0.2076976299285888
-0.0750929862260818,0.6685265302658081,-0.166176825761795,-0.7641773223876953,-0.0735035836696624,-0.0611764565110206,0.0,0.0,-0.0491642951965332,0.0578371286392211
-0.0768124610185623,0.6506611704826355,-0.1686853915452957,-0.794173002243042,-0.076732762157917,-0.0645835697650909,0.0,0.0,0.9050190448760986,0.0513451099395751
-0.0784845352172851,0.6334965825080872,-0.1637938618659973,-0.7630481123924255,-0.0801075622439384,-0.0674959421157836,0.0,0.0,0.2939984798431396,0.1990567445755005
-0.0800363570451736,0.6162144541740417,-0.1521651297807693,-0.7682605385780334,-0.0830974504351615,-0.0597980543971061,0.0,0.0,0.7615501880645752,0.2598075866699219
-0.0816746726632118,0.5990215539932251,-0.1601902246475219,-0.7643408179283142,-0.086705781519413,-0.072166733443737,0.0,0.0,0.983262062072754,-0.3105994462966919
-0.0831442847847938,0.5825689435005188,-0.1437079608440399,-0.7314158082008362,-0.0899313539266586,-0.064511552453041,0.0,0.0,0.7001533508300781,-0.0165480971336364
-0.0844366997480392,0.5664595365524292,-0.1265163123607635,-0.7161394953727722,-0.0926313921809196,-0.0540008321404457,0.0,0.0,0.9014134407043456,0.2699424028396606
-0.0855823531746864,0.5510788559913635,-0.1121149286627769,-0.6837407350540161,-0.0950571969151496,-0.0485157445073127,0.0,0.0,-0.1640305519104004,-0.7276760339736938
-0.0868185013532638,0.5350390076637268,-0.1227077022194862,-0.7129400372505188,-0.0959626510739326,-0.0181089881807565,0.0,0.0,0.8650385141372681,0.1616789102554321
-0.0879835113883018,0.518940269947052,-0.1157498583197593,-0.715546190738678,-0.0967085734009742,-0.0149183990433812,0.0,0.0,0.9547461271286012,0.359439492225647
-0.0892128944396972,0.5034230947494507,-0.1215226426720619,-0.6897447109222412,-0.0981032401323318,-0.0278937574476003,0.0,0.0,0.9442076683044434,0.3378467559814453
-0.0902641266584396,0.4881183505058288,-0.1043074578046798,-0.6802657842636108,-0.0989178046584129,-0.0162910874933004,0.0,0.0,0.9402761459350586,0.2466847896575927
-0.0912428870797157,0.4732092022895813,-0.0971069633960723,-0.6626789569854736,-0.0996888354420661,-0.0154202803969383,0.0,0.0,0.775639533996582,0.3274712562561035
-0.0921966582536697,0.4582670927047729,-0.094557300209999,-0.664148211479187,-0.1004978194832801,-0.0161796100437641,0.0,0.0,0.8170419931411743,0.5434997081756592
-0.093212604522705,0.443636029958725,-0.0992141664028167,-0.6504324078559875,-0.1028667762875557,-0.047379046678543,0.0,0.0,0.9957661628723145,-0.4141622185707092
-0.0941226035356521,0.4298687875270843,-0.0886738747358322,-0.6120406985282898,-0.1051777303218841,-0.0462191328406333,0.0,0.0,0.3253509998321533,0.5875444412231445
-0.0949164405465126,0.4157511293888092,-0.0759615525603294,-0.6276953816413879,-0.1085729524493217,-0.0679043978452682,0.0,0.0,0.6870007514953613,0.2509810924530029
-0.0956141501665115,0.4022542536258697,-0.0664349272847175,-0.6001099944114685,-0.1118881553411483,-0.066303864121437,0.0,0.0,0.7868931293487549,-0.712490975856781
-0.0964465141296386,0.3888705968856811,-0.0810468941926956,-0.5949939489364624,-0.1140725836157798,-0.0436882898211479,0.0,0.0,0.5320208072662354,0.0238090753555297
-0.0973177924752235,0.3757625520229339,-0.0844967365264892,-0.5827853679656982,-0.1166848540306091,-0.0522453896701335,0.0,0.0,0.526357889175415,0.4347124099731445
-0.0981195420026779,0.3628313541412353,-0.0776447504758834,-0.574919581413269,-0.1191931143403053,-0.0501653179526329,0.0,0.0,0.6183743476867676,-0.2029369473457336
-0.0989736542105674,0.3504799604415893,-0.0822796821594238,-0.5492005944252014,-0.1223062649369239,-0.0622630231082439,0.0,0.0,-0.4796282649040222,0.3463742733001709
-0.0998532325029373,0.3374540209770202,-0.0848103165626525,-0.5791954398155212,-0.125434473156929,-0.0625642538070678,0.0,0.0,0.5799674987792969,-0.0528467893600463
-0.100743293762207,0.3243159055709839,-0.0857074409723281,-0.5841960310935974,-0.1287210583686828,-0.0657316520810127,0.0,0.0,0.5881463289260864,0.2115155458450317
-0.1015537232160568,0.3109553754329681,-0.0780416950583458,-0.5940647721290588,-0.1317088901996612,-0.0597565583884716,0.0,0.0,0.8859331607818604,-0.874367892742157
-0.1024471297860145,0.2975089251995086,-0.0880175679922103,-0.5977356433868408,-0.1330277621746063,-0.0263770818710327,0.0,0.0,0.7167249917984009,-0.7189278602600098
-0.1033213585615158,0.2846326828002929,-0.0875398889183998,-0.5722687840461731,-0.1329208463430404,0.0021382304839789,0.0,0.0,-0.6081490516662598,-0.0016370415687561
-0.1042207702994346,0.2710815668106079,-0.090053766965866,-0.602262556552887,-0.1328024119138717,0.0023683640174567,0.0,0.0,0.9943459033966064,-0.1609429717063903
-0.1051486954092979,0.2583493888378143,-0.0922931656241417,-0.5659206509590149,-0.1332946419715881,-0.0098445061594247,0.0,0.0,0.8173998594284058,0.5413557291030884
-0.1061612144112587,0.2455001026391983,-0.0992645323276519,-0.5712575316429138,-0.1352769881486892,-0.0396468006074428,0.0,0.0,0.958116054534912,0.5803606510162354
-0.1069757491350174,0.2333541214466095,-0.0784681215882301,-0.5400968790054321,-0.1382490247488021,-0.0594406239688396,0.0,0.0,0.9622617959976196,0.533078670501709
-0.1078051552176475,0.2215664237737655,-0.0785375460982322,-0.524309515953064,-0.1426364481449127,-0.0877485945820808,0.0,0.0,0.6231961250305176,0.274693489074707
-0.1086176857352256,0.2101043760776519,-0.0766335800290107,-0.5098729133605957,-0.1472423821687698,-0.0921190902590751,0.0,0.0,0.2189255952835083,-0.1737261414527893
-0.1093875914812088,0.1987351030111313,-0.0723700672388076,-0.5057640671730042,-0.1518557220697403,-0.0922668278217315,0.0,0.0,0.9345748424530028,-0.5185854434967041
-0.1100124344229698,0.1876861900091171,-0.0592604205012321,-0.4913978278636932,-0.1550735831260681,-0.0643568336963653,0.0,0.0,0.9047894477844238,-0.7682062387466431
-0.1106319427490234,0.1765469461679458,-0.0603637807071208,-0.495244026184082,-0.1566544473171234,-0.0316174067556858,0.0,0.0,0.9776601791381836,0.4501409530639648
-0.111090563237667,0.1654208451509475,-0.0448319800198078,-0.4946001470088959,-0.1576818823814392,-0.0205482728779315,0.0,0.0,0.9913387298583984,0.0474663972854614
-0.1112897843122482,0.1545977443456649,-0.019760113209486,-0.4810465574264526,-0.1578478068113327,-0.0033184648491442,0.0,0.0,0.9704947471618652,0.4964120388031006
-0.1112747192382812,0.1437571793794632,0.0008684037020429,-0.4817313849925995,-0.1572024077177047,0.0129080088809132,0.0,0.0,0.9847915172576904,-0.2856423258781433
-0.1111485511064529,0.1335804611444473,0.0119574284180998,-0.4522305130958557,-0.1565456837415695,0.0131343798711895,0.0,0.0,0.9519698619842528,-0.8526535630226135
-0.1109323501586914,0.1240695565938949,0.0191216189414262,-0.422450453042984,-0.1540544480085373,0.0498246066272258,0.0,0.0,0.9516291618347168,-0.3513519763946533
-0.1104731559753418,0.1150178536772728,0.042704164981842,-0.4019683301448822,-0.150839701294899,0.0642950534820556,0.0,0.0,0.8967753648757935,-0.1761713027954101
-0.1098661422729492,0.1058210209012031,0.0569003298878669,-0.4083670675754547,-0.1470468342304229,0.0758569911122322,0.0,0.0,0.8746258020401001,-0.7142840027809143
-0.1093172058463096,0.0968315452337265,0.0497720576822757,-0.3990379273891449,-0.1419362276792526,0.1022120267152786,0.0,0.0,0.9384634494781494,-0.0598480105400085
-0.1085493117570877,0.0886495932936668,0.0711637139320373,-0.3631178140640259,-0.1363259851932525,0.112205222249031,0.0,0.0,0.8785563707351685,-0.5575030446052551
-0.1077873259782791,0.0807694047689437,0.069482609629631,-0.3496307730674743,-0.1296427547931671,0.1336647570133209,0.0,0.0,0.8916623592376709,0.7975666522979736
-0.1070206612348556,0.0735947489738464,0.0718413740396499,-0.3184651434421539,-0.1248426288366317,0.0960025340318679,0.0,0.0,0.5644702911376953,0.4906249046325683
-0.1061118096113205,0.0667135566473007,0.0856520235538482,-0.3054012358188629,-0.1196272224187851,0.1043081134557724,0.0,0.0,0.5506298542022705,0.0139555931091308
-0.1051901802420616,0.0602154582738876,0.0871227234601974,-0.2884067296981811,-0.1146131753921508,0.1002806574106216,0.0,0.0,0.4621288776397705,-0.1886200904846191
-0.1042864769697189,0.0540428720414638,0.0856280550360679,-0.2739818692207336,-0.1099100783467292,0.0940618813037872,0.0,0.0,0.5022708177566528,0.3717340230941772
-0.1033763885498046,0.0478745065629482,0.0863519236445427,-0.2738151848316192,-0.1052876114845275,0.0924496799707412,0.0,0.0,0.3741230964660644,-0.0383840799331665
-0.1025305762887001,0.0417929030954837,0.08035609126091,-0.2700007557868957,-0.1010940819978714,0.0838707983493805,0.0,0.0,0.5499807596206665,0.0079028606414794
-0.1017954796552658,0.0357912629842758,0.069921113550663,-0.266500174999237,-0.0975382328033447,0.0711170881986618,0.0,0.0,0.7903225421905518,0.1050916910171508
-0.1008897796273231,0.0302607640624046,0.086440235376358,-0.2455375045537948,-0.0934410020709037,0.0819448381662368,0.0,0.0,0.8400576114654541,0.2400801181793213
-0.099896527826786,0.0246598105877637,0.0948611870408058,-0.2486611455678939,-0.0890226066112518,0.0883678570389747,0.0,0.0,0.8207302093505859,0.7420884370803833
-0.098614789545536,0.0196149684488773,0.1248198002576828,-0.2240168750286102,-0.0856985449790954,0.0664811953902244,0.0,0.0,0.9239439964294434,-0.1375408172607422
-0.0972999557852745,0.0152494767680764,0.1282569468021392,-0.1938417851924896,-0.0825044885277748,0.063881330192089,0.0,0.0,0.8418014049530029,-0.3365615606307983
-0.0957653075456619,0.0116136884316802,0.1495210230350494,-0.1613791435956955,-0.0785878747701644,0.0783321261405944,0.0,0.0,0.636446475982666,-0.9540109634399414
-0.0941922217607498,0.0081608267500996,0.1513407081365585,-0.1531591266393661,-0.0726825073361396,0.1181070059537887,0.0,0.0,0.2374235391616821,-0.3513327836990356
-0.0925159454345703,0.0055520748719573,0.1459775269031524,-0.1150326877832412,-0.0512669272720813,0.4283113479614258,1.0,0.0,0.2476191520690918,-0.3231405615806579
-0.0907630920410156,0.0031620836816728,0.1533844172954559,-0.1056170240044593,-0.0296401344239711,0.4325362741947174,1.0,0.0,-0.1172921657562255,-0.2988241910934448
-0.08899936825037,0.0001798248267732,0.152403324842453,-0.1322392970323562,-0.00597351975739,0.4733323454856872,1.0,0.0,0.4300237894058227,-0.3067154884338379
-0.0873382538557052,-0.002666249172762,0.1426326334476471,-0.12656170129776,0.0172024630010128,0.4635196328163147,1.0,1.0,0.6675426959991455,0.2284913063049316
-0.0859808921813964,-0.0049506332725286,0.1278580129146576,-0.1018129959702491,0.0239300075918436,0.1332221031188964,0.0,1.0,-0.2116529941558838,0.7476481199264526
-0.0847008675336837,-0.0067596579901874,0.123521015048027,-0.0804869681596756,0.0283746179193258,0.0889107435941696,1.0,1.0,0.0964503288269043,-0.9536955952644348
-0.0835921317338943,-0.0075677894055843,0.1047300472855568,-0.0360544212162494,0.0344556644558906,0.1216355189681053,1.0,1.0,-0.6343235969543457,-0.9771274328231812
-0.0826503783464431,-0.0079318908974528,0.0867711454629898,-0.016378428786993,0.0417678244411945,0.146255075931549,1.0,1.0,-0.7052473425865173,-0.7991353273391724
-0.0818752273917198,-0.0078709153458476,0.0700185894966125,0.0024761296808719,0.0491904132068157,0.1484567523002624,1.0,1.0,-0.4736779928207397,-0.0312118530273437
-0.0812711715698242,-0.0076313759200274,0.0622308179736137,0.0106997396796941,0.0473930314183235,-0.0359401479363441,1.0,1.0,-0.5037924647331238,-0.6859718561172485
