x_pos,y_pos,x_vel,y_vel,angle,ang_vel,leg_1,leg_2,main_booster,lat_booster
-0.001565647078678,1.4030076265335083,-0.1580749452114105,-0.3516635298728943,0.0013460093177855,0.0265203565359115,0.0,0.0,0.3753984925588784,0.975673706166336
-0.0030477524269372,1.395073175430298,-0.1471567302942276,-0.3526458740234375,0.0003122361958958,-0.0206768326461315,0.0,0.0,0.3758229297559583,-0.6874611767500436
-0.0045025823637843,1.3870208263397217,-0.1455880850553512,-0.3578791320323944,0.0004096244229003,0.001947806449607,0.0,0.0,-0.9092853599315418,-0.7471667745517341
-0.0060695647262036,1.3783491849899292,-0.1581114530563354,-0.3854080736637115,0.0018083733739331,0.0279776044189929,0.0,0.0,0.5594170961714819,0.6779467266750105
-0.0074926377274096,1.369986653327942,-0.1421921551227569,-0.3716669380664825,0.0016905097290873,-0.0023575737141072,0.0,0.0,-0.7883233223527464,-0.8025579159088861
-0.009005737490952,1.3610059022903442,-0.1519498825073242,-0.3991458117961883,0.0023257369175553,0.0127060953527688,0.0,0.0,0.2840442588087457,0.6713552678379654
-0.0105274198576807,1.3520817756652832,-0.1509484350681305,-0.3966262638568878,0.0011187314521521,-0.0241425856947898,0.0,0.0,-0.8881033239258558,0.887658566087935
-0.0120023731142282,1.342543601989746,-0.1435725390911102,-0.4239216446876526,-0.0027615537401288,-0.0776130706071853,0.0,0.0,-0.4324621555696339,-0.8537752177974006
-0.0135860443115234,1.3323984146118164,-0.1556856632232666,-0.4509049952030182,-0.005400494672358,-0.0527834296226501,0.0,0.0,0.0661163237106448,0.966622293931105
-0.0151310916990041,1.3223453760147097,-0.1494092941284179,-0.4468361735343933,-0.0104424245655536,-0.1008483618497848,0.0,0.0,0.3740934970466649,-0.9880673531802016
-0.01670503616333,1.31241774559021,-0.153849720954895,-0.441255122423172,-0.0139542585238814,-0.0702428817749023,0.0,0.0,-0.8887637723424471,0.8451059670223519
-0.0182433128356933,1.3018704652786257,-0.1478817164897918,,-0.0198309049010276,-0.1175437122583389,0.0,0.0,-0.8858833320471873,-0.7244642132210637
-0.019864272326231,1.2907118797302246,-0.1567924916744232,-0.4960118532180786,-0.0250736568123102,-0.104864552617073,0.0,0.0,0.4328776647598344,0.7566941530710962
-0.0213886257261037,1.279387354850769,-0.1452259719371795,-0.5034483671188354,-0.0322038233280181,-0.1426164507865905,0.0,0.0,0.5971660224147066,0.7786014587898955
-0.0227117538452148,1.2686395645141602,-0.123317502439022,-0.4778922498226166,-0.0410935506224632,-0.1778109073638916,0.0,0.0,-0.2851490151740206,-0.7767406026415247
-0.024121094495058,1.2572699785232544,-0.1327120810747146,-0.50555419921875,-0.0492223277688026,-0.1625903844833374,0.0,0.0,-0.6306155992978375,0.8642480981363996
-0.0254813190549612,1.245289325714111,-0.1251803189516067,-0.5328682661056519,-0.0599594637751579,-0.2147623300552368,0.0,0.0,0.0516244944711381,-0.9492609134937467
-0.0268281940370798,1.233039379119873,-0.1252365559339523,-0.5448388457298279,-0.0693341121077537,-0.1875098049640655,0.0,0.0,0.6243679332057288,-0.7160643591302234
-0.0281054489314556,1.221356987953186,-0.1194137185811996,-0.5196208357810974,-0.0775715336203575,-0.1647629290819168,0.0,0.0,0.070951054348223,-0.9652810358989308
-0.029524803161621,1.2096233367919922,-0.1350712925195694,-0.521869421005249,-0.0843826904892921,-0.1362354755401611,0.0,0.0,0.3918036894571339,-0.8131847257671012
-0.030864905565977,1.1982192993164062,-0.1284344047307968,-0.5071688294410706,-0.0899228155612945,-0.1108122840523719,0.0,0.0,0.5793864387786181,-0.7947727025323857
-0.0322476401925087,1.186833381652832,-0.1337896883487701,-0.5063096284866333,-0.094370424747467,-0.0889602899551391,0.0,0.0,0.6456547153267986,-0.8118037879663934
-0.0335294716060161,1.1756293773651123,-0.1250746548175811,-0.4981622397899627,-0.0974595993757247,-0.06178879737854,0.0,0.0,0.0757439769140544,0.7615268181457766
-0.0347073562443256,1.1640878915786743,-0.1126763224601745,-0.5133016705513,-0.1025473773479461,-0.1017645597457885,0.0,0.0,-0.0151074029702376,-0.9984754504505318
-0.0360081680119037,1.151948094367981,-0.1269239783287048,-0.539763331413269,-0.1056865453720092,-0.0627890154719352,0.0,0.0,-0.4508447736893322,0.977388075567416
-0.0372763648629188,1.1391671895980835,-0.1216551065444946,-0.5684182643890381,-0.1108177453279495,-0.1026235073804855,0.0,0.0,0.9342526149725916,0.6457129092943988
-0.0384176261723041,1.1270334720611572,-0.1071583405137062,-0.5398134589195251,-0.1177405714988708,-0.1384561955928802,0.0,0.0,-0.9524744911570676,-0.6426560054540686
-0.0396409034729003,1.1143018007278442,-0.11642587184906,-0.566331148147583,-0.123618833720684,-0.1175652965903282,0.0,0.0,-0.2729498713548011,0.6106744273922027
-0.0408457741141319,1.1009528636932373,-0.1130973696708679,-0.5939187407493591,-0.1309707313776016,-0.1470376551151275,0.0,0.0,-0.9249878038215588,0.6418852098781177
-0.0420198440551757,1.0869770050048828,-0.1082586273550987,-0.6219824552536011,-0.1400835812091827,-0.1822573840618133,0.0,0.0,0.7030713339430588,-0.9824517922606536
-0.0431419387459754,1.0737053155899048,-0.1045538187026977,-0.5905981659889221,-0.147722989320755,-0.1527878791093826,0.0,0.0,-0.9829342330771592,-0.8399507418632217
-0.0443524345755577,1.0598300695419312,-0.1147630810737609,-0.6173120737075806,-0.1539936512708664,-0.1254134476184845,0.0,0.0,-0.5821021028494651,0.7136023369234793
-0.0455256476998329,1.045335292816162,-0.1092910543084144,-0.6450642943382263,-0.1620198488235473,-0.1605236232280731,0.0,0.0,0.1807960047988708,0.8257939376308954
-0.0466548912227153,1.0305970907211304,-0.1026904806494712,-0.6561788320541382,-0.1722680777311325,-0.2049645483493805,0.0,0.0,-0.1801934558209832,0.7745686700377027
-0.0477293953299522,1.015230417251587,-0.0951064303517341,-0.6844385862350464,-0.1846394389867782,-0.2474274933338165,0.0,0.0,-0.4521276540212904,-0.8260389878844565
-0.0488701835274696,0.9992737770080566,-0.1028565391898155,-0.7106263041496277,-0.1959308981895446,-0.2258289605379104,0.0,0.0,-0.4365926282494488,0.9991239199787244
-0.0499406829476356,0.9826766848564148,-0.0934023410081863,-0.7395116090774536,-0.2096778154373169,-0.2749383449554443,0.0,0.0,-0.304698314682071,-0.6385817506730657
-0.0510572418570518,0.965486228466034,-0.0987229570746421,-0.7659095525741577,-0.2227517366409301,-0.2614782750606537,0.0,0.0,0.3677051736676251,0.7883245732510945
-0.0519920364022254,0.9487037658691406,-0.0784381628036499,-0.7482322454452515,-0.2379885762929916,-0.304736852645874,0.0,0.0,-0.0232526039798386,0.6457338448516438
-0.0528709404170513,0.9312915802001952,-0.0710576996207237,-0.7766929864883423,-0.2551247775554657,-0.3427242934703827,0.0,0.0,0.3781811452254464,-0.8219899625604534
-0.0537389740347862,0.914280116558075,-0.0710217505693435,-0.7588967084884644,-0.2712468802928924,-0.3224417567253113,0.0,0.0,-0.8337904810905457,-0.9960851669311525
-0.0546597465872764,0.8966796398162842,-0.0773990452289581,-0.7850323915481567,-0.2863040566444397,-0.3011435568332672,0.0,0.0,-0.6885458827018738,-0.9921436309814452
-0.055635642260313,0.8784844279289246,-0.0840993747115135,-0.8113862872123718,-0.3002208769321441,-0.2783364653587341,0.0,0.0,-0.1162559986114502,-0.9950292110443116
-0.0566630363464355,0.8597039580345154,-0.0904053673148155,-0.8372854590415955,-0.3129881918430328,-0.2553455233573913,0.0,0.0,0.5000770092010498,-0.991550087928772
-0.0577116981148719,0.8407366275787354,-0.093965545296669,-0.8453807830810547,-0.3243204951286316,-0.2266459763050079,0.0,0.0,0.0113122463226318,-0.9623783230781556
-0.0587221160531044,0.8214579224586487,-0.0915177017450332,-0.8589982390403748,-0.3342579901218414,-0.19874969124794,0.0,0.0,-0.2878053188323974,-0.9940091371536256
-0.0597838386893272,0.8015953898429871,-0.0978919938206672,-0.8847194314002991,-0.3429144918918609,-0.1731302440166473,0.0,0.0,0.4389989376068115,-0.9833720922470092
-0.0607596412301063,0.7822508811950684,-0.090663194656372,-0.8614237308502197,-0.3501617312431335,-0.144944965839386,0.0,0.0,0.1955822706222534,-0.9787043333053588
-0.0616966262459754,0.763201892375946,-0.0882187336683273,-0.8479712009429932,-0.3559337556362152,-0.1154406890273094,0.0,0.0,-0.2590201497077942,-0.9850795269012452
-0.0626889243721962,0.7435781359672546,-0.0952239334583282,-0.8731653690338135,-0.3601555526256561,-0.0844359844923019,0.0,0.0,0.8626401424407959,-0.9926273822784424
-0.0633368492126464,0.7241896986961365,-0.0624624677002429,-0.8622947931289673,-0.362615168094635,-0.0491923317313194,0.0,0.0,0.2616959810256958,-0.9955729246139526
-0.0638818740844726,0.7050513625144958,-0.053601037710905,-0.850824773311615,-0.3635668754577636,-0.019034057855606,0.0,0.0,0.7470802068710327,-0.9954976439476012
-0.0641888603568077,0.6859251260757446,-0.0313732512295246,-0.8498830199241638,-0.3628529906272888,0.0142777608707547,0.0,0.0,0.5993994474411011,-0.9813039898872375
-0.0642633438110351,0.6673151850700378,-0.0095325345173478,-0.8265791535377502,-0.360643982887268,0.0441802367568016,0.0,0.0,0.5362520217895508,-0.987840175628662
-0.0640776604413986,0.6486815810203552,0.014924855902791,-0.8272502422332764,-0.3568058609962463,0.076762244105339,0.0,0.0,0.0758543014526367,-0.9441426396369934
-0.0638978034257888,0.6299390196800232,0.0129876658320426,-0.8317738175392151,-0.3515477180480957,0.10516307502985,0.0,0.0,0.3213851451873779,-0.9544557332992554
-0.0634573921561241,0.6114821434020996,0.0376182310283184,-0.8187476992607117,-0.3448104560375213,0.1347452700138092,0.0,0.0,0.3344366550445556,-0.90224689245224
-0.0627501457929611,0.5931553840637207,0.062945507466793,-0.8126823306083679,-0.3366572856903076,0.1630629599094391,0.0,0.0,0.3602933883666992,-0.8037014007568359
-0.0617820732295513,0.5751795768737793,0.0878546088933944,-0.7968612313270569,-0.3272962570190429,0.1872205436229705,0.0,0.0,-0.3641365766525268,-0.9259312152862548
-0.060859777033329,0.556637704372406,0.0816734656691551,-0.8217319250106812,-0.3163191676139831,0.2195420712232589,0.0,0.0,0.4001772403717041,-0.8893499374389648
-0.0598306655883789,0.5379327535629272,0.0910386070609092,-0.8287892937660217,-0.304010659456253,0.246170237660408,0.0,0.0,0.5495550632476807,-0.7447177171707153
-0.0587276443839073,0.5196332931518555,0.0975870937108993,-0.8107032775878906,-0.2908819615840912,0.262573778629303,0.0,0.0,0.491647720336914,-0.8625871539115906
-0.0574044212698936,0.5013657212257385,0.1182057857513427,-0.8091422319412231,-0.2763599157333374,0.2904406189918518,0.0,0.0,0.6527540683746338,-0.8166598081588745
-0.05591831356287,0.4833878576755523,0.1332746297121048,-0.7961940765380859,-0.2606458663940429,0.3142811059951782,0.0,0.0,0.704805850982666,-0.7941903471946716
-0.0543457977473735,0.465412974357605,0.1407443583011627,-0.796039342880249,-0.243818312883377,0.3365509808063507,0.0,0.0,0.6777950525283813,-0.781769871711731
-0.0527893081307411,0.447773277759552,0.1382543593645095,-0.7811998128890991,-0.2261684536933899,0.3529973328113556,0.0,0.0,0.7252084016799927,-0.7751709222793579
-0.0510333999991416,0.4308500289916992,0.1570342034101486,-0.7494041323661804,-0.2073953747749328,0.3754616677761078,0.0,0.0,0.6895667314529419,-0.8986815214157104
-0.0491613373160362,0.4137378931045532,0.1671178340911865,-0.7578489780426025,-0.1871687620878219,0.4045323729515075,0.0,0.0,0.8575628995895386,-0.6972692608833313
-0.0470972061157226,0.3974446058273315,0.1852394640445709,-0.7216170430183411,-0.1659407317638397,0.4245607256889343,0.0,0.0,0.7773268222808838,-0.751133918762207
-0.0450824722647666,0.3813338279724121,0.1794280111789703,-0.7137214541435242,-0.1439167708158493,0.440479427576065,0.0,0.0,0.7345993518829346,-0.1541377902030944
-0.0430265441536903,0.3656893968582153,0.1843896210193634,-0.6933955550193787,-0.1228038445115089,0.4222589135169983,0.0,0.0,0.844489574432373,-0.1452973484992981
-0.0408166870474815,0.350462794303894,0.200031042098999,-0.6751440763473511,-0.1019879207015037,0.41631880402565,0.0,0.0,0.363461971282959,0.2174456119537353
-0.0386067405343055,0.3356818258762359,0.2009469270706176,-0.6556844115257263,-0.082109585404396,0.3975668847560882,0.0,0.0,0.8145508766174316,-0.1002581715583801
-0.036229133605957,0.3212280869483948,0.2177325040102005,-0.6414119601249695,-0.0622929185628891,0.396333634853363,0.0,0.0,0.8386380672454834,-0.4845058917999267
-0.0338267311453819,0.3068179786205292,0.2208045423030853,-0.6397502422332764,-0.0430728830397129,0.3844006657600403,0.0,0.0,0.8668359518051147,-0.5898268818855286
-0.0313377380371093,0.2923385500907898,0.228440448641777,-0.6430676579475403,-0.0228676479309797,0.4041043817996979,0.0,0.0,0.9583568572998048,-0.5914065837860107
-0.0288907047361135,0.2778485417366028,0.2235609740018844,-0.6438116431236267,-0.0019946433603763,0.4174602031707763,0.0,0.0,0.9776386022567748,0.1417378187179565
-0.0264159198850393,0.2641717195510864,0.2267658710479736,-0.60796058177948,0.0184506010264158,0.408904880285263,0.0,0.0,0.8786765336990356,-0.3358898758888244
-0.0238312724977731,0.2512772977352142,0.2377078235149383,-0.5734679698944092,0.038951575756073,0.4100195467472076,0.0,0.0,0.8746470212936401,0.2931250333786011
-0.0213737487792968,0.2391538470983505,0.2259573489427566,-0.5394477248191833,0.0585156828165054,0.3912823796272278,0.0,0.0,0.8528703451156616,0.2248938083648681
-0.0190463066101074,0.2269617468118667,0.2139713317155838,-0.542706310749054,0.0770792663097381,0.3712720870971679,0.0,0.0,0.8507314920425415,0.4250659942626953
-0.0167055130004882,0.2154867500066757,0.215448185801506,-0.5110637545585632,0.0955423265695571,0.3692611157894134,0.0,0.0,0.8230819702148438,0.7771704196929932
-0.0144488336518406,0.2043381333351135,0.2091769874095916,-0.496629387140274,0.1119110435247421,0.3273741900920868,0.0,0.0,0.4921256303787231,0.7320206165313721
-0.0122204776853322,0.1934917122125625,0.2082032859325409,-0.4832276701927185,0.1264554858207702,0.2908888459205627,0.0,0.0,0.5057624578475952,0.3071123361587524
-0.0100459102541208,0.182977095246315,0.2031455934047699,-0.4685926139354706,0.1407063454389572,0.2850170731544494,0.0,0.0,0.6067299842834473,0.8865654468536377
-0.007749652955681,0.1727228313684463,0.2172046452760696,-0.4569647908210754,0.1531016528606414,0.24790620803833,0.0,0.0,0.3639076948165893,0.1855554580688476
-0.0054390905424952,0.16227687895298,0.2187504470348358,-0.4655779004096985,0.1653939187526703,0.2458453923463821,0.0,0.0,0.2906447649002075,-0.0578435063362121
-0.0030707358382642,0.1516990959644317,0.2243975847959518,-0.4715575277805328,0.1778540015220642,0.2492016553878784,0.0,0.0,0.6886017322540283,0.050048828125
-0.000619220722001,0.1414079219102859,0.2321921586990356,-0.4589925110340118,0.1908691823482513,0.2603037059307098,0.0,0.0,0.8086767196655273,0.3009908199310303
0.0019389152294024,0.1311813443899154,0.2422957718372345,-0.4563147723674774,0.2044773697853088,0.2721637785434723,0.0,0.0,0.8885834217071533,0.2487258911132812
0.0043552396818995,0.1215996369719505,0.2282664328813552,-0.4277635514736175,0.2179708629846573,0.2698695063591003,0.0,0.0,0.8232755661010742,-0.1193092465400695
0.0066630365327,0.112640269100666,0.2173529118299484,-0.4002311825752258,0.2315660119056701,0.271902859210968,0.0,0.0,0.4922147989273071,-0.2335285544395446
0.0089814187958836,0.1039850339293479,0.2179693728685379,-0.3869218230247497,0.2456537336111068,0.2817543447017669,0.0,0.0,0.5248985290527344,-0.0400784015655517
0.0113564487546682,0.0951880291104316,0.2232537716627121,-0.393427163362503,0.2601728737354278,0.2903830111026764,0.0,0.0,0.5766892433166504,-0.023833155632019
0.0135976793244481,0.0864620506763458,0.2101366072893142,-0.3903670907020569,0.2744894623756408,0.2863315045833587,0.0,0.0,0.7234213352203369,0.4171922206878662
0.015719985589385,0.078457698225975,0.1978425830602646,-0.3585205972194671,0.2892718911170959,0.2956483960151672,0.0,0.0,0.2750829458236694,-0.0398544073104858
0.017739962786436,0.0704635009169578,0.1876652538776397,-0.358210951089859,0.3040561974048614,0.2956860661506653,0.0,0.0,0.6442253589630127,0.4576138257980346
0.0194449424743652,0.0629331469535827,0.1566931158304214,-0.3376391530036926,0.3183798789978027,0.2864734828472137,0.0,0.0,0.6550576686859131,0.0584247112274169
0.0210546497255563,0.0558262206614017,0.1466909348964691,-0.3190723359584808,0.3332451283931732,0.2973054647445678,0.0,0.0,0.5923888683319092,0.4285376071929931
0.0224197395145893,0.0491056777536869,0.1223722547292709,-0.3020206093788147,0.3480353951454162,0.2958054840564728,0.0,0.0,0.42782723903656,0.6500005722045898
0.0235779769718647,0.0426745973527431,0.1030063182115554,-0.288985937833786,0.361528217792511,0.2698567509651184,0.0,0.0,0.5104503631591797,0.6310341358184814
0.0246399883180856,0.0362797826528549,0.0945190861821174,-0.2872090637683868,0.3738868832588196,0.2471731454133987,0.0,1.0,0.9997024536132812,0.9994429349899292
0.0253727920353412,0.0313467346131801,0.0780803933739662,-0.2186097204685211,0.3669061660766601,-0.1424099206924438,0.0,1.0,0.9994544982910156,0.9995620250701904
0.0256505962461233,0.0274827815592288,0.054108303040266,-0.1652654558420181,0.3391293883323669,-0.5556263327598572,0.0,1.0,0.978668212890625,0.5322480201721191
0.0257216449826955,0.0249632224440574,0.0481151118874549,-0.1029605716466903,0.2963704168796539,-0.8553460240364075,0.0,1.0,0.8711198568344116,-0.430616021156311
-999.0,0.0227648839354515,0.0452107526361942,-0.0888252109289169,0.247586503624916,-0.9758362770080566,0.0,1.0,0.8855180740356445,-0.8323473930358887
0.0255931857973337,0.0212702136486768,0.0343224331736564,-0.0595177598297596,0.2020276933908462,-0.9112330675125122,0.0,1.0,0.5320651531219482,-0.7254964113235474
0.0252645500004291,0.0202198605984449,0.0108452048152685,-0.0413211323320865,0.1581255495548248,-0.8780795931816101,0.0,0.0,-0.9956740140914916,-0.7318406701087952
0.0249312408268451,0.0185762736946344,0.0093297697603702,-0.0690765455365181,0.1155757680535316,-0.8510306477546692,0.0,0.0,-0.9701564908027648,-0.8544385433197021
0.0245800968259573,0.0163296554237604,0.0059981443919241,-0.0971812754869461,0.0747729986906051,-0.8160892724990845,0.0,0.0,-0.568472683429718,-0.9507957696914672
0.0241942405700683,0.0134889455512166,0.0004346879723016,-0.1247666925191879,0.0361625105142593,-0.7722417712211609,0.0,0.0,0.6681429147720337,-0.967195689678192
0.0238141063600778,0.0112507678568363,-0.0012648027623072,-0.0989954620599746,-0.000138691466418,-0.7260542511940002,0.0,0.0,0.5235239267349243,-0.9778277277946472
0.0234903339296579,0.0090306857600808,0.0016251851338893,-0.0990123376250267,-0.0336966849863529,-0.6711601614952087,0.0,0.0,0.7880280017852783,-0.8816008567810059
0.0230158809572458,0.0072235204279422,-0.0153417261317372,-0.0813444554805755,-0.0654294043779373,-0.6346548795700073,0.0,0.0,0.5401628017425537,-0.9648358821868896
0.0225481986999511,0.006213042885065,-0.0362591966986656,-0.0454131737351417,-0.0757958516478538,-0.2072889506816864,1.0,0.0,0.2452328205108642,0.2307291030883789
0.0222949981689453,0.0058282352983951,-0.0343315824866294,-0.0166680179536342,-0.0668865367770195,0.1781728714704513,1.0,0.0,-0.6942264437675476,0.3705554008483886
0.0221155174076557,0.0052935816347599,-0.0395794287323951,-0.0229361169040203,-0.0455036535859108,0.4276586472988128,1.0,0.0,-0.7035998106002808,0.0619392395019531
0.0219165794551372,0.0041190958581864,-0.0403844788670539,-0.0517002791166305,-0.0252554398030042,0.40496426820755,1.0,0.0,-0.222258985042572,0.3165985345840454
0.0217178352177143,0.0023333884309977,-0.0403864309191703,-0.0791460573673248,-0.0050078071653842,0.4049528539180755,0.0,0.0,-0.607864499092102,0.953688144683838
0.0216403007507324,-5.556583346333355e-05,-0.0266277696937322,-0.1062179133296012,0.0136173386126756,0.372503250837326,0.0,0.0,0.1569522619247436,0.9865643978118896
0.021641731262207,-0.0020369673147797,0.0020022455137223,-0.088051363825798,0.0117625910788774,-0.0371291302144527,0.0,1.0,0.0792179107666015,0.0298651456832885
