x_pos,y_pos,x_vel,y_vel,angle,ang_vel,leg_1,leg_2,main_booster,lat_booster
-0.0015625953674316,1.403216004371643,-0.1585292965173721,-0.3424023389816284,0.0020287977531552,0.0400397479534149,0.0,0.0,0.6628201417517137,0.9591449841456996
-0.0030314445029944,1.395818829536438,-0.147288516163826,-0.3287631273269653,0.0024257071781903,0.0079397466033697,0.0,0.0,-0.5531335915110964,-0.7060110816909817
-0.0045827864669263,1.388007402420044,-0.1568636447191238,-0.3471813201904297,0.0041334051638841,0.0341570638120174,0.0,0.0,0.949044710691124,-0.91741922112465
-0.0064029693603515,1.3806673288345337,-0.1854759454727172,-0.3262388408184051,0.0075582419522106,0.0685029402375221,0.0,0.0,0.7929301301004408,-0.9069328760073054
-0.0081840511411428,1.3739842176437378,-0.1838950961828231,-0.2970637679100036,0.0132794789969921,0.1144351810216903,0.0,0.0,-0.4801427695079785,-0.6611672506227484
-0.0100449565798044,1.3668915033340454,-0.1931111365556717,-0.3153104484081268,0.0202218294143676,0.1388598084449768,0.0,0.0,-0.7221775325395345,0.7699372397836699
-0.0118872644379735,1.3593928813934326,-0.189973771572113,-0.3333630859851837,0.0259032491594553,0.1136391162872314,0.0,0.0,-0.8052049023509313,0.6264163297603794
-0.0137077327817678,1.351490497589111,-0.1864364594221115,-0.3513033986091614,0.0302394852042198,0.0867326781153678,0.0,0.0,0.7716797428024535,-0.7003207256302323
-0.0156643874943256,1.3445299863815308,-0.2016198933124542,-0.309488832950592,0.0361255630850791,0.1177323460578918,0.0,0.0,-0.7116111864684356,-0.6514128230778842
-0.017712403088808,1.337162733078003,-0.2122456133365631,-0.3276296555995941,0.0434941165149211,0.1473844349384308,0.0,0.0,0.0440653173928604,0.8252754694312076
-0.0196880344301462,1.3299598693847656,-0.203560397028923,-0.320313423871994,0.049435943365097,0.1188475117087364,0.0,0.0,0.6532258871987893,-0.929740326840293
-0.0217234604060649,1.3231396675109863,-0.2117109596729278,-0.3034072816371918,0.0575210973620414,0.161717802286148,0.0,0.0,0.4176722956949907,0.6464618090979092
-0.0236600879579782,1.3168292045593262,-0.2009553611278534,-0.280768871307373,0.0647453218698501,0.144497737288475,0.0,0.0,-0.2830173525455401,0.7084858484537092
-0.0255743023008108,1.3101102113723757,-0.1972990930080413,-0.298886239528656,0.070569984614849,0.1165040135383606,0.0,0.0,0.4971222714448295,0.7359810597124323
-0.0273825637996196,1.304129958152771,-0.1856502890586853,-0.2660272419452667,0.0753503292798996,0.0956154093146324,0.0,0.0,0.3165297340308051,-0.7652541605221458
-0.02921037748456,1.298091173171997,-0.1894246935844421,-0.2687362730503082,0.0819389969110488,0.1317850947380066,0.0,0.0,-0.4711476028736359,0.8677698234500041
-0.0309951789677143,1.2916650772094729,-0.1831109523773193,-0.2858681380748749,0.0865467935800552,0.0921641811728477,0.0,0.0,-0.5968482956235559,-0.758823467690353
-0.0328651443123817,1.2848186492919922,-0.1929349601268768,-0.3046385943889618,0.0924447923898696,0.1179705485701561,0.0,0.0,-0.6763662898648539,0.622999801859886
-0.0347187034785747,1.2775781154632568,-0.1899726837873459,-0.3220941126346588,0.0970255583524704,0.0916233286261558,0.0,0.0,-0.6497159396717049,-0.6692005304088142
-0.0366721153259277,1.2699207067489624,-0.201583594083786,-0.3407498896121979,0.1032337769865989,0.1241755709052085,0.0,0.0,-0.3999748464350163,-0.6424303806812499
-0.038705825805664,1.2618539333343506,-0.2107351124286651,-0.3590448200702667,0.1105539873242378,0.1464176923036575,0.0,0.0,0.2897434393131533,-0.9095285128080028
-0.0408784858882427,0.0,-0.2265507280826568,-0.3551302850246429,0.119792029261589,0.1847773492336273,0.0,0.0,-0.5953548553648635,-0.7107305753739057
-0.0431352630257606,1.2454890012741089,-0.236147329211235,-0.3737806379795074,0.1302270889282226,0.2087195813655853,0.0,0.0,-0.9505270369411648,-0.7867234527825828
-0.0454862602055072,1.2366726398468018,-0.2470201551914215,-0.3929263651371002,0.1421286761760711,0.238052636384964,0.0,0.0,0.2754753874339353,-0.6760331373495632
-0.0481222160160541,1.22815203666687,-0.276727020740509,-0.3799916803836822,0.1552530527114868,0.2625110745429992,0.0,0.0,0.3077784297263095,0.8847299740357772
-0.0509446151554584,1.2200202941894531,-0.2935383915901184,-0.3626399040222168,0.1665514558553695,0.2259676456451416,0.0,0.0,0.8215881024059621,0.7952990365419652
-0.0538739189505577,1.2126879692077637,-0.3026683926582336,-0.3270019292831421,0.1763041913509369,0.195054680109024,0.0,0.0,-0.8473169526688844,-0.8745208123582391
-0.0569273009896278,1.2049356698989868,-0.3171979784965515,-0.3459989428520202,0.1882138103246688,0.2381922751665115,0.0,0.0,-0.950074836939096,-0.7756122981770641
-0.0600948333740234,1.1967625617980957,-0.3304834365844726,-0.3650504648685455,0.2020298242568969,0.2763201296329498,0.0,0.0,-0.8828893612135524,-0.889728541482599
-0.0633732825517654,1.1881589889526367,-0.3433765769004822,-0.3845857977867126,0.217703104019165,0.313465416431427,0.0,0.0,-0.0330174222128634,0.7745741907702286
-0.0666316002607345,1.1791785955429075,-0.3397120535373688,-0.4012344777584076,0.2317539602518081,0.2810173332691192,0.0,0.0,0.7972239949987938,0.9302658485353444
-0.0700586289167404,1.1704754829406738,-0.3545307219028473,-0.388706237077713,0.2437641471624374,0.2402039766311645,0.0,0.0,-0.8376124151517641,-0.678764548213731
-0.0735857039690017,1.1613502502441406,-0.3659831583499908,-0.4078260958194732,0.2572951018810272,0.27061927318573,0.0,0.0,-0.0245185754088073,-0.7842757854125072
-0.077217198908329,1.151786208152771,-0.3780769407749176,-0.4277582764625549,0.2725422084331512,0.3049423098564148,0.0,0.0,0.9721365628758872,-0.6841602892452273
-0.081122301518917,1.1428864002227783,-0.4066909253597259,-0.3986474573612213,0.2891704440116882,0.3325646519660949,0.0,0.0,0.4961668065140701,0.835596506371378
-0.0851825699210167,1.134608030319214,-0.4204533100128174,-0.3708597719669342,0.3040516972541809,0.2976253628730774,0.0,0.0,0.0834611959631677,0.8308206963237664
-0.0893274322152137,1.1263670921325684,-0.4271225035190582,-0.3689648807048797,0.3171605765819549,0.2621774077415466,0.0,0.0,-0.4731377032788777,-0.738609368345718
-0.0935640335083007,1.1176996231079102,-0.4375180304050445,-0.3883155882358551,0.3315839767456054,0.2884680926799774,0.0,0.0,-0.772543665505117,0.9685613605772084
-0.0977745056152343,1.108670711517334,-0.4329473972320556,-0.4040746986865997,0.3440431356430053,0.2491832077503204,0.0,0.0,0.4041275284401306,-0.6850364199708436
-0.1022232994437217,1.0999515056610107,-0.4580024182796478,-0.3907181024551391,0.3578377664089203,0.2758924067020416,0.0,0.0,0.2670366948032543,0.7630741384328272
-0.1069511398673057,1.0916531085968018,-0.4841395318508148,-0.3716897368431091,0.3698348999023437,0.2399424314498901,0.0,0.0,-0.8153850436210632,0.9860422611236572
-0.1116285324096679,1.0829957723617554,-0.4766323566436767,-0.3870942294597626,0.3792586326599121,0.1884748637676239,0.0,0.0,-0.3771983385086059,0.9933314323425292
-0.1162555664777755,1.0739705562591553,-0.469211995601654,-0.4028709530830383,0.3861778974533081,0.1383856683969497,0.0,0.0,-0.6596695184707642,0.8960883617401123
-0.1208421736955642,1.064581036567688,-0.4629929065704345,-0.4184905886650085,0.390796035528183,0.0923630073666572,0.0,0.0,-0.5944979786872864,0.976665735244751
-0.1253948211669922,1.054812788963318,-0.4576998651027679,-0.4348149299621582,0.3933901190757751,0.0518818125128746,0.0,0.0,-0.222919762134552,0.9852666854858398
-0.1299025565385818,1.0446739196777344,-0.4510036408901214,-0.4506795108318329,0.3936401307582855,0.0050002769567072,0.0,0.0,-0.3085428476333618,0.9953658580780028
-0.1343630850315094,1.034170389175415,-0.4440149366855621,-0.4662618637084961,0.3914586007595062,-0.0436313040554523,0.0,0.0,-0.28168785572052,0.9828510284423828
-0.1388014853000641,1.0233032703399658,-0.4400596618652344,-0.4819513261318207,0.3874314725399017,-0.0805423259735107,0.0,0.0,-0.2525211572647095,0.986431121826172
-0.1432183235883712,1.0120692253112793,-0.4362252354621887,-0.4978126585483551,0.3816182017326355,-0.116266168653965,0.0,0.0,-0.4371381998062134,0.8855836391448975
-999.0,1.0004618167877195,-0.4312009811401367,-0.5139563083648682,0.3738521933555603,-0.1553199887275695,0.0,0.0,-0.5005764961242676,0.9433920383453368
-0.1519334763288498,0.9884958863258362,-0.423193871974945,-0.5292890071868896,0.363481193780899,-0.2074201107025146,0.0,0.0,-0.367071270942688,0.988997220993042
-0.156228631734848,0.9761658906936646,-0.4177243709564209,-0.5450600981712341,0.3510578572750091,-0.2484670430421829,0.0,0.0,-0.762339174747467,0.9499812126159668
-0.1604677140712738,0.963469386100769,-0.4096814692020416,-0.5608799457550049,0.3361271619796753,-0.2986140847206116,0.0,0.0,-0.6219472885131836,0.9616992473602296
-0.1646642684936523,0.9504131078720092,-0.4032157361507416,-0.5765565037727356,0.3189917206764221,-0.3427086472511291,0.0,0.0,-0.6112272143363953,0.984710454940796
-0.1687938719987869,0.9369935989379884,-0.3938084840774536,-0.5923289656639099,0.2991324663162231,-0.3971858322620392,0.0,0.0,-0.3668984174728393,0.9880740642547609
-0.1728846579790115,0.9231953024864196,-0.3879287242889404,-0.6090692281723022,0.2773604393005371,-0.4354404807090759,0.0,0.0,-0.6818630695343018,0.9584369659423828
-0.1769160330295562,0.909038543701172,-0.3794311881065368,-0.6248655319213867,0.2531023025512695,-0.4851627349853515,0.0,0.0,-0.8933303952217102,0.8841574192047119
-0.1808864623308181,0.8945168852806091,-0.3707911074161529,-0.6411013007164001,0.2264094948768615,-0.5338563919067383,0.0,0.0,-0.9654453992843628,0.4310004711151123
-0.1848766356706619,0.8795953392982483,-0.3723576664924621,-0.6593049764633179,0.1994784027338028,-0.5386224389076233,0.0,0.0,-0.9761620759963988,0.8510540723800659
-0.1888279914855957,0.8642998933792114,-0.3665937781333923,-0.6762112379074097,0.1708060503005981,-0.5734472870826721,0.0,0.0,-0.989290416240692,0.7679953575134277
-0.1927293837070465,0.8486170172691345,-0.3595402538776397,-0.6937798261642456,0.1402222216129303,-0.6116770505905151,0.0,0.0,-0.8973453640937805,0.5483818054199219
-0.1966089308261871,0.8325487971305847,-0.3560434579849243,-0.7114561200141907,0.1084741428494453,-0.6349618434906006,0.0,0.0,-0.1414747238159179,0.7543306350708008
-0.200428158044815,0.8160956501960754,-0.3478177189826965,-0.7291204333305359,0.074660986661911,-0.6762637495994568,0.0,0.0,0.869309663772583,0.9536819458007812
-0.2042033225297927,0.8003005385398865,-0.3411958515644073,-0.7005798816680908,0.0387415625154972,-0.7183892726898193,0.0,0.0,0.8238208293914795,0.7684807777404785
-0.2079318016767501,0.7847767472267151,-0.3346794247627258,-0.6893904805183411,0.0010558512294664,-0.753714919090271,0.0,0.0,0.9117151498794556,0.3674077987670898
-0.2118080556392669,0.7698895335197449,-0.3485184609889984,-0.6620771884918213,-0.0375534258782863,-0.7721863985061646,0.0,0.0,0.7402119636535645,0.4594125747680664
-0.2156290113925933,0.7559639811515808,-0.3428776264190674,-0.6203543543815613,-0.0763220638036727,-0.7753735184669495,0.0,0.0,-0.3078980445861816,0.7251549959182739
-0.2193837612867355,0.7416350841522217,-0.3344478607177734,-0.6394319534301758,-0.1170008778572082,-0.8135773539543152,0.0,0.0,-0.3498827815055847,-0.7514000535011292
-0.2231897860765457,0.726938009262085,-0.3409329056739807,-0.6567844748497009,-0.1565126627683639,-0.7902363538742065,0.0,0.0,0.696847677230835,0.0678883790969848
-0.2270082980394363,0.712597131729126,-0.3417169451713562,-0.6420958042144775,-0.1967433989048004,-0.8046156167984009,0.0,0.0,0.8062324523925781,-0.9971985816955566
-0.2308592349290847,0.6990178823471069,-0.3468284010887146,-0.6090689301490784,-0.2354013323783874,-0.7731595039367676,0.0,0.0,0.8766984939575195,-0.8852739930152893
-0.2345633953809738,0.6860935091972351,-0.3340447247028351,-0.5806662440299988,-0.2724789083003998,-0.7415521144866943,0.0,0.0,0.7105810642242432,-0.7178006768226624
-0.2382110655307769,0.6741312742233276,-0.3296067416667938,-0.5386138558387756,-0.3086796402931213,-0.7240145802497864,0.0,0.0,0.5768799781799316,-0.7114162445068359
-0.2416547834873199,0.662555992603302,-0.3108741641044616,-0.5219662189483643,-0.3435656130313873,-0.6977204084396362,0.0,0.0,0.2025144100189209,-0.9647597670555116
-0.245084524154663,0.6510357856750488,-0.3114733099937439,-0.5198703408241272,-0.3767711222171783,-0.6641108393669128,0.0,0.0,0.4728659391403198,-0.9497948288917542
-0.2483952045440673,0.6395196318626404,-0.3015773296356201,-0.5199308395385742,-0.4082595407962799,-0.6297682523727417,0.0,0.0,0.5483973026275635,-0.959729790687561
-0.251660406589508,0.6281021237373352,-0.2989438474178314,-0.5156896114349365,-0.4380932152271271,-0.5966743230819702,0.0,0.0,0.5464138984680176,-0.9531673192977904
-0.2546604573726654,0.6173572540283203,-0.2743585705757141,-0.4858222603797912,-0.4662278890609741,-0.5626932382583618,0.0,0.0,0.1395378112792968,-0.97757488489151
-0.2573900818824768,0.6069847941398621,-0.24922676384449,-0.4691994488239288,-0.4926088452339172,-0.5276194214820862,0.0,0.0,0.6137557029724121,-0.9973737001419068
-0.2598911225795746,0.5974206328392029,-0.2282088100910186,-0.4331222176551819,-0.5172821879386902,-0.4934685230255127,0.0,0.0,0.7832170724868774,-0.9984978437423706
-0.2623956799507141,0.5880875587463379,-0.2302689105272293,-0.4226472675800323,-0.5403431057929993,-0.4612185359001159,0.0,0.0,0.5726819038391113,-0.9924161434173584
-0.2645110487937927,0.5793550610542297,-0.1932348757982254,-0.3955895602703094,-0.5615373849868774,-0.4238852858543396,0.0,0.0,0.8804454803466797,-0.9858859777450562
-0.2664224505424499,0.5712162852287292,-0.1744617521762848,-0.3688558936119079,-0.5810990333557129,-0.3912327289581299,0.0,0.0,0.6479302644729614,-0.9978106617927552
-0.2680479884147644,0.5636410117149353,-0.1475965082645416,-0.3433457016944885,-0.5988661050796509,-0.3553414940834045,0.0,0.0,0.7872898578643799,-0.997400164604187
-0.2692909240722656,0.556681752204895,-0.1110315918922424,-0.3154231607913971,-0.6147893667221069,-0.3184646964073181,0.0,0.0,0.3920775651931762,-0.9983124136924744
-0.2702142298221588,0.5499135851860046,-0.0807647705078125,-0.3063277900218963,-0.6288237571716309,-0.2806874513626098,0.0,0.0,-0.0126520991325378,-0.9997847080230712
-0.2711701989173889,0.5427990555763245,-0.0855896472930908,-0.3211128413677215,-0.641089141368866,-0.2453076541423797,0.0,0.0,0.3779618740081787,-0.997448205947876
-0.2718866467475891,0.5356670618057251,-0.0632446706295013,-0.3211981952190399,-0.6514720320701599,-0.2076582461595535,0.0,0.0,0.3404326438903808,-0.9779255390167236
-0.2722402215003967,0.5286259055137634,-0.028519183397293,-0.3164451718330383,-0.6599907279014587,-0.1703742444515228,0.0,0.0,0.1651523113250732,-0.9977583289146424
-0.2723627090454101,0.5214672088623047,-0.0068931416608393,-0.3209468722343445,-0.6666918992996216,-0.1340234130620956,0.0,0.0,-0.4102711081504822,-0.9990817904472352
-0.2725098133087158,0.51398104429245,-0.0109113911166787,-0.3347220420837402,-0.6714721918106079,-0.0956061035394668,0.0,0.0,0.0604511499404907,-0.9906165599822998
-0.2723581194877624,0.5067160129547119,0.0174784027040004,-0.3241203427314758,-0.6743879914283752,-0.0583166368305683,0.0,0.0,0.1706995964050293,-0.9906318783760072
-0.2718537747859955,0.4995760321617126,0.0512889511883258,-0.317789226770401,-0.6754663586616516,-0.0215674266219139,0.0,0.0,-0.1962249279022216,-0.9778989553451538
-0.2713680863380432,0.4920812845230102,0.0482628270983696,-0.3329344987869262,-0.6750773787498474,0.0077792122028768,0.0,0.0,-0.2418795228004455,-0.972736954689026
-0.2709120810031891,0.4842552542686462,0.0436958223581314,-0.3468103408813476,-0.6726738810539246,0.0480699017643928,0.0,0.0,-0.1099438071250915,-0.9807448983192444
-0.2704663276672363,0.4760934114456177,0.0414235442876815,-0.361082375049591,-0.6687025427818298,0.0794267132878303,0.0,0.0,-0.2406842708587646,-0.9734259247779846
-0.2700459361076355,0.4675983786582947,0.0373518019914627,-0.3751009106636047,-0.6628178954124451,0.1176925152540206,0.0,0.0,-0.3548465371131897,-0.9283029437065125
-0.2696537375450134,0.4587844908237457,0.0327794030308723,-0.3883967995643616,-0.6547691226005554,0.1609755158424377,0.0,0.0,0.0585513114929199,-0.9460569620132446
-0.2689556181430816,0.4501075744628906,0.0619262233376503,-0.3816425204277038,-0.6449884176254272,0.1956141144037246,0.0,0.0,-0.1264592409133911,-0.9278823137283324
-0.2682797908782959,0.4411016702651977,0.0580800883471965,-0.3955444395542145,-0.6332961916923523,0.2338446080684662,0.0,0.0,-0.2435958385467529,-0.9221981763839722
-0.2676289081573486,0.4317690730094909,0.0538688227534294,-0.4093623459339142,-0.6196150183677673,0.2736239433288574,0.0,0.0,-0.5615673661231995,-0.9038326144218444
-0.2670002579689026,0.4220938682556152,0.0500900633633136,-0.4240229427814483,-0.6042019724845886,0.3082607686519623,0.0,0.0,-0.5633667707443237,-0.5562015771865845
-0.2663751244544983,0.4120597839355469,0.0486535914242267,-0.4396810531616211,-0.587656557559967,0.3309088349342346,0.0,0.0,-0.3515894412994385,-0.3794074058532715
-0.2657109797000885,0.401622474193573,0.0526502020657062,-0.4578643441200256,-0.5714126825332642,0.3248772025108337,0.0,0.0,-0.314794659614563,-0.2679245471954345
-0.2650078237056732,0.3907819092273712,0.0566650107502937,-0.4760467708110809,-0.5554702281951904,0.3188492357730865,0.0,0.0,-0.2514294385910034,-0.2249484062194824
-0.26426562666893,0.37953782081604,0.0606964528560638,-0.4942283630371094,-0.539828896522522,0.3128264546394348,0.0,0.0,-0.167082667350769,-0.5324199199676514
-0.2635098993778229,0.3679181933403015,0.0614353641867637,-0.510873556137085,-0.5236219167709351,0.3241406679153442,0.0,0.0,-0.4508969187736511,-0.5136843323707581
-0.2627491950988769,0.3559301495552063,0.0610429123044014,-0.5271227359771729,-0.5065781474113464,0.3408749401569366,0.0,0.0,-0.2481592297554016,-0.4126795530319214
-0.2619491517543793,0.3435389101505279,0.0651120468974113,-0.5453063249588013,-0.4898344278335571,0.3348745703697204,0.0,0.0,-0.3900780081748962,-0.6180469393730164
-0.2611466944217682,0.3307745456695556,0.0644581839442253,-0.5618034601211548,-0.4722538590431213,0.3516112267971039,0.0,0.0,0.0580630302429199,-0.5292510986328125
-0.2601065039634704,0.3183421790599823,0.0873600393533706,-0.5469863414764404,-0.4538624882698059,0.3678275942802429,0.0,0.0,-0.1916201114654541,-0.2504357099533081
-0.2590265870094299,0.3055072724819183,0.0914569050073623,-0.5651729106903076,-0.4357692301273346,0.3618644475936889,0.0,0.0,0.4202257394790649,-0.8528086543083191
-0.2577312886714935,0.2927948832511902,0.1114083305001258,-0.5595020651817322,-0.4161207973957062,0.3929686248302459,0.0,0.0,0.4671908617019653,-0.7272791862487793
-0.2563357949256897,0.2805424928665161,0.1203232258558273,-0.5390255451202393,-0.3954542279243469,0.4133315980434418,0.0,0.0,-0.0587067008018493,-0.7581544518470764
-0.2549672126770019,0.2679288685321808,0.1159509047865867,-0.5549522042274475,-0.3731847703456878,0.4453892111778259,0.0,0.0,0.0525649785995483,-0.1492009758949279
-0.2534402906894684,0.2554234266281128,0.1319467574357986,-0.5505372881889343,-0.3512731790542602,0.4382316172122955,0.0,0.0,0.4696675539016723,-0.5655762553215027
-0.2517282962799072,0.2431946098804474,0.1493953764438629,-0.5383453369140625,-0.3284391462802887,0.4566803872585296,0.0,0.0,0.3921667337417602,0.1975700855255127
-0.2497742623090744,0.2309422791004181,0.1732275485992431,-0.5396794080734253,-0.305387943983078,0.4610248506069183,0.0,0.0,0.4144231081008911,0.2765825986862182
-0.2475244104862213,0.2190892845392227,0.2025485783815384,-0.5222534537315369,-0.2822408378124237,0.4629423022270202,0.0,0.0,0.3256634473800659,0.5000717639923096
-0.2449945956468582,0.2077469676733017,0.231614276766777,-0.5001234412193298,-0.2603412568569183,0.4379913806915283,0.0,0.0,0.0266907215118408,-0.3058182597160339
-0.242336705327034,0.1962691098451614,0.2443921267986297,-0.5064769387245178,-0.2385443598031997,0.4359381198883056,0.0,0.0,0.4011337757110595,-0.7854929566383362
