x_pos,y_pos,x_vel,y_vel,angle,ang_vel,leg_1,leg_2,main_booster,lat_booster
-0.001571750617586,1.4032626152038574,-0.1591683030128479,-0.3403352200984955,0.0017841288354247,0.0351950749754905,0.0,0.0,0.455168720890535,-0.6720089994881357
-0.003195381257683,1.3958725929260254,-0.1655345261096954,-0.3284537196159363,0.0049349358305335,0.0630227178335189,0.0,0.0,-0.7127772384440927,-0.689264184385501
-0.0049093244597315,1.3881148099899292,-0.1756293326616287,-0.3448077440261841,0.009120438247919,0.0837178453803062,0.0,0.0,-0.0283447610976212,0.8103516450485444
-0.0066203116439282,1.3799934387207031,-0.1740024089813232,-0.3609731793403625,0.0119905583560466,0.0574074909090995,0.0,0.0,0.5089659313949164,-0.710415427826797
-0.0083126071840524,1.372407078742981,-0.1737913340330124,-0.3372103273868561,0.0164997447282075,0.0901921242475509,0.0,0.0,0.7043895019048374,0.855876531751832
-0.009837913326919,1.365303635597229,-0.1556334793567657,-0.3157489895820617,0.0195715595036745,0.0614418610930442,0.0,0.0,-0.8817808189346126,0.9982508485460936
-0.011335277929902,1.3578402996063232,-0.150883287191391,-0.3317136764526367,0.0207052547484636,0.0226760022342205,0.0,0.0,-0.6015226615689797,0.6087504179575246
-0.0128203388303518,1.3500189781188965,-0.1480952203273773,-0.3476129174232483,0.0202965829521417,-0.0081742731854319,0.0,0.0,-0.7956633301427352,0.6642096433936323
-0.0143015859648585,1.3418443202972412,-0.1463559418916702,-0.3632898330688476,0.0185568034648895,-0.0347991324961185,0.0,0.0,0.8431593046124375,-0.8609930928505837
-0.0159134864807128,1.334526777267456,-0.1611180007457733,-0.3252268731594085,0.0184765849262475,-0.0016044483054429,0.0,0.0,-0.3856162923229884,-0.908293500681107
-0.0176336281001567,1.32684588432312,-0.1734417974948883,-0.3413877487182617,0.0198911000043153,0.0282928980886936,0.0,0.0,-0.6544907104559263,0.8368328331331707
-0.0193265918642282,1.3188036680221558,-0.1687999069690704,-0.3574220240116119,0.0194021873176097,-0.0097790965810418,0.0,0.0,-0.7931874144187137,0.6654365853636766
-0.0210020057857036,1.3104050159454346,-0.1653668880462646,-0.3732522130012512,0.0172573756426572,-0.0429001599550247,0.0,0.0,-0.2378352142195132,0.8128379574275375
-0.0226515773683786,1.3016387224197388,-0.1609229147434234,-0.3895708918571472,0.0132619207724928,-0.0799166113138198,0.0,0.0,0.2595768219740626,0.7707533011575659
-0.0241724010556936,1.2934651374816897,-0.1465912461280822,-0.363231360912323,0.0078293569386005,-0.1086611300706863,0.0,0.0,-0.4362820452990414,0.717754236794258
-0.0256712920963764,1.284922480583191,-0.1426305323839187,-0.3796567320823669,0.0006544103962369,-0.1435118615627288,0.0,0.0,-0.937904559217796,0.7453769615591288
-0.0271425247192382,1.2760274410247805,-0.1379571855068206,-0.3953519165515899,-0.0083994176238775,-0.1810931265354156,0.0,0.0,-0.9717343932902917,0.8367518859134433
-0.028576087206602,1.2667638063430786,-0.1320599168539047,-0.41181680560112,-0.0195708815008401,-0.2234494388103485,0.0,0.0,-0.7019554839216327,0.7526529270462327
-0.0299840923398733,1.2571454048156738,-0.1276857554912567,-0.42770916223526,-0.0325432978570461,-0.2594719529151916,0.0,0.0,-0.6692638790561354,-0.6368422943990326
-0.0314922332763671,1.2471693754196167,-0.1390797197818756,-0.4436667859554291,-0.0441499948501586,-0.2321548759937286,0.0,0.0,0.2088639605705113,0.9939671450200616
-0.0328301414847373,1.2376530170440674,-0.1200057491660118,-0.4234127700328827,-0.0577862635254859,-0.2727501690387726,0.0,0.0,0.0389128251648331,-0.9225043489509968
-0.0342580787837505,1.228193759918213,-0.1308071315288543,-0.4209159314632416,-0.0696633532643318,-0.2375630587339401,0.0,0.0,-0.725499653566855,0.8845014154209765
-0.0356428138911724,1.218364953994751,-0.1242559403181076,-0.4375641047954559,-0.0837576389312744,-0.2819109559059143,0.0,0.0,0.6617446046776665,0.748378831850735
-0.0369067192077636,1.2086211442947388,-0.1107585653662681,-0.4340119957923889,-0.0992687344551086,-0.310249775648117,0.0,0.0,-0.1186113805522175,0.8109752246322932
-0.0381617546081543,1.1985135078430176,-0.1085757762193679,-0.4504311382770538,-0.1160950511693954,-0.3365565836429596,0.0,0.0,-0.9169284108767284,0.8224684444503654
-0.0394085869193077,1.1880227327346802,-0.1064442172646522,-0.4677750170230865,-0.1342477798461914,-0.3630542457103729,0.0,0.0,-0.7574946003719021,-0.9748488657130846
-0.0407699570059776,1.1771955490112305,-0.1197905391454696,-0.4827601313591003,-0.1505499184131622,-0.3260425925254822,0.0,0.0,0.5447993839337655,0.6242983445407544
-0.0421360023319721,1.1671801805496216,-0.1186623349785804,-0.4470395445823669,-0.1684819906949997,-0.3586413264274597,0.0,0.0,-0.782855002555672,-0.7351962135385615
-0.0436086654663085,1.156830906867981,-0.1310790479183197,-0.4618913531303406,-0.184711143374443,-0.324583351612091,0.0,0.0,-0.8731928039194823,-0.8513321964491224
-0.0451871864497661,1.1461389064788818,-0.1433698832988739,-0.4770664572715759,-0.199270099401474,-0.2911787033081054,0.0,0.0,-0.90321590850787,-0.7562135665525254
-0.0468575470149517,1.1351134777069092,-0.1539634019136428,-0.4918365776538849,-0.2124486267566681,-0.2635706067085266,0.0,0.0,0.7773141653476734,0.6778361472150154
-0.0485008247196674,1.1244280338287354,-0.1496343314647674,-0.4770878553390503,-0.2273049056529998,-0.2971256077289581,0.0,0.0,0.4250021447241152,-0.9186315085435236
-0.0501711852848529,1.1144545078277588,-0.1540539115667343,-0.445330262184143,-0.2404809743165969,-0.2635220289230346,0.0,0.0,-0.6853841559046698,0.8908000231636242
-0.0518157966434955,1.1040916442871094,-0.1498207449913025,-0.4630352258682251,-0.2553759813308716,-0.2979007661342621,0.0,0.0,0.6767604229508966,-0.7435758099478138
-0.0533713325858116,1.0943105220794678,-0.1423813104629516,-0.4370651245117187,-0.2688369154930115,-0.2692187130451202,0.0,0.0,0.951959649594296,-0.7619613851174747
-0.054755974560976,1.0854823589324951,-0.1267925202846527,-0.3945501744747162,-0.2808050811290741,-0.2393626272678375,0.0,0.0,-0.7175545002113597,-0.9918232300012292
-0.0562511458992958,1.076323390007019,-0.1398190557956695,-0.4089646339416504,-0.2907887995243072,-0.1996743977069854,0.0,0.0,-0.0479097409511886,-0.6260119684140146
-0.0578202232718467,1.066828727722168,-0.1482668817043304,-0.4237395524978637,-0.2996889054775238,-0.1780022382736206,0.0,0.0,-0.4601782579011255,0.9786867120073331
-0.0593475326895713,1.0569521188735962,-0.1422317922115326,-0.4411586225032806,-0.3105534315109253,-0.2172910869121551,0.0,0.0,-0.6504796818014076,0.7487073741199085
-0.0608441345393657,1.0466885566711426,-0.1375614404678344,-0.4588003158569336,-0.3231305480003357,-0.2515420913696289,0.0,0.0,-0.5120991494483556,-0.8226062138854585
-0.0624388679862022,1.036108136177063,-0.1492069810628891,-0.4725697934627533,-0.3338409662246704,-0.2142080068588256,0.0,0.0,-0.6585251688957214,-0.9201856255531312
-0.0641150474548339,1.0251940488815308,-0.1586845517158508,-0.4871647655963897,-0.343177318572998,-0.1867272704839706,0.0,0.0,-0.978565275669098,-0.813527524471283
-0.0658692345023155,1.0139381885528564,-0.1677305400371551,-0.5021141171455383,-0.3512479662895202,-0.1614135652780532,0.0,0.0,-0.0533755421638488,-0.9170169830322266
-0.0677049607038497,1.002350926399231,-0.177275612950325,-0.516538679599762,-0.3578732013702392,-0.1325045526027679,0.0,0.0,0.300646424293518,-0.8497868180274963
-0.0695822685956955,0.9907735586166382,-0.1829398274421692,-0.515754759311676,-0.362920343875885,-0.1009430885314941,0.0,0.0,0.364844799041748,-0.8377422094345093
-0.0714075118303299,0.979226291179657,-0.1792935878038406,-0.5140307545661926,-0.3663378953933716,-0.0683509036898613,0.0,0.0,0.1024596691131591,-0.9672536849975586
-0.0731745734810829,0.96774560213089,-0.1752194911241531,-0.5106409788131714,-0.3679133951663971,-0.0315101072192192,0.0,0.0,0.66692054271698,-0.9398965835571288
-0.0748446434736251,0.9571987390518188,-0.1670807898044586,-0.4687308669090271,-0.3678358197212219,0.0015517025021836,0.0,0.0,-0.1607091426849365,-0.938388466835022
-0.0766160935163497,0.9463467001914978,-0.1793303191661834,-0.4817458689212799,-0.3655226230621338,0.0462641008198261,0.0,0.0,0.6151108741760254,-0.7627924084663391
-0.0783060044050216,0.9358726739883424,-0.172500804066658,-0.4646262526512146,-0.3618150949478149,0.074150450527668,0.0,0.0,0.6439639329910278,-0.5692167282104492
-0.0797104835510253,0.9257769584655762,-0.1453135907649994,-0.4474856555461883,-0.3566881716251373,0.1025377288460731,0.0,0.0,0.1060171127319336,-0.8409621119499207
-0.0810616463422775,0.9160768389701844,-0.141498401761055,-0.4295454621315002,-0.3499741554260254,0.134280115365982,0.0,0.0,0.2507309913635254,-0.7720494270324707
-0.082282543182373,0.9064695239067078,-0.1299553960561752,-0.4251065552234649,-0.3417200446128845,0.1650820225477218,0.0,0.0,0.2836129665374756,-0.474544882774353
-0.0833075493574142,0.897376298904419,-0.1102718487381935,-0.402323842048645,-0.333588570356369,0.1626295000314712,0.0,0.0,-0.1559422016143798,-0.5603315830230713
-0.0843776687979698,0.887937068939209,-0.1154854074120521,-0.41758993268013,-0.3247318863868713,0.1771328151226043,0.0,0.0,0.3570871353149414,-0.0057215094566345
-0.0854105949401855,0.8787251710891724,-0.1113347187638282,-0.4076371490955353,-0.316373735666275,0.1671630889177322,0.0,0.0,-0.5311295390129089,-0.2263104319572448
-0.0864547714591026,0.8691529035568237,-0.112345814704895,-0.4237293004989624,-0.3081515431404114,0.1644440293312072,0.0,0.0,-0.3325971961021423,-0.5136191844940186
-0.0875385254621505,0.8592362999916077,-0.1169670224189758,-0.4389374852180481,-0.2992571294307709,0.1778875887393951,0.0,0.0,-0.4247001409530639,0.4527199268341064
-0.0886316299438476,0.8489595055580139,-0.1177883893251419,-0.455030232667923,-0.2904995679855346,0.1751510947942733,0.0,0.0,-0.5856037735939026,0.1183066368103027
-0.0897332206368446,0.8383222222328186,-0.1185179352760315,-0.4711227118968963,-0.2818791270256042,0.1724084913730621,0.0,0.0,-0.7738596200942993,-0.1625938415527343
-0.0908422470092773,0.8273245692253113,-0.1191581115126609,-0.487214982509613,-0.2733960151672363,0.1696615666151046,0.0,0.0,-0.8632116913795471,0.1219725608825683
-0.0919578522443771,0.8159664869308472,-0.1197114959359169,-0.5033069849014282,-0.2650504112243652,0.1669121086597442,0.0,0.0,-0.7501745820045471,0.5419094562530518
-0.0930299758911132,0.8042261004447937,-0.1139434948563575,-0.5205904245376587,-0.2581658065319061,0.1376921683549881,0.0,0.0,-0.7860087156295776,0.2821909189224243
-0.0941070541739463,0.79212486743927,-0.1143310666084289,-0.536680281162262,-0.2514186203479767,0.1349437087774276,0.0,0.0,-0.8014249801635742,0.0825643539428711
-0.0951886177062988,0.7796629667282104,-0.1146405339241027,-0.5527698993682861,-0.2448086738586425,0.132198616862297,0.0,0.0,-0.9371500611305236,0.0418057441711425
-0.0962737053632736,0.7668401598930359,-0.1148749813437461,-0.5688592791557312,-0.2383357435464859,0.1294590085744857,0.0,0.0,-0.705869734287262,-0.0355458855628967
-0.0973616614937782,0.7536563873291016,-0.1150376424193382,-0.5849484801292419,-0.2319993823766708,0.1267271190881729,0.0,0.0,-0.6287565231323242,-0.4742062091827392
-0.0984518080949783,0.7401115894317627,-0.1151318177580833,-0.6010373830795288,-0.2257991135120391,0.1240052208304405,0.0,0.0,-0.95570570230484,0.1757434606552124
-0.0995434746146202,0.7262058854103088,-0.1151608973741531,-0.6171260476112366,-0.219734326004982,0.1212958097457885,0.0,0.0,-0.9514249563217164,-0.3367362022399902
-0.1006360054016113,0.7119390964508057,-0.1151283159852027,-0.63321453332901,-0.2138042747974395,0.118601307272911,0.0,0.0,-0.8592580556869507,-0.4789394736289978
-0.1017290130257606,0.6973115801811218,-0.1150375977158546,-0.6493027806282043,-0.2080080509185791,0.1159243732690811,0.0,0.0,-0.7254863977432251,-0.6168028116226196
-0.102866843342781,0.6823382377624512,-0.1205643266439437,-0.6645402312278748,-0.2011668384075164,0.136824145913124,0.0,0.0,-0.7876163125038147,0.4138884544372558
-0.10400390625,0.6670040488243103,-0.1203684583306312,-0.680629312992096,-0.1944573074579239,0.1341904103755951,0.0,0.0,-0.1483933925628662,0.4749841690063476
-0.1051397323608398,0.6513088941574097,-0.1201252490282058,-0.6967180967330933,-0.1878781467676162,0.1315827965736389,0.0,0.0,-0.5611132979393005,0.5893361568450928
-0.1062313094735145,0.6352357864379883,-0.1144668832421302,-0.7136957049369812,-0.1825475245714187,0.1066121906042099,0.0,0.0,-0.1406612992286682,0.3556879758834839
-0.1073207855224609,0.6188015341758728,-0.1141397133469581,-0.7297829985618591,-0.1773442327976226,0.1040663719177246,0.0,0.0,0.6757149696350098,0.4233467578887939
-0.1083787903189659,0.6025227904319763,-0.1107086390256881,-0.7229194045066833,-0.1724146753549575,0.0985909923911094,0.0,0.0,0.9097632169723512,0.3106358051300049
-0.1092861145734787,0.5872402191162109,-0.0954877883195877,-0.6786819696426392,-0.1676534563302993,0.0952241271734237,0.0,0.0,-0.3942193984985351,0.3736903667449951
-0.1101903915405273,0.5715963244438171,-0.0950630158185958,-0.6947686076164246,-0.1630136370658874,0.0927963703870773,0.0,0.0,0.8503203392028809,0.4701932668685913
-0.1110667213797569,0.5569764971733093,-0.0915744826197624,-0.6493431925773621,-0.1590742468833923,0.0787878111004829,0.0,0.0,-0.8017109036445618,0.4957219362258911
-0.1119395270943641,0.5419952869415283,-0.091103196144104,-0.6654290556907654,-0.1552513688802719,0.0764576569199562,0.0,0.0,0.0783592462539672,-0.0284525156021118
-0.1127027496695518,0.5274110436439514,-0.0801547616720199,-0.6477898359298706,-0.1514204889535904,0.0766177028417587,0.0,0.0,-0.2057615518569946,0.0993666648864746
-0.1134619712829589,0.5124655365943909,-0.0796518772840499,-0.6638755202293396,-0.1477004289627075,0.0744014531373977,0.0,0.0,0.7251100540161133,-0.2061052322387695
-0.1141695976257324,0.4982210397720337,-0.0741171166300773,-0.6327559351921082,-0.1443528085947036,0.0669523701071739,0.0,0.0,-0.2584030032157898,0.3615890741348266
-0.1148730292916297,0.4836151003837585,-0.0735972374677658,-0.648841142654419,-0.141109436750412,0.0648675858974456,0.0,0.0,0.4797403812408447,-0.2610859870910644
-0.115421675145626,0.4694050550460815,-0.0583738274872303,-0.6312301754951477,-0.1376054584980011,0.0700799450278282,0.0,0.0,0.5871075391769409,-0.2596852779388428
-0.1158983260393142,0.4553173780441284,-0.0511900298297405,-0.6257991194725037,-0.1340928971767425,0.0702512264251709,0.0,0.0,0.693838357925415,-0.5470940470695496
-0.1162578612565994,0.4414660930633545,-0.0407579727470874,-0.6151857376098633,-0.1293103098869323,0.0956516116857528,0.0,0.0,0.7566263675689697,0.27735435962677
-0.1163797378540039,0.4281264245510101,-0.017630336806178,-0.5924139618873596,-0.123892456293106,0.1083571165800094,0.0,0.0,-0.0532147884368896,0.8404525518417358
-0.1164167374372482,0.4144036769866943,-0.006984126754105,-0.6096315383911133,-0.1206276193261146,0.0652967020869255,0.0,0.0,0.8813037872314453,0.116334319114685
-0.1163531318306922,0.4015943706035614,0.0031874156557023,-0.5690498352050781,-0.1174714490771293,0.0631237477064132,0.0,0.0,0.641198992729187,0.1550360918045044
-0.1161666885018348,0.389540433883667,0.0153981428593397,-0.5354744791984558,-0.1142467781901359,0.0644935220479965,0.0,0.0,0.2847721576690674,-0.0169185996055603
-0.1158210784196853,0.3778815567493438,0.0309303365647792,-0.5179033875465393,-0.1106424182653427,0.0720871165394783,0.0,0.0,0.1663868427276611,-0.3792389631271362
-0.1153757125139236,0.3661926984786987,0.0406424812972545,-0.5192176699638367,-0.1067713573575019,0.0774213373661041,0.0,0.0,-0.2870208024978637,-0.0096688270568847
-0.1149269118905067,0.3541423082351684,0.0410365052521228,-0.5353024005889893,-0.102957047522068,0.0762863308191299,0.0,0.0,0.6218366622924805,0.3160510063171386
-0.1143052130937576,0.3429813086986542,0.0579845085740089,-0.495764821767807,-0.0988091006875038,0.0829589888453483,0.0,0.0,-0.0928976535797119,-0.3802335262298584
-0.1136806458234787,0.3314585983753204,0.0583139955997467,-0.5118497014045715,-0.0947054475545883,0.0820731967687606,0.0,0.0,0.4130113124847412,0.4446576833724975
-0.113095186650753,0.320605456829071,0.054944209754467,-0.482140451669693,-0.0911318063735961,0.0714726895093917,0.0,0.0,-0.0278270244598388,-0.0812669992446899
-0.1125075370073318,0.3093906044960022,0.0551973767578601,-0.4982247948646545,-0.0875891372561454,0.0708535462617874,0.0,0.0,0.6511672735214233,0.575265645980835
-0.1118639931082725,0.2989401519298553,0.0620987527072429,-0.4643338024616241,-0.0853610932826995,0.0445609092712402,0.0,0.0,-0.3731354475021362,0.3183463811874389
-0.1112190261483192,0.2881278991699219,0.0622644200921058,-0.4804173707962036,-0.0831499397754669,0.0442233420908451,0.0,0.0,-0.0224372744560241,-0.074626088142395
-0.1105730086565017,0.2769539058208465,0.0623823292553424,-0.4965009093284607,-0.0809483900666236,0.0440311506390571,0.0,0.0,0.7061460018157959,0.158511996269226
-0.1099961251020431,0.2663612365722656,0.0560283362865448,-0.4706968367099762,-0.0793063715100288,0.0328403674066066,0.0,0.0,0.2965465784072876,-0.5100998878479004
-0.109554573893547,0.2560402452945709,0.0417636036872863,-0.4585866630077362,-0.0769357681274414,0.0474120564758777,0.0,0.0,0.1534844636917114,0.6404944658279419
-0.1089413613080978,0.2460961192846298,0.0600859150290489,-0.4418975412845611,-0.0757093280553817,0.0245290137827396,0.0,0.0,-0.1575862765312194,-0.2011597752571106
-0.1083289161324501,0.2357901483774185,0.059988934546709,-0.4579806327819824,-0.0744624435901641,0.0249376539140939,0.0,0.0,0.6078133583068848,-0.5179771780967712
-0.1075524315237999,0.2262246757745742,0.0749024227261543,-0.4249992370605469,-0.0717505365610122,0.0542382672429084,0.0,0.0,-0.3567434549331665,-0.555826723575592
-0.1068231612443924,0.2163069397211074,0.0689931735396385,-0.4406040012836456,-0.0678529664874076,0.0779510587453842,0.0,0.0,0.5491468906402588,0.1878864765167236
-0.1059083938598632,0.2072130292654037,0.0868713408708572,-0.4039717614650726,-0.0632933676242828,0.0911919400095939,0.0,0.0,-0.4700140953063965,0.7542909383773804
-0.1049294471740722,0.1977511197328567,0.0949494540691375,-0.4204091429710388,-0.0603748671710491,0.0583699271082878,0.0,0.0,-0.4582023620605469,-0.4497618079185486
-0.1039539352059364,0.1879273056983947,0.0945392251014709,-0.4364926218986511,-0.057398285716772,0.0595317408442497,0.0,0.0,0.206923246383667,-0.2214335799217224
-0.1029052734375,0.1785995811223983,0.1015813574194908,-0.4144449532032013,-0.0541514083743095,0.064937874674797,0.0,0.0,-0.134434163570404,-0.9574422836303712
-0.1019269973039627,0.1689106523990631,0.0927955731749534,-0.4304433465003967,-0.049182578921318,0.0993766859173774,0.0,0.0,0.2943463325500488,0.3704869747161865
-0.1010260581970214,0.1595929414033889,0.0854407176375389,-0.4139741361141205,-0.0445775687694549,0.0921000614762306,0.0,0.0,0.5730490684509277,0.2658779621124267
-0.1002312675118446,0.1506561785936355,0.0753030851483345,-0.3970703482627868,-0.0404517389833927,0.0825162902474403,0.0,0.0,0.5216261148452759,-0.2755593657493591
-0.0994419082999229,0.142137125134468,0.0747589021921157,-0.3785189688205719,-0.0363249666988849,0.0825354382395744,0.0,0.0,-0.0897256731986999,0.4496468305587768
-0.098659798502922,0.1332563757896423,0.0739308148622512,-0.3946031630039215,-0.0320991277694702,0.0845168232917785,0.0,0.0,0.6249039173126221,0.6352901458740234
-0.0976849570870399,0.1245291829109191,0.0940633565187454,-0.3878054022789001,-0.0287124011665582,0.0677344501018524,0.0,0.0,0.7233710289001465,-0.7122271656990051
-0.096643641591072,0.1165105924010276,0.0989090502262115,-0.3562894165515899,-0.0235568117350339,0.1031116843223571,0.0,0.0,0.1559040546417236,0.0823367834091186
-0.0955807715654373,0.1089762300252914,0.1008665338158607,-0.334787368774414,-0.0182035099714994,0.1070659756660461,0.0,0.0,-0.3823826313018799,0.5936768054962158
