x_pos,y_pos,x_vel,y_vel,angle,ang_vel,leg_1,leg_2,main_booster,lat_booster
-0.0014570236671715,1.4034370183944702,-0.1474120020866394,-0.3325861990451813,0.0015262938104569,0.0300902761518955,0.0,0.0,-0.4240150451660156,0.7968649864196777
-0.0027777671348303,1.3957856893539429,-0.1316460072994232,-0.3400581181049347,0.0011006561107933,-0.0085129868239164,0.0,0.0,-0.0198189616203308,0.6749575138092041
-0.0039638518355786,1.3879414796829224,-0.116320863366127,-0.3486294448375702,-0.0011570004280656,-0.0451571233570575,0.0,0.0,-0.3339653015136719,0.2185602188110351
-0.0050786016508936,1.3799097537994385,-0.1089841574430465,-0.3569690883159637,-0.0036169744562357,-0.0492043383419513,0.0,0.0,0.0134543180465698,-0.2381924986839294
-0.0060402872040867,1.3722902536392212,-0.093846395611763,-0.3386557996273041,-0.0059018465690314,-0.0457022413611412,0.0,0.0,-0.367293119430542,0.4742414951324463
-0.0069280625320971,1.364482879638672,-0.0862645730376243,-0.3469970524311065,-0.0083909938111901,-0.0497876033186912,0.0,0.0,-0.4016689658164978,-0.2559566497802734
-0.0077409744262695,1.3564883470535278,-0.0785697549581527,-0.3553317487239837,-0.011084415949881,-0.053873635828495,0.0,0.0,-0.723214328289032,-0.6338816285133362
-0.0085155488923192,1.348308801651001,-0.0754777044057846,-0.3635516464710235,-0.0130381332710385,-0.0390776917338371,0.0,0.0,-0.6531174778938293,-0.4330025911331177
-0.0092131616547703,1.3399417400360107,-0.0675798207521438,-0.3718879818916321,-0.0151974605396389,-0.0431904830038547,0.0,0.0,-0.1499709486961364,-0.7007161974906921
-0.0098882671445608,1.3313928842544556,-0.066516175866127,-0.3799599409103393,-0.0161716919392347,-0.0194869861006736,0.0,0.0,-0.6559534072875977,-0.4841604828834533
-0.0104846004396677,1.322656512260437,-0.0584406442940235,-0.3882962465286255,-0.0173522178083658,-0.0236127246171236,0.0,0.0,-0.9326149821281432,-0.3049800395965576
-0.0110013959929347,1.3137325048446655,-0.0502824075520038,-0.3966326415538788,-0.0187380723655223,-0.0277196075767278,0.0,0.0,-0.8409233093261719,-0.5820727348327637
-0.011473941616714,1.304625153541565,-0.0465560816228389,-0.4047807157039642,-0.0194244366139173,-0.0137286810204386,0.0,0.0,-0.8249039649963379,-0.4733814001083374
-0.0118655208498239,1.295330286026001,-0.0382512472569942,-0.4131171107292175,-0.0203165188431739,-0.0178433619439601,0.0,0.0,-0.8490680456161499,-0.0497874617576599
-0.0121754650026559,1.2858479022979736,-0.0298787467181682,-0.4214536249637604,-0.0214133020490407,-0.0219377540051937,0.0,0.0,-0.6403201818466187,-0.7703922986984253
-0.012452888302505,1.2761706113815308,-0.0276948511600494,-0.4301031529903412,-0.0214644633233547,-0.0010234286310151,0.0,0.0,-0.8231101036071777,-0.8328308463096619
-0.0126980785280466,1.2663172483444214,-0.0255514048039913,-0.4379170536994934,-0.0204442087560892,0.0204070731997489,0.0,0.0,-0.8244365453720093,-0.7248470783233643
-0.0129035953432321,1.256271481513977,-0.022500704973936,-0.4464530050754547,-0.0185289662331342,0.038308672606945,0.0,0.0,-0.8631033301353455,-0.8808450102806091
-0.0130836488679051,1.2460482120513916,-0.0212214738130569,-0.4543299376964569,-0.015348550863564,0.0636141970753669,0.0,0.0,-0.8985100388526917,-0.0840282440185546
-0.0131794931367039,0.0,-0.0125895785167813,-0.462667167186737,-0.0123697640374302,0.0595809631049633,0.0,0.0,-0.8431436419487,-0.6677546501159668
-0.0132321361452341,1.2250452041625977,-0.0091276559978723,-0.4707445204257965,-0.008544735610485,0.0765072107315063,0.0,0.0,-0.8138464093208313,0.4927411079406738
-0.0131995202973485,1.2142654657363892,-0.000414419628214,-0.4790821969509125,-0.0049185128882527,0.072531059384346,0.0,0.0,-0.8826242685317993,-0.3722507953643799
-0.0130815505981445,1.2032984495162964,0.0083366390317678,-0.4874196946620941,-0.0014885405544191,0.0686052590608596,0.0,0.0,-0.9150857329368592,-0.3891041278839111
-0.0128776552155613,1.1921439170837402,0.0171221755445003,-0.4957571029663086,0.0017470278544351,0.0647166967391967,0.0,0.0,-0.7737776041030884,0.4915554523468017
-0.012587547302246,1.1808019876480105,0.0259394887834787,-0.5040943622589111,0.0047904765233397,0.0608745291829109,0.0,0.0,-0.9269973635673524,-0.0835505723953247
-0.012210750952363,1.1692509651184082,0.0347931534051895,-0.5133852362632751,0.0076447525061666,0.0570852570235729,0.0,0.0,-0.8931165933609009,-0.3923336267471313
-0.0117468833923339,1.157512664794922,0.0436738319694995,,0.0103134959936141,0.0533750839531421,0.0,0.0,-0.8982155323028564,-0.3393478393554687
-0.0111959455534815,1.1455869674682615,0.0525777712464332,-0.5300546884536743,0.0128005603328347,0.0497412979602813,0.0,0.0,-0.82218998670578,0.347981333732605
-0.0105575565248727,1.1334737539291382,0.0615026764571666,-0.5383892059326172,0.0151100670918822,0.0461899004876613,0.0,0.0,-0.8854478597640991,-0.5012373328208923
-0.0098724365234375,1.1211700439453125,0.0652983412146568,-0.5468595027923584,0.0182780735194683,0.0633600354194641,0.0,0.0,-0.8869777321815491,0.2719862461090088
-0.0090994834899902,1.108679175376892,0.0742586702108383,-0.5551943182945251,0.0212777461856603,0.0599933452904224,0.0,0.0,-0.9634114503860474,0.1246620416641235
-0.008238410577178,1.0960007905960083,0.0832336097955703,-0.5635289549827576,0.024114191532135,0.0567290373146534,0.0,0.0,-0.7877707481384277,-0.0588310360908508
-0.0072890282608568,1.0831348896026611,0.0922211855649948,-0.5718634724617004,0.026792898774147,0.0535743050277233,0.0,0.0,-0.9198501706123352,-0.1002613306045532
-0.006251239683479,1.0700814723968506,0.1012194752693176,-0.5801979899406433,0.0293197054415941,0.0505361966788768,0.0,0.0,-0.9200202822685242,0.0177674293518066
-0.0051248548552393,1.0568406581878662,0.1102266311645507,-0.5885323882102966,0.0317007899284362,0.0476218685507774,0.0,0.0,-0.9037359952926636,-0.8953551650047302
-0.0039786337874829,1.0434157848358154,0.1106093972921371,-0.5967508554458618,0.0356690101325511,0.0793640464544296,0.0,0.0,-0.84897381067276,-0.7859735488891602
-0.0028081894852221,1.0297963619232178,0.1114992350339889,-0.6054583191871643,0.0411369763314724,0.1093595176935195,0.0,0.0,-0.8052118420600891,-0.4897079467773437
-0.0015488624339923,1.0159893035888672,0.1205221265554428,-0.6137946844100952,0.0464798808097839,0.1068582087755203,0.0,0.0,-0.9098591208457948,-0.2024732232093811
-0.0002005577116506,1.001995325088501,0.1295466870069503,-0.622130811214447,0.0517052933573722,0.1045080795884132,0.0,0.0,-0.8613806366920471,-0.868304431438446
0.0011713982094079,0.9878100752830504,0.1303613483905792,-0.630700945854187,0.0584675520658493,0.1352453827857971,0.0,0.0,-0.7322711944580078,-0.914250671863556
0.002547264099121,0.9734384417533876,0.1286851018667221,-0.6391130089759827,0.0672688633203506,0.1760264337062835,0.0,0.0,-0.9070415496826172,-0.2236157655715942
0.0040123937651515,0.9588801264762878,0.1377045065164566,-0.6474531292915344,0.0759770348668098,0.174163281917572,0.0,0.0,-0.7433581948280334,-0.763124942779541
0.0055166245438158,0.9441213011741638,0.1404242366552353,-0.6564886569976807,0.0858775302767753,0.1980101913213729,0.0,0.0,-0.9528085589408876,-0.3656853437423706
0.0071101188659667,0.929176151752472,0.1494312584400177,-0.6648305654525757,0.0957022532820701,0.1964945197105407,0.0,0.0,-0.9188684821128844,-0.0184798240661621
0.008792782202363,0.9140446186065674,0.1584292352199554,-0.6731722950935364,0.1054601073265075,0.1951572746038437,0.0,0.0,-0.835878849029541,-0.537226676940918
0.0105259893462061,0.8987152576446533,0.1625540554523468,-0.6821019649505615,0.1161518618464469,0.2138350456953048,0.0,0.0,-0.5346741676330566,0.1652731895446777
0.0123482700437307,0.8831998109817505,0.1715282946825027,-0.6904451847076416,0.1267947852611541,0.2128586322069168,0.0,0.0,-0.4182032942771911,0.2092071771621704
0.0142596242949366,0.8674983382225037,0.1804874837398529,-0.6987884640693665,0.1373979449272155,0.2120630741119384,0.0,0.0,-0.8069048523902893,0.1744254827499389
0.0162598602473735,0.8516108393669128,0.1894294470548629,-0.7071316242218018,0.1479703187942505,0.2114473581314087,0.0,0.0,-0.3449772596359253,0.2540525197982788
0.0183490756899118,0.8355371356010437,0.1983519345521927,-0.7154748439788818,0.1585208028554916,0.2110094279050827,0.0,0.0,-0.1946374177932739,0.9729876518249512
0.0206210128962993,0.8192992806434631,0.2190701514482498,-0.7225703597068787,0.1666467040777206,0.1625184863805771,0.0,0.0,-0.683168888092041,0.6846024990081787
0.0230292323976755,0.8028913140296936,0.2339593172073364,-0.7300297617912292,0.1735251396894455,0.1375687569379806,0.0,0.0,-0.7726516723632812,-0.0223935842514038
0.025525951758027,0.786296546459198,0.2428071051836013,-0.7383679151535034,0.1804073303937912,0.1376436203718185,0.0,0.0,-0.7041929364204407,0.3419104814529419
0.0281108859926462,0.7695147395133972,0.2516248822212219,-0.7467061877250671,0.1873013079166412,0.1378794610500335,0.0,0.0,-0.6914651393890381,-0.6404447555541992
0.0307466499507427,0.7525333166122437,0.2557362914085388,-0.7557442784309387,0.1951836496591568,0.1576464176177978,0.0,0.0,-0.7064055800437927,0.2907419204711914
0.0334699638187885,0.7353651523590088,0.2644849717617035,-0.7640841007232666,0.2030930072069168,0.1581870168447494,0.0,0.0,-0.5902808308601379,0.17183518409729
0.0362806320190429,0.7180103659629822,0.273193895816803,-0.772424042224884,0.2110365629196167,0.158870980143547,0.0,0.0,-0.3573600053787231,0.7671346664428711
0.039250660687685,0.7004953026771545,0.2909741103649139,-0.7793207764625549,0.2171219587326049,0.1217078194022178,0.0,0.0,-0.9715105891227722,-0.7836183309555054
0.0422530174255371,0.682783842086792,0.2928187251091003,-0.7882875204086304,0.2246303409337997,0.15016770362854,0.0,0.0,-0.8995782136917114,-0.3110136985778808
0.0453413948416709,0.6648855805397034,0.3013841509819031,-0.796627402305603,0.2321924567222595,0.1512423455715179,0.0,0.0,-0.5379053354263306,-0.6918623447418213
0.0484679229557514,0.6467780470848083,0.3038651943206787,-0.8061919808387756,0.24109548330307,0.1780605763196945,0.0,0.0,-0.5240735411643982,0.2643502950668335
0.0516792312264442,0.6284841895103455,0.3123126626014709,-0.8145340085029602,0.2500636577606201,0.1793635785579681,0.0,0.0,-0.0398899316787719,0.2762361764907837
0.0549748428165912,0.6100041270256042,0.320692777633667,-0.8228762745857239,0.2591022551059723,0.1807723343372345,0.0,0.0,0.42062509059906,0.4402713775634765
0.0582386031746864,0.5921096801757812,0.3173643350601196,-0.7969242930412292,0.2683099806308746,0.1841550022363662,0.0,0.0,0.3831713199615478,0.4795724153518677
0.0615026466548442,0.5745171904563904,0.3172975480556488,-0.7835842370986938,0.277628093957901,0.1863630414009094,0.0,0.0,0.6062713861465454,0.7124354839324951
0.0646181106567382,0.5575364828109741,0.3040587902069092,-0.756137490272522,0.285325825214386,0.1539548337459564,0.0,0.0,0.1769362688064575,0.1443207263946533
0.0676578506827354,0.5412533283233643,0.2963444590568542,-0.7252044081687927,0.2931831181049347,0.1571460366249084,0.0,0.0,-0.0442013144493103,0.2880833148956299
0.0707777962088584,0.5247838497161865,0.3042868375778198,-0.7335458993911743,0.3011331856250763,0.1590021699666977,0.0,0.0,0.8230648040771484,0.6234203577041626
0.0737732872366905,0.5095203518867493,0.2929349541664123,-0.6797643303871155,0.3079849481582641,0.1370348930358886,0.0,0.0,-0.2027927041053772,0.8211872577667236
0.0768995285034179,0.494091659784317,0.3072765469551086,-0.686865508556366,0.3135293424129486,0.1108880192041397,0.0,0.0,0.0961802005767822,0.2185567617416381
0.0799058899283409,0.4790891110897064,0.2954753935337066,-0.6679076552391052,0.3188955783843994,0.1073248237371444,0.0,0.0,0.669893741607666,0.6212981939315796
0.0828684791922569,0.4648356437683105,0.2921428084373474,-0.6343995928764343,0.3231789767742157,0.0856671780347824,0.0,0.0,-0.0404033064842224,-0.6555517911911011
0.0858439430594444,0.450372576713562,0.2917720377445221,-0.6441028714179993,0.3291890621185303,0.1202015057206153,0.0,0.0,0.3563923835754394,0.5751779079437256
0.0888434424996376,0.4364497661590576,0.2950717806816101,-0.6199117302894592,0.3342725038528442,0.1016695722937583,0.0,0.0,0.5123424530029297,-0.0080653429031372
0.0917666405439376,0.4228323101997375,0.2874836027622223,-0.6063488125801086,0.3393294215202331,0.1011380702257156,0.0,0.0,-0.2180148363113403,0.8026756048202515
0.0948265045881271,0.4090552031993866,0.3027824759483337,-0.6130746603012085,0.3426866233348846,0.0671438574790954,0.0,0.0,0.6710178852081299,-0.2242701649665832
0.0978074073791503,0.3955601751804352,0.2949097752571106,-0.6005390286445618,0.346017986536026,0.0666270405054092,0.0,0.0,0.1952091455459594,-0.522599458694458
0.1006118804216384,0.3826681971549988,0.2761545777320862,-0.5740129947662354,0.350526362657547,0.0901676714420318,0.0,0.0,0.3978970050811767,0.0855128765106201
0.1033046692609787,0.3705969750881195,0.2645824551582336,-0.5376564860343933,0.3554756641387939,0.0989862903952598,0.0,0.0,0.3184595108032226,0.4504194259643554
0.1057458892464637,0.3592095375061035,0.2396885454654693,-0.5072110295295715,0.3601412177085876,0.093311034142971,0.0,0.0,0.87473464012146,0.9534451961517334
0.108031079173088,0.3481073379516601,0.2260708063840866,-0.4940506219863891,0.3627351820468902,0.0518795326352119,0.0,0.0,0.6628695726394653,0.9593625068664552
0.1101987808942794,0.3380064964294433,0.2160052359104156,-0.44911989569664,0.3635394275188446,0.0160851590335369,0.0,0.0,0.6874446868896484,0.7629534006118774
0.1121579185128212,0.3285141885280609,0.1967040002346038,-0.4216777682304382,0.362699955701828,-0.0167894400656223,0.0,0.0,0.7876882553100586,-0.1522797346115112
0.1138485893607139,0.3198321163654327,0.1699888557195663,-0.3856386542320251,0.3617280423641205,-0.0194382853806018,0.0,0.0,0.595832347869873,-0.0450726151466369
0.1153332740068435,0.3119046688079834,0.1492980271577835,-0.3521212637424469,0.3608475625514984,-0.0176098085939884,0.0,0.0,0.8559229373931885,0.3595261573791504
0.1167189627885818,0.3047594726085663,0.1388314068317413,-0.3174967467784881,0.3605680763721466,-0.0055899885483086,0.0,0.0,0.3719184398651123,0.1906423568725586
0.1180590614676475,0.2978368699550628,0.1340442448854446,-0.3076628148555755,0.3605305552482605,-0.0007504493114538,0.0,0.0,0.7736973762512207,0.2473387718200683
0.1193721741437912,0.2913869023323059,0.130759984254837,-0.2868033945560455,0.3611077666282654,0.0115441242232918,0.0,0.0,0.7604537010192871,0.3779580593109131
0.1206450462341308,0.2856870293617248,0.1259043514728546,-0.2536726593971252,0.3625673949718475,0.0291922241449356,0.0,0.0,0.9385982751846312,0.2254078388214111
0.1219305023550987,0.2805366218090057,0.1262975037097931,-0.2294789999723434,0.3649441301822662,0.0475339666008949,0.0,0.0,0.978102445602417,-0.6014078855514526
0.1228623390197753,0.2764348983764648,0.0896355658769607,-0.1832083314657211,0.3686956763267517,0.0750311166048049,0.0,0.0,0.9582408666610718,0.5652213096618652
0.1235615760087966,0.2734536528587341,0.0672260895371437,-0.133199542760849,0.371556282043457,0.057212334126234,0.0,0.0,0.8678910732269287,0.4321672916412353
0.1241283416748046,0.2714166045188904,0.0532079115509986,-0.0914425924420356,0.3752385377883911,0.0736453086137771,0.0,0.0,0.9711885452270508,0.8910541534423828
0.1247482299804687,0.2698389589786529,0.0598367862403392,-0.0706839486956596,0.3775204122066498,0.0456375516951084,0.0,0.0,0.9604654312133788,0.60172438621521
0.1251285523176193,0.2689051330089569,0.0370613560080528,-0.0417655780911445,0.3785614967346191,0.0208214800804853,0.0,0.0,0.5818790197372437,0.9171733856201172
0.1253484785556793,0.269036591053009,0.0225289203226566,0.0059869345277547,0.3779885172843933,-0.0114593617618083,0.0,0.0,0.0563892126083374,0.4198464155197143
0.1254114210605621,0.2694805562496185,0.0067283571697771,0.0198457706719636,0.377530038356781,-0.0091698048636317,0.0,0.0,-0.3728909492492676,0.5398784875869751
0.1254909485578537,0.2697610855102539,0.0090407561510801,0.0127559397369623,0.3763696551322937,-0.0232078954577446,0.0,0.0,-0.4284990429878235,0.6223587989807129
0.125603586435318,0.2698888182640075,0.0135568333789706,0.0062803728505969,0.3739279806613922,-0.0488333329558372,0.0,0.0,-0.1157318353652954,0.8493871688842773
0.1257484406232834,0.2698690891265869,0.0181184224784374,6.747963197994977e-05,0.3700782656669616,-0.0769941955804824,0.0,0.0,-0.3662699460983276,0.6121608018875122
0.1259036064147949,0.2696895599365234,0.02000985853374,-0.0068260738626122,0.3653325140476227,-0.0949148163199424,0.0,0.0,-0.2725163698196411,0.8358852863311768
0.126086801290512,0.2693550288677215,0.024184538051486,-0.0133868427947163,0.35914146900177,-0.1238210797309875,0.0,0.0,-0.6450337171554565,0.9286866188049316
0.1262890845537185,0.2688663601875305,0.0273813363164663,-0.0199475865811109,0.3516131639480591,-0.1505666077136993,0.0,0.0,-0.2023704051971435,0.7418749332427979
0.1264931708574295,0.2682129740715027,0.0284613315016031,-0.027092071250081,0.3431496620178222,-0.1692702174186706,0.0,0.0,-0.8120639324188232,0.7198531627655029
0.1267151832580566,0.2674115896224975,0.031753022223711,-0.0333726480603218,0.3331544101238251,-0.1999051123857498,0.0,0.0,-0.9633073210716248,0.8849525451660156
0.1269640028476715,0.2664555311203003,0.0361768305301666,-0.0399329997599124,0.3213832974433899,-0.2354229986667633,0.0,0.0,-0.9851967096328736,0.5584578514099121
0.127212718129158,0.2653446495532989,0.0373724550008773,-0.0466506257653236,0.308404803276062,-0.2595697939395904,0.0,0.0,-0.997211456298828,0.8815665245056152
0.1274693459272384,0.2640870213508606,0.03967971727252,-0.052987702190876,0.293905109167099,-0.2899936735630035,0.0,0.0,-0.9990472793579102,0.7179272174835205
0.127733901143074,0.2626838982105255,0.0420825183391571,-0.0592852607369422,0.2778081595897674,-0.321938157081604,0.0,0.0,-0.9973369240760804,0.8157377243041992
0.1280075013637542,0.2611276507377624,0.0446915999054908,-0.0659727379679679,0.2600655555725097,-0.3548519313335418,0.0,0.0,-0.9992810487747192,0.6295573711395264
0.1282644271850586,0.2594138979911804,0.0441158451139926,-0.0730068609118461,0.2412791401147842,-0.3757286667823791,0.0,0.0,-0.9984018802642822,0.821631908416748
0.1285237371921539,0.2575508654117584,0.0460333228111267,-0.0796307101845741,0.2208832502365112,-0.4079176783561706,0.0,0.0,-0.9966187477111816,0.8738443851470947
0.1287918090820312,0.2555284202098846,0.0487731620669364,-0.0867545306682586,0.1987196207046508,-0.4432727694511413,0.0,0.0,-0.9912811517715454,0.9315178394317628
0.129047006368637,0.2533446550369262,0.0488381721079349,-0.0940928757190704,0.1752892732620239,-0.4686068594455719,0.0,0.0,-0.945058047771454,0.93440580368042
0.1292875260114669,0.2509944140911102,0.048713494092226,-0.1017341166734695,0.1506139934062957,-0.4935058951377868,0.0,0.0,-0.8208064436912537,0.4172203540802002
0.1294540464878082,0.2484649717807769,0.0411838963627815,-0.1101215332746505,0.1261675208806991,-0.4889296591281891,0.0,0.0,-0.782164990901947,-0.2835797071456909
0.129545122385025,0.2457562983036041,0.0334810465574264,-0.1185077652335167,0.1019509807229042,-0.4843311309814453,0.0,0.0,-0.9318926334381104,-0.928554117679596
0.1295027732849121,0.2428503632545471,0.0184923466295003,-0.1277576237916946,0.0794183984398841,-0.4506516456604004,0.0,0.0,-0.9643235206604004,-0.9632042050361632
0.1293183267116546,0.2397600263357162,0.0024691447615623,-0.1363696902990341,0.0587241165339946,-0.4138857424259186,0.0,0.0,-0.9696923494338988,-0.9930651187896729
0.1289789229631424,0.2364903092384338,-0.0151463970541954,-0.1446875631809234,0.0401541069149971,-0.3714001476764679,0.0,0.0,-0.9834977984428406,-0.9985072612762452
0.1284888237714767,0.2330219596624374,-0.0322441197931766,-0.1537821292877197,0.0235945973545312,-0.3311904072761535,0.0,0.0,-0.9589804410934448,-0.9989051222801208
0.1278510987758636,0.2293687164783477,-0.0489271283149719,-0.1621962487697601,0.0089306188747286,-0.2932793498039245,0.0,0.0,-0.9208113551139832,-0.9915160536766052
