x_pos,y_pos,x_vel,y_vel,angle,ang_vel,leg_1,leg_2,main_booster,lat_booster
-0.001500129699707,1.40326189994812,-0.1516962647438049,-0.3403647541999817,0.00150240608491,0.0296171363443136,0.0,0.0,-0.0390455722808837,0.5922197103500366
-0.0029266357887536,1.395261526107788,-0.1425936371088028,-0.3555733561515808,0.0014457401121035,-0.0011325235245749,0.0,0.0,-0.1077603101730346,0.5242739915847778
-0.0042798994109034,1.3868943452835083,-0.1337332427501678,-0.3718739449977875,-0.0001208094836329,-0.0313341878354549,0.0,0.0,-0.3580838441848755,0.442750334739685
-0.0056104660034179,1.378164529800415,-0.1312223523855209,-0.3879916369915008,-0.0019258110551163,-0.0361035428941249,0.0,0.0,-0.2674087285995483,0.2646462917327881
-0.0069186212494969,1.3690723180770874,-0.1287547796964645,-0.4041066765785217,-0.0039647812955081,-0.0407832190394401,0.0,0.0,0.0868706703186035,0.6918168067932129
-0.0080463411286473,1.3601515293121338,-0.1092173904180526,-0.3964912295341491,-0.0074809305369853,-0.0703296288847923,0.0,0.0,-0.3649241328239441,-0.2391915917396545
-0.0091525074094533,1.3508682250976562,-0.106839396059513,-0.4126108586788177,-0.0112194325774908,-0.0747767686843872,0.0,0.0,-0.0807353854179382,-0.0920614600181579
-0.0102375987917184,1.341222643852234,-0.1045119762420654,-0.4287247061729431,-0.0151752401143312,-0.0791233330965042,0.0,0.0,-0.0888376235961914,0.1237034797668457
-0.011302089318633,1.3312149047851562,-0.1022372245788574,-0.4448395371437073,-0.0193423479795455,-0.083349734544754,0.0,0.0,-0.1778881549835205,0.5827891826629639
-0.0123004913330078,1.3208472728729248,-0.0942620858550071,-0.4608681499958038,-0.0248676892369985,-0.1105168089270591,0.0,0.0,0.1651233434677124,0.0613371133804321
-0.0132081983610987,1.310743808746338,-0.0852657109498977,-0.4491405785083771,-0.0303032640367746,-0.1087216734886169,0.0,0.0,-0.8621917963027954,-0.6926688551902771
-0.0141448974609375,1.3002790212631226,-0.0892065092921257,-0.4652042388916015,-0.0347200706601142,-0.0883439779281616,0.0,0.0,-0.8685569763183594,-0.4927197694778442
-0.0150629999116063,1.2894518375396729,-0.087165430188179,-0.4813181459903717,-0.0393238477408885,-0.0920839980244636,0.0,0.0,-0.8042231202125549,-0.6230573654174805
-0.016006851568818,1.27825927734375,-0.0906567797064781,-0.4975495934486389,-0.0430137515068054,-0.0738046616315841,0.0,0.0,0.451770544052124,-0.6920669078826904
-0.016819953918457,1.267791748046875,-0.0790558084845542,-0.465286523103714,-0.0452405214309692,-0.0445394329726696,0.0,0.0,-0.9293254017829896,-0.497675359249115
-0.0176163669675588,1.2569618225097656,-0.0772176310420036,-0.4814107120037079,-0.0476349741220474,-0.0478937625885009,0.0,0.0,-0.7792358994483948,-0.8241702914237976
-0.0184464454650878,1.2457826137542725,-0.0817044824361801,-0.4968963265419006,-0.048925120383501,-0.0258053299039602,0.0,0.0,-0.8875612020492554,-0.5511748194694519
-0.019294548779726,1.2342387437820437,-0.0841864272952079,-0.513083815574646,-0.0495340004563331,-0.0121789369732141,0.0,0.0,-0.8404346704483032,-0.6640484929084778
-0.0201714523136615,1.2223418951034546,-0.0880531221628189,-0.5287386775016785,-0.0491817630827426,0.007045205682516,0.0,0.0,-0.6190280318260193,-0.5176801085472107
-0.0210806839168071,1.21008563041687,-0.0923142731189727,-0.5446746945381165,-0.0478031300008297,0.0275750998407602,0.0,0.0,-0.6234084963798523,0.4524184465408325
-0.0219764709472656,1.1974669694900513,-0.0908397436141967,-0.5607898235321045,-0.0465574599802494,0.0249158982187509,0.0,0.0,-0.5997745990753174,0.5318343639373779
-0.0228167530149221,1.184479832649231,-0.0840762108564376,-0.5772057771682739,-0.0465154722332954,0.0008399049984291,0.0,0.0,-0.9686057567596436,-0.8724890351295471
-0.0236990936100482,1.1711325645446775,-0.0895322486758232,-0.5931647419929504,-0.0452305115759372,0.0257017854601144,0.0,0.0,-0.5702059864997864,-0.0474689602851867
-0.024570083245635,1.1574231386184692,-0.0882807075977325,-0.6092799305915833,-0.0440576635301113,0.0234591551125049,0.0,0.0,-0.6146064400672913,-0.2513436675071716
-0.0254302024841308,1.1433510780334473,-0.0871035382151603,-0.6253952383995056,-0.0429887473583221,0.0213803816586732,0.0,0.0,-0.7740995287895203,0.2456080913543701
-0.0262809749692678,1.1288948059082031,-0.086062453687191,-0.6424632668495178,-0.0420168712735176,0.0194375701248645,0.0,0.0,-0.7911177277565002,-0.2656165957450866
-0.0271223075687885,1.1140764951705933,-0.0850325599312782,-0.658576250076294,-0.0411349572241306,0.0176384840160608,0.0,0.0,-0.5424934029579163,-0.2646228075027466
-0.0279550552368164,1.0988954305648804,-0.0840778872370719,-0.6746892333030701,-0.0403359867632389,0.0159792676568031,0.0,0.0,-0.5864450931549072,-0.5068795680999756
-0.0288283340632915,1.0833591222763062,-0.0893054530024528,-0.6904515624046326,-0.0383856296539306,0.0390072241425514,0.0,0.0,-0.0712987780570983,0.411675214767456
-0.0296942703425884,1.067460298538208,-0.0884999707341194,-0.706564724445343,-0.0365045368671417,0.0376219823956489,0.0,0.0,0.3481814861297607,0.4299242496490478
-0.0305129997432231,1.0522339344024658,-0.0837901905179023,-0.676685631275177,-0.0346153751015663,0.0377829112112522,0.0,0.0,-0.0041607618331909,0.1099052429199218
-0.0313258171081543,1.0366450548171997,-0.0831310600042343,-0.6927986741065979,-0.0327822566032409,0.0366622805595397,0.0,0.0,-0.898033857345581,0.1340783834457397
-0.0321331024169921,1.0206936597824097,-0.0825436487793922,-0.7089117169380188,-0.0309987720102071,0.0356696881353855,0.0,0.0,0.4090913534164428,0.0553388595581054
-0.0329805389046669,1.0048434734344482,-0.0862519666552543,-0.7044199109077454,-0.0295101720839738,0.0297720730304718,0.0,0.0,-0.1432818174362182,0.5016497373580933
-0.0337831489741802,0.9886300563812256,-0.0806885659694671,-0.720586895942688,-0.0290835071355104,0.0085331192240118,0.0,0.0,0.0739728212356567,-0.6173262596130371
-0.0346034057438373,0.9727974534034728,-0.0836839750409126,-0.7036371827125549,-0.0274423751980066,0.0328224822878837,0.0,0.0,-0.4608533382415771,-0.0572595000267028
-0.0354207046329975,0.9566023349761964,-0.0833699330687522,-0.7197501063346863,-0.0258269347250461,0.0323087498545646,0.0,0.0,0.2712490558624267,-0.027032196521759
-0.0361912734806537,0.9409220814704896,-0.0788148492574691,-0.6968766450881958,-0.0240961834788322,0.0346151143312454,0.0,0.0,-0.5638235807418823,-0.1992077231407165
-0.0369602218270301,0.9248790144920348,-0.0786272957921028,-0.7129896283149719,-0.0223802756518125,0.0343180149793624,0.0,0.0,0.3552279472351074,-0.0554181933403015
-0.037693690508604,0.9092206358909608,-0.0751734897494316,-0.6959018111228943,-0.0205668825656175,0.0362680032849311,0.0,0.0,-0.482863187789917,0.2007023096084594
-0.038426399230957,0.8931998014450073,-0.0751041322946548,-0.7120146155357361,-0.0187583584338426,0.036170557141304,0.0,0.0,-0.4417790174484253,0.2548264265060425
-0.0391589179635047,0.87681645154953,-0.0750904232263565,-0.7281274795532227,-0.0169500429183244,0.0361662581562995,0.0,0.0,0.3372286558151245,0.4817425012588501
-0.0398089401423931,0.8604492545127869,-0.0672045797109603,-0.7274050116539001,-0.0147737450897693,0.0435261949896812,0.0,0.0,-0.1690918207168579,0.5660865306854248
-0.040407657623291,0.8437172770500183,-0.0607487261295318,-0.7436339855194092,-0.0139004699885845,0.017465490847826,0.0,0.0,0.3900214433670044,-0.303794264793396
-0.0410382263362407,0.8269951343536377,-0.0638007298111915,-0.7431999444961548,-0.0131730185821652,0.0145487934350967,0.0,0.0,0.2248221635818481,0.2919895648956299
-0.0416333191096782,0.8102813363075256,-0.0604108572006225,-0.7428273558616638,-0.0122719407081604,0.0180213674902915,0.0,0.0,-0.0857765674591064,0.3384575843811035
-0.0422303192317485,0.7932050228118896,-0.0606364533305168,-0.7589399218559265,-0.0113513451069593,0.0184120517224073,0.0,0.0,-0.0463677048683166,-0.1717913746833801
-0.0428298003971576,0.7757660746574402,-0.0609013959765434,-0.7750526070594788,-0.0104079945012927,0.0188671350479125,0.0,0.0,0.2363160848617553,0.3420009613037109
-0.0435250289738178,0.7588509917259216,-0.0700492933392524,-0.7517830729484558,-0.0098982043564319,0.0101960264146327,0.0,0.0,0.5541682243347168,0.0741318464279174
-0.0442385673522949,0.7422911524772644,-0.0718059092760086,-0.7359864711761475,-0.0094520505517721,0.0089232111349701,0.0,0.0,-0.0339666008949279,-0.4697437286376953
-0.0449554435908794,0.7253689169883728,-0.0721702352166175,-0.7520990371704102,-0.0089749824255704,0.0095413094386458,0.0,0.0,0.0105119943618774,-0.4214614629745483
-0.0457070358097553,0.7087604999542236,-0.0755119323730468,-0.7381531596183777,-0.0086276931688189,0.0069457837380468,0.0,0.0,0.1261889934539795,-0.6912304162979126
-0.0464301109313964,0.6922398209571838,-0.0741806328296661,-0.7342432141304016,-0.0067757354117929,0.0370391383767128,0.0,0.0,0.3883297443389892,0.3854625225067138
-0.0471498481929302,0.676362156867981,-0.0739024057984352,-0.7056704163551331,-0.0048745991662144,0.038023080676794,0.0,0.0,-0.6570513248443604,0.3895384073257446
-0.0478736869990825,0.6601218581199646,-0.0743530020117759,-0.7217833995819092,-0.0029352146666496,0.0387877486646175,0.0,0.0,-0.0911815762519836,0.8364944458007812
-0.0485460273921489,0.6435151696205139,-0.0678290128707885,-0.7380754947662354,-0.0023559455294162,0.011585546657443,0.0,0.0,-0.5518284440040588,0.5410594940185547
-0.049173355102539,0.6265507340431213,-0.0620896406471729,-0.7539767026901245,-0.0029801733326166,-0.0124845234677195,0.0,0.0,0.6007809638977051,-0.3894550800323486
-0.0496692657470703,0.6102034449577332,-0.0496262088418006,-0.726549506187439,-0.0029447667766362,0.0007080382783897,0.0,0.0,0.1997349262237548,0.5539225339889526
-0.0500642769038677,0.594395637512207,-0.0385731197893619,-0.7025721669197083,-0.0038549839518964,-0.018204404041171,0.0,0.0,0.2545653581619262,0.6800879240036011
-0.0504720695316791,0.5791263580322266,-0.0384318120777606,-0.6786425113677979,-0.0061723315156996,-0.0463468357920646,0.0,0.0,-0.5377566814422607,-0.0396066904067993
-0.0508841499686241,0.5634946227073669,-0.0389053672552108,-0.6947556138038635,-0.0084479581564664,-0.0455126240849494,0.0,0.0,-0.7019892334938049,0.197575569152832
-0.0513005256652832,0.5475004315376282,-0.0393697842955589,-0.7108686566352844,-0.0106821544468402,-0.0446840152144432,0.0,0.0,-0.5313239693641663,0.7425572872161865
-0.0516501441597938,0.5311407446861267,-0.0309374667704105,-0.727128267288208,-0.0146550582721829,-0.0794580355286598,0.0,0.0,0.7930052280426025,-0.6399165391921997
-0.0520170219242572,0.5154179334640503,-0.0340613648295402,-0.698821485042572,-0.0172467306256294,-0.051833439618349,0.0,0.0,0.401630163192749,0.4827996492385864
-0.0523751266300678,0.4998425245285034,-0.0332556068897247,-0.692273736000061,-0.0197685435414314,-0.0504361279308795,0.0,0.0,0.3567109107971191,0.4074146747589111
-0.0528287887573242,0.4846354722976684,-0.0423719510436058,-0.6759094595909119,-0.0227226745337247,-0.0590826459228992,0.0,0.0,-0.2535168528556824,-0.3871651887893677
-0.0532855987548828,0.4690660238265991,-0.0427335724234581,-0.6920226812362671,-0.025640320032835,-0.0583528354763984,0.0,0.0,0.852003812789917,-0.2814772129058838
-0.0536450371146202,0.4536221325397491,-0.0334540680050849,-0.6864380240440369,-0.0280974823981523,-0.0491432026028633,0.0,0.0,0.2924215793609619,-0.0279551744461059
-0.0539670959115028,0.4388162791728973,-0.0298547036945819,-0.6580856442451477,-0.0304238926619291,-0.0465280339121818,0.0,0.0,-0.0437296032905578,0.652256965637207
-0.0542479529976844,0.4236431121826172,-0.0246522072702646,-0.6744358539581299,-0.033814437687397,-0.0678109005093574,0.0,0.0,0.9423420429229736,0.4598134756088257
-0.0546115860342979,0.4093064665794372,-0.0324526168406009,-0.6372771859169006,-0.0376758687198162,-0.0772287547588348,0.0,0.0,0.8513063192367554,0.5970993041992188
-0.0548662170767784,0.3956492245197296,-0.0204728245735168,-0.6071211099624634,-0.0426002070307731,-0.098486877977848,0.0,0.0,-0.6848195791244507,-0.8618219494819641
-0.0552041046321392,0.3816446661949157,-0.0309358797967433,-0.6225125193595886,-0.0454185530543327,-0.0563669428229332,0.0,0.0,0.9754688739776612,-0.200137972831726
-0.0554232597351074,0.3683062195777893,-0.0194900557398796,-0.5928941965103149,-0.0478101558983325,-0.0478323884308338,0.0,0.0,0.0359671115875244,-0.0437358617782592
-0.0556515678763389,0.3549742698669433,-0.0203285627067089,-0.5926128029823303,-0.0502823665738105,-0.0494443364441394,0.0,0.0,0.9422998428344728,0.4257521629333496
-0.0557800307869911,0.3418463468551636,-0.0107325557619333,-0.5835362672805786,-0.0523708835244178,-0.0417699590325355,0.0,0.0,0.8834743499755859,-0.10574471950531
-0.055922795087099,0.3289383351802826,-0.0120052099227905,-0.5737676620483398,-0.054615594446659,-0.0448942184448242,0.0,0.0,0.77207350730896,0.2620919942855835
-0.0560259819030761,0.3169429302215576,-0.0080136973410844,-0.5332157611846924,-0.0568950287997722,-0.0455885380506515,0.0,0.0,-0.1342213153839111,-0.5565908551216125
-0.056164264678955,0.3045938014984131,-0.0125056635588407,-0.5489004850387573,-0.0582098662853241,-0.0262967497110366,0.0,0.0,0.8295137882232666,-0.0736162066459655
-0.0563705451786518,0.2932484149932861,-0.0187141597270965,-0.504317045211792,-0.0601005256175994,-0.0378131382167339,0.0,0.0,0.3589659929275512,0.0548619031906127
-0.0566624626517295,0.2819580435752868,-0.0267761014401912,-0.5018932223320007,-0.0624885633587837,-0.0477608852088451,0.0,0.0,-0.3475707769393921,0.0354176759719848
-0.0569493286311626,0.2703051567077636,-0.0262673404067754,-0.5180062651634216,-0.0648859217762947,-0.0479470416903495,0.0,0.0,0.2175439596176147,-0.8123589158058167
-0.057352352887392,0.258939266204834,-0.0394283570349216,-0.5051921010017395,-0.065753161907196,-0.0173446405678987,0.0,0.0,0.5514670610427856,0.6926710605621338
-0.057708453387022,0.2481665760278701,-0.0332064256072044,-0.478891909122467,-0.0681294947862625,-0.0475264452397823,0.0,0.0,0.0442193746566772,-0.821825385093689
-0.0581004135310649,0.2377045899629593,-0.0384261682629585,-0.465012639760971,-0.0688938573002815,-0.0152873173356056,0.0,0.0,-0.6705902814865112,0.8932106494903564
-0.0584032051265239,0.2268720418214798,-0.0274291038513183,-0.4815841913223266,-0.0717216059565544,-0.0565549060702323,0.0,0.0,0.0715093612670898,-0.8790007829666138
-0.0587326064705848,0.2160060256719589,-0.0318180210888385,-0.4829888939857483,-0.0728313624858856,-0.0221947729587554,0.0,0.0,0.2179515361785888,-0.5658944845199585
-0.0589999184012413,0.2052140980958938,-0.0268567558377981,-0.479635089635849,-0.0727096870541572,0.0024335454218089,0.0,0.0,0.4025628566741943,0.309704065322876
-0.0590962395071983,0.1947713643312454,-0.0102997059002518,-0.4640909731388092,-0.0720522403717041,0.0131488665938377,0.0,0.0,0.3614736795425415,-0.1034477949142456
-0.0590424537658691,0.1844399273395538,0.0042240838520228,-0.459118515253067,-0.0709103792905807,0.0228369738906621,0.0,0.0,0.6421849727630615,-0.6767668724060059
-0.0589818954467773,0.1748746037483215,0.0036039729602634,-0.4250097870826721,-0.0684851855039596,0.0485038980841636,0.0,0.0,-0.3661028146743774,0.089252233505249
-0.0589072220027446,0.1649469882249832,0.0050740758888423,-0.4411231577396393,-0.0661171004176139,0.0473616272211074,0.0,0.0,0.2630914449691772,0.6086958646774292
-0.0586305633187294,0.1554072648286819,0.0263651572167873,-0.4239313900470733,-0.0648326873779296,0.0256882514804601,0.0,0.0,0.2599222660064697,-0.813593327999115
-0.0582987777888774,0.1458669751882553,0.0302290581166744,-0.423889011144638,-0.0619134418666362,0.0583851709961891,0.0,0.0,0.4649231433868408,-0.879776120185852
-0.0580439567565918,0.1366491913795471,0.0208926163613796,-0.4094948172569275,-0.0573786944150924,0.0906948745250701,0.0,0.0,0.4436901807785034,-0.5752725005149841
-0.0576926246285438,0.1282022297382354,0.0292802210897207,-0.3752070665359497,-0.0515939556062221,0.1156948655843734,0.0,0.0,0.0048933029174804,-0.4472631216049194
-0.0573184005916118,0.1199129223823547,0.0317237861454486,-0.3682290613651275,-0.0459573827683925,0.1127311363816261,0.0,0.0,0.2332396507263183,-0.3106416463851928
-0.0569893829524517,0.1121576875448226,0.027725264430046,-0.3445281684398651,-0.0408381521701812,0.1023847013711929,0.0,0.0,-0.2509740591049194,0.5654053688049316
-0.0565877929329872,0.1040398925542831,0.0363775379955768,-0.360691487789154,-0.0370985642075538,0.0747915580868721,0.0,0.0,0.3985335826873779,-0.3483138084411621
-0.056185532361269,0.0965143293142318,0.0367506965994834,-0.3343875110149383,-0.0336662121117115,0.0686471238732338,0.0,0.0,-0.1421802043914795,-0.4567062854766845
-0.0557599067687988,0.0886264145374298,0.0391899012029171,-0.3505013585090637,-0.0303363092243671,0.0665980279445648,0.0,0.0,0.7281800508499146,0.0316369533538818
-0.0553201660513877,0.0811583623290062,0.0408383756875991,-0.3318547308444977,-0.0272340215742588,0.0620455257594585,0.0,0.0,0.6615431308746338,0.6647303104400635
-0.054913330823183,0.0742384791374206,0.0392806380987167,-0.307525485754013,-0.0258524380624294,0.0276316665112972,0.0,0.0,0.107486605644226,0.2586777210235595
-0.0545719154179096,0.0674865320324897,0.0333331599831581,-0.3000745773315429,-0.0250540785491466,0.0159670896828174,0.0,0.0,0.0775545835494995,-0.3103817701339721
-0.0541223511099815,0.0610723346471786,0.043949507176876,-0.2850609123706817,-0.0240572690963745,0.0199359282851219,0.0,0.0,-0.2161780595779419,0.4226908683776855
-0.0536444671452045,0.0542956441640853,0.0469082817435264,-0.3011737763881683,-0.0231860224157571,0.0174248125404119,0.0,0.0,0.6989209651947021,0.6085867881774902
-0.0529100410640239,0.0483303405344486,0.0735051706433296,-0.2651244699954986,-0.0232561994343996,-0.0014034794876351,0.0,0.0,-0.2841335535049438,-0.5887951254844666
-0.0521938316524028,0.0420091263949871,0.0706013888120651,-0.2809255719184875,-0.022244544699788,0.0202329754829406,0.0,0.0,0.7559225559234619,-0.1166630387306213
-0.0512746796011924,0.0366824008524417,0.0903260856866836,-0.2367222905158996,-0.0206694304943084,0.0315021015703678,0.0,0.0,-0.2257946133613586,-0.886664867401123
-0.0503847114741802,0.03099518828094,0.0859830230474472,-0.2527258992195129,-0.0176963955163955,0.0594607703387737,0.0,0.0,0.2931634187698364,0.4475351572036743
-0.0494562163949012,0.0259042121469974,0.0900125056505203,-0.2262348532676696,-0.0148952025920152,0.0560237877070903,0.0,0.0,0.2992740869522095,-0.9624171853065492
-0.0485054031014442,0.0213888026773929,0.0904226750135421,-0.2006453722715377,-0.0103011764585971,0.0918807461857795,0.0,0.0,0.154870867729187,-0.9597607851028442
-0.0475262627005577,0.016987333074212,0.0914730206131935,-0.1955880969762802,-0.0039464132860302,0.1270953565835952,0.0,0.0,0.4714771509170532,-0.2079671621322631
-0.0466185584664344,0.013050565496087,0.0850002840161323,-0.1749639064073562,0.0017483318224549,0.1138950958847999,0.0,0.0,0.2111999988555908,0.0160292387008667
-0.0457695014774799,0.0093174669891595,0.0797381550073623,-0.1659310907125473,0.006848603952676,0.1020054593682289,0.0,0.0,-0.074105679988861,0.2736594676971435
-0.0448836311697959,0.0052220914512872,0.0835882946848869,-0.1820457279682159,0.0117867607623338,0.0987631604075431,0.0,0.0,0.6419132947921753,0.4543261528015136
-0.0439405441284179,0.001560196862556,0.0893500372767448,-0.1628001183271408,0.0166794154793024,0.097853310406208,0.0,0.0,0.342502236366272,-0.2360241413116455
-0.042952824383974,-0.0013228916795924,0.1125784069299697,-0.1280343383550644,0.0030686911195516,-0.2721901535987854,0.0,1.0,0.6709659099578857,0.1679551601409912
-0.0420068725943565,-0.0023218893911689,0.108573779463768,-0.0444360636174678,-0.0107340877875685,-0.2760551571846008,1.0,1.0,0.7647770643234253,-0.9638106822967528
-0.041145421564579,-0.0013190293684601,0.0934717506170272,0.0445046201348304,-0.0179575085639953,-0.1444584429264068,1.0,1.0,-0.3981911540031433,-0.9761039614677428
