x_pos,y_pos,x_vel,y_vel,angle,ang_vel,leg_1,leg_2,main_booster,lat_booster
-0.0015698432689532,1.4033899307250977,-0.1593678295612335,-0.3346715569496155,0.002139680320397,0.0422348491847515,0.0,0.0,0.2651785612106323,0.8841297626495361
-0.0030759810470044,1.396174430847168,-0.1513518989086151,-0.3206883668899536,0.0028577328193932,0.0143634276464581,0.0,0.0,-0.3720581531524658,0.513745903968811
-0.0045879362151026,1.3887203931808472,-0.1510030925273895,-0.3312917351722717,0.0026765933725982,-0.0036234192084521,0.0,0.0,0.141494870185852,0.670034646987915
-0.0061996458098292,1.3815473318099976,-0.1598629206418991,-0.3188018202781677,0.0013813960831612,-0.0259065870195627,0.0,0.0,-0.3293089866638183,-0.0452337861061096
-0.0078741069883108,1.3741397857666016,-0.1664853990077972,-0.3292273283004761,0.0004343253385741,-0.0189431570470333,0.0,0.0,-0.3845791816711426,-0.0463346242904663
-0.0096148494631052,1.3664976358413696,-0.1734762489795684,-0.3396471440792084,-0.0001627126039238,-0.0119417011737823,0.0,0.0,0.0552713871002197,0.732221245765686
-0.0113844871520996,1.3591744899749756,-0.1752236634492874,-0.3254787623882293,-0.0018707363633438,-0.0341637022793293,0.0,0.0,-0.2287675142288208,-0.238965630531311
-0.0132269859313964,1.351616621017456,-0.1828904449939727,-0.3359047174453735,-0.0032220492139458,-0.027028601616621,0.0,0.0,-0.4267212152481079,0.5779879093170166
-0.0151011468842625,1.3438304662704468,-0.1852737963199615,-0.3460569083690643,-0.0053368918597698,-0.0423008240759372,0.0,0.0,0.0368455648422241,0.8607213497161865
-0.0169845577329397,1.336498737335205,-0.1848531663417816,-0.3258789181709289,-0.0087952800095081,-0.0691740736365318,0.0,0.0,0.0038203001022338,0.6191250085830688
-0.018838595598936,1.3294731378555298,-0.1810998767614364,-0.312278687953949,-0.0130430972203612,-0.0849641934037208,0.0,0.0,-0.4523563385009765,-0.312657356262207
-0.0207768436521291,1.3222131729125977,-0.1899062097072601,-0.3227026164531708,-0.0169246029108762,-0.077637180685997,0.0,0.0,-0.221216082572937,0.567154049873352
-0.02274751663208,1.314720630645752,-0.1921357065439224,-0.3330707252025604,-0.0218050554394722,-0.0976179987192154,0.0,0.0,-0.6114744544029236,0.7011241912841797
-0.0247458461672067,1.3069852590560913,-0.1936965584754943,-0.3438960611820221,-0.0278644058853387,-0.1211982518434524,0.0,0.0,-0.8555126190185547,0.4254341125488281
-0.0268351547420024,1.2990155220031738,-0.2031897008419037,-0.3543195724487304,-0.033550426363945,-0.1137306690216064,0.0,0.0,-0.5246840119361877,0.7680618762969971
-0.0289463996887207,1.2907993793487549,-0.2039258480072021,-0.365344226360321,-0.0406643860042095,-0.1422919929027557,0.0,0.0,-0.3776419162750244,0.708416223526001
-0.0310836788266897,1.2823532819747925,-0.2051729261875152,-0.3756353259086609,-0.0491273514926433,-0.1692747920751571,0.0,0.0,-0.6189043521881104,0.4684154987335205
-0.0333175659179687,1.2736732959747314,-0.2152266055345535,-0.386061817407608,-0.0572110377252101,-0.1616885513067245,0.0,0.0,-0.857940673828125,0.2056518793106079
-0.0356498733162879,1.2647593021392822,-0.2254457771778106,-0.3964877128601074,-0.064914546906948,-0.1540841460227966,0.0,0.0,-0.62166428565979,0.779007077217102
-0.0380288138985633,1.2556058168411257,-0.2291461676359176,-0.4072188436985016,-0.0735775977373123,-0.17327681183815,0.0,0.0,-0.5083504319190979,0.8037420511245728
-0.0404317863285541,1.246216058731079,-0.2299984395503997,-0.4178581237792969,-0.0837922617793083,-0.2043115347623825,0.0,0.0,-0.3294738531112671,0.4405324459075928
-0.0429370887577533,0.0,-0.2406357228755951,-0.4282869398593902,-0.0936211124062538,-0.19659423828125,0.0,0.0,-0.6882396340370178,0.6760470867156982
-0.0454813949763774,1.2267258167266846,-0.2432849407196045,-0.4392646849155426,-0.1047010198235511,-0.22161765396595,0.0,0.0,-0.410916805267334,0.9124884605407716
-0.0480509772896766,1.2166030406951904,-0.2441721260547638,-0.4508476853370666,-0.117426298558712,-0.2545279860496521,0.0,0.0,-0.6871792674064636,0.6509275436401367
-0.0506869331002235,1.206242322921753,-0.2502191364765167,-0.4615874588489532,-0.130753681063652,-0.2665714621543884,0.0,0.0,-0.8209368586540222,-0.0235077142715454
-0.0534314140677452,1.1956273317337036,-0.2614628672599792,-0.4729683995246887,-0.143692135810852,-0.2587690949440002,0.0,0.0,-0.2267892360687255,0.4505103826522827
-0.0562835708260536,1.184779405593872,-0.2726419568061828,-0.4833971261978149,-0.1562422066926956,-0.2510014772415161,0.0,0.0,0.1545560359954834,-0.2820385098457336
-0.0592445358633995,1.1745738983154297,-0.2835193574428558,-0.4549411535263061,-0.1688265055418014,-0.2516859471797943,0.0,0.0,-0.648166835308075,0.0292586088180542
-0.0623147003352642,1.164135217666626,-0.2948432564735412,-0.4653683006763458,-0.1810227334499359,-0.2439246475696563,0.0,0.0,-0.6935458183288574,-0.8552367687225342
-0.0655637755990028,1.153478741645813,-0.314912885427475,-0.4748802185058594,-0.1910582929849624,-0.2007111012935638,0.0,0.0,-0.4612823724746704,-0.5235430598258972
-0.0689617171883583,1.1426050662994385,-0.3312228322029114,-0.4844063818454742,-0.1996843218803405,-0.1725201606750488,0.0,0.0,0.3041795492172241,0.818720817565918
-0.072407528758049,1.1320024728775024,-0.3347034752368927,-0.4725919067859649,-0.209643617272377,-0.199186310172081,0.0,0.0,-0.8050587773323059,-0.3310678005218506
-0.0759646445512771,1.1211656332015991,-0.34622922539711,-0.4830128252506256,-0.2192168831825256,-0.1914655715227127,0.0,0.0,-0.5232304334640503,-0.077021837234497
-0.079633429646492,1.1100945472717283,-0.3577889800071716,-0.493432879447937,-0.2284049391746521,-0.1837611347436905,0.0,0.0,-0.7184649109840393,-0.2252042889595031
-0.083414077758789,1.0987886190414429,-0.3693765699863434,-0.5038520097732544,-0.2372087240219116,-0.1760755777359008,0.0,0.0,-0.5969361662864685,-0.0405959486961364
-0.0873066931962966,1.0872480869293213,-0.3809858858585357,-0.5142702460289001,-0.2456293106079101,-0.1684116423130035,0.0,0.0,-0.7553015351295471,0.4856188297271728
-0.0913117378950119,1.0754728317260742,-0.3926110863685608,-0.5246877074241638,-0.2536679208278656,-0.1607721447944641,0.0,0.0,-0.4354681968688965,0.4032829999923706
-0.0954291373491287,1.063462495803833,-0.4042463302612304,-0.535104513168335,-0.2613259553909302,-0.1531601399183273,0.0,0.0,-0.6824498176574707,0.4902101755142212
-0.0996592491865158,1.0512173175811768,-0.4158860146999359,-0.545520544052124,-0.2686049342155456,-0.1455795913934707,0.0,0.0,-0.6179365515708923,0.7044727802276611
-0.1039456352591514,1.03871488571167,-0.4204445481300354,-0.5571936964988708,-0.276999682188034,-0.1678954511880874,0.0,0.0,-0.3642426133155823,0.4988822937011719
-0.108344554901123,1.025977373123169,-0.4320771694183349,-0.5676101446151733,-0.2850189805030823,-0.1603863984346389,0.0,0.0,-0.6798807978630066,0.7300155162811279
-0.1127895340323448,1.012974500656128,-0.4353417754173279,-0.5797345042228699,-0.2944523692131042,-0.1886679381132125,0.0,0.0,-0.7763999104499817,0.4542145729064941
-0.1173468604683876,0.9997365474700928,-0.4469458162784576,-0.5901521444320679,-0.3035147786140442,-0.1812479496002197,0.0,0.0,-0.3137696981430053,0.932937741279602
-0.1219347938895225,0.9862239360809326,-0.4482604563236236,-0.6028014421463013,-0.3144228756427765,-0.2181627303361892,0.0,0.0,-0.5010432004928589,0.8774983882904053
-0.1265752762556076,0.9724372625350952,-0.452296108007431,-0.6153372526168823,-0.3266448974609375,-0.2444406449794769,0.0,0.0,-0.1523342132568359,0.4207344055175781
-0.1313270628452301,0.9584164023399352,-0.4638181328773498,-0.6257588863372803,-0.3385045230388641,-0.2371925413608551,0.0,0.0,-0.133962333202362,0.6701869964599609
-0.1361357718706131,0.9441291689872742,-0.4684635102748871,-0.6379571557044983,-0.3515199720859527,-0.2603086829185486,0.0,0.0,-0.1237804889678955,0.6197826862335205
-0.1410160958766937,0.9295937418937684,-0.4750478267669678,-0.6492516994476318,-0.3652064502239227,-0.2737294435501098,0.0,0.0,0.245847463607788,0.7107996940612793
-0.1458453238010406,0.915693700313568,-0.4688247144222259,-0.6214473843574524,-0.3801365792751312,-0.2986026406288147,0.0,0.0,0.2254693508148193,0.4656583070755005
-0.1506583243608474,0.9020944237709044,-0.4675513803958893,-0.6081472039222717,-0.3947929441928863,-0.293128103017807,0.0,0.0,0.3465999364852905,-0.0577743649482727
-0.1552931815385818,0.8888384699821472,-0.4506378173828125,-0.592787504196167,-0.4085672199726105,-0.2754855751991272,0.0,0.0,0.7024450302124023,0.1486551761627197
-0.1597890853881836,0.8764289021492004,-0.4368740916252136,-0.5552700757980347,-0.4222801029682159,-0.274257630109787,0.0,0.0,0.1582064628601074,0.5376241207122803
-0.1641502380371093,0.864131510257721,-0.4228950440883636,-0.5505834817886353,-0.4366318881511688,-0.2870355248451233,0.0,0.0,0.3063051700592041,0.6316928863525391
-0.1683023422956466,0.8524298071861267,-0.4011778831481933,-0.524517834186554,-0.4519628882408142,-0.3066202104091644,0.0,0.0,0.5964704751968384,-0.1861714124679565
-0.1722249984741211,0.841035783290863,-0.3792323470115661,-0.5106839537620544,-0.4663111865520477,-0.2869654297828674,0.0,0.0,-0.0039911866188049,-0.6304595470428467
-0.1763047277927398,0.8294437527656555,-0.3966906666755676,-0.5190420150756836,-0.4788239896297455,-0.250256210565567,0.0,0.0,0.9080524444580078,-0.0782371759414672
-0.1799685508012771,0.8187675476074219,-0.3558831810951233,-0.4781794250011444,-0.4905334115028381,-0.2341886758804321,0.0,0.0,0.7285604476928711,-0.2125390768051147
-0.1832761764526367,0.8086880445480347,-0.3211852610111236,-0.4514250755310058,-0.5012824535369873,-0.2149808853864669,0.0,0.0,0.4476368427276611,-0.1079326272010803
-0.1862825453281402,0.7992753982543945,-0.2916200160980224,-0.4216640591621399,-0.5114453434944153,-0.2032580375671386,0.0,0.0,0.8649723529815674,-0.4482648372650146
-0.1890313178300857,0.7908511161804199,-0.2658121585845947,-0.37783944606781,-0.5217325091362,-0.2057430446147918,0.0,0.0,0.8284900188446045,-0.6390655040740967
-0.1916688978672027,0.7827116847038269,-0.2562718391418457,-0.3646446764469147,-0.5302641987800598,-0.1706335246562957,0.0,0.0,0.916405200958252,-0.4462050795555115
-0.1940948516130447,0.7754780054092407,-0.2348982095718383,-0.3245287537574768,-0.5390822887420654,-0.1763612926006317,0.0,0.0,0.9901258945465088,-0.6582310199737549
-0.1962072402238845,0.7687264084815979,-0.2053518742322921,-0.3024381995201111,-0.5458621382713318,-0.1355968564748764,0.0,0.0,0.8761482238769531,-0.9184298515319824
-0.1980908364057541,0.7626652121543884,-0.1844308525323867,-0.2709843218326568,-0.5504088997840881,-0.090937003493309,0.0,0.0,0.9884049892425536,-0.7935370206832886
-0.1998641937971115,0.7570206522941589,-0.1750703454017639,-0.2518030405044555,-0.5530377626419067,-0.0525758750736713,0.0,0.0,0.9866430759429932,-0.3692352771759033
-0.201485589146614,0.7521646618843079,-0.1594530791044235,-0.2169301956892013,-0.556155264377594,-0.0623498931527137,0.0,0.0,0.976109743118286,-0.7406256794929504
-0.2026820629835128,0.7484080195426941,-0.1185477972030639,-0.1674206703901291,-0.557429850101471,-0.025491988286376,0.0,0.0,0.9295270442962646,-0.8786356449127197
-0.2037620991468429,0.7448124289512634,-0.1088186874985694,-0.1594671308994293,-0.5564873218536377,0.0188501589000225,0.0,0.0,0.7370955944061279,-0.6690287590026855
-0.2044734507799148,0.7421479225158691,-0.0733800530433654,-0.1174936816096305,-0.5538823008537292,0.0521018095314502,0.0,0.0,0.6617846488952637,-0.935335099697113
-0.2051763981580734,0.7399934530258179,-0.0742732584476471,-0.094130702316761,-0.549275815486908,0.0921294838190078,0.0,0.0,-0.1991081833839416,-0.8712852597236633
-0.2060315161943435,0.7376682758331299,-0.0914571732282638,-0.1009318605065345,-0.5424016118049622,0.1374836266040802,0.0,0.0,0.5511784553527832,-0.8641254305839539
-0.2066990882158279,0.7358877062797546,-0.0744687989354133,-0.0760658904910087,-0.5335418581962585,0.1771951466798782,0.0,0.0,0.1551508903503418,-0.8204726576805115
-0.2072904556989669,0.7347716689109802,-0.0684582516551017,-0.0459721572697162,-0.5228816866874695,0.2132038325071334,0.0,0.0,0.1990668773651123,-0.6626481413841248
-0.2077464610338211,0.7339608073234558,-0.0563497617840766,-0.0319559201598167,-0.5106728076934814,0.2441773414611816,0.0,0.0,-0.303231418132782,-0.4383871555328369
-0.2082813680171966,0.7329170107841492,-0.0643588602542877,-0.042384173721075,-0.498412936925888,0.2451976984739303,0.0,0.0,0.092170238494873,-0.2640483975410461
-0.2087510079145431,0.7318913340568542,-0.0581203699111938,-0.0415959693491458,-0.4859119653701782,0.2500195503234863,0.0,0.0,-0.1821087598800659,-0.1221049427986145
-0.2092956006526947,0.7306327223777771,-0.0657026320695877,-0.0520264022052288,-0.4733956158161163,0.2503271102905273,0.0,0.0,-0.1157760024070739,-0.4000363349914551
-0.2099131047725677,0.7291415929794312,-0.0730641037225723,-0.0624576248228549,-0.4608815312385559,0.2502813935279846,0.0,0.0,0.022916555404663,0.2154421806335449
-0.2103323936462402,0.728063702583313,-0.0535052940249443,-0.0441315881907939,-0.4481579959392547,0.2544708847999573,0.0,0.0,-0.0522676706314086,0.1163116693496704
-0.2108202874660492,0.7267534732818604,-0.0604127272963523,-0.0545646101236343,-0.4354712665081024,0.2537343204021454,0.0,0.0,-0.2264803647994995,0.0256415605545043
-0.2113748043775558,0.725210964679718,-0.0670873075723648,-0.0649981871247291,-0.4228380918502807,0.2526637315750122,0.0,0.0,-0.270294189453125,0.2398757934570312
-0.2119936496019363,0.7234364151954651,-0.0735257714986801,-0.0754322260618209,-0.4102746546268463,0.2512686252593994,0.0,0.0,0.3668663501739502,0.3597668409347534
-0.2125616073608398,0.7221347689628601,-0.0680598020553588,-0.0546341612935066,-0.3981844782829284,0.2418035715818405,0.0,0.0,-0.1283179521560669,0.3277840614318847
-0.2131896018981933,0.7206011414527893,-0.0740175172686576,-0.0650681778788566,-0.3861948549747467,0.2397925853729248,0.0,0.0,0.3822762966156006,-0.128257930278778
-0.2136641442775726,0.7196537256240845,-0.0585769191384315,-0.0391326397657394,-0.3743666410446167,0.2365648746490478,0.0,0.0,-0.0657719373703002,0.2051563262939453
-0.2141941040754318,0.718474268913269,-0.0640466883778572,-0.0495669655501842,-0.3626672625541687,0.233987420797348,0.0,0.0,0.2275587320327758,0.0025750398635864
-0.2146704643964767,0.7174102663993835,-0.0586775429546833,-0.0445457510650157,-0.3510285019874573,0.2327752113342285,0.0,0.0,-0.0474589467048645,-0.1127950549125671
-0.2151976078748703,0.7161139249801636,-0.0636556595563888,-0.0549803264439106,-0.3395442366600036,0.2296844720840454,0.0,0.0,0.2477006912231445,0.2789803743362427
-0.2155247181653976,0.7151400446891785,-0.0440372005105018,-0.040657639503479,-0.3277124762535095,0.2366349250078201,0.0,0.0,-0.4583525657653808,0.5794875621795654
-0.215845912694931,0.7139028906822205,-0.0419053360819816,-0.0528018325567245,-0.317521184682846,0.2038261145353317,0.0,0.0,-0.0277310609817504,0.2695803642272949
-0.2162109315395355,0.7124333381652832,-0.0461467429995536,-0.0632344856858253,-0.3075178265571594,0.2000666111707687,0.0,0.0,-0.1105803847312927,-0.0815132856369018
-0.2166175842285156,0.7107314467430115,-0.0501454100012779,-0.0736669600009918,-0.2977123260498047,0.1961098313331604,0.0,0.0,0.0762331485748291,-0.3771790266036987
-0.2168584764003753,0.7093846201896667,-0.0337629951536655,-0.0579165928065776,-0.2877387404441833,0.1994719058275222,0.0,0.0,-0.3679838180541992,0.4103727340698242
-0.2171363830566406,0.7078055143356323,-0.0372832529246807,-0.0683491975069046,-0.2779808938503265,0.1951567232608795,0.0,0.0,-0.5308663845062256,-0.1952979564666748
-0.2174490988254547,0.7059937715530396,-0.0405685529112815,-0.0787814930081367,-0.2684469223022461,0.1906796395778656,0.0,0.0,-0.262971818447113,-0.5823724865913391
-0.217831090092659,0.7039721608161926,-0.0482941567897796,-0.0880358144640922,-0.2581241130828857,0.2064559757709503,0.0,0.0,-0.3315675258636474,-0.548599362373352
-0.2182869017124176,0.701735258102417,-0.0565977394580841,-0.0975140035152435,-0.2468873262405395,0.2247358858585357,0.0,0.0,-0.815948486328125,0.2575823068618774
-0.218770831823349,0.6992663741111755,-0.0592028871178627,-0.107948750257492,-0.2358956187963485,0.2198340594768524,0.0,0.0,-0.8533176183700562,0.1431307792663574
-0.219280868768692,0.6965653896331787,-0.0615900233387947,-0.1183829829096794,-0.2251551300287246,0.2148097306489944,0.0,0.0,-0.8007292747497559,0.4382047653198242
-0.2198148667812347,0.6936323046684265,-0.0637645199894905,-0.1288166940212249,-0.2146715670824051,0.2096713036298751,0.0,0.0,-0.4802210330963135,0.8322644233703613
-0.2203146517276764,0.6904542446136475,-0.0586802177131176,-0.1400030702352523,-0.2058905959129333,0.1756195276975631,0.0,0.0,-0.2942653894424438,0.8395708799362183
-0.2207728326320648,0.6870211958885193,-0.0526583082973957,-0.1516447812318802,-0.1989971250295639,0.1378693878650665,0.0,0.0,-0.5841767191886902,0.9148387908935548
-0.2211921215057373,0.6833385825157166,-0.0470357909798622,-0.162998229265213,-0.1938567608594894,0.1028072834014892,0.0,0.0,-0.9264017343521118,0.5778481960296631
-0.2215945273637771,0.6794112920761108,-0.0442113205790519,-0.1740340590476989,-0.1898637562990188,0.0798601657152175,0.0,0.0,0.1747947931289672,0.7142362594604492
-0.221775621175766,0.6759670376777649,-0.0204742513597011,-0.1527739912271499,-0.1874855011701584,0.0475651174783706,0.0,0.0,-0.6610420942306519,-0.0446154475212097
-0.221969798207283,0.6722891926765442,-0.0215045381337404,-0.1631983667612075,-0.185390904545784,0.0418914929032325,0.0,0.0,-0.8566616773605347,0.8307945728302002
-0.2220946252346038,0.6683614253997803,-0.0122270695865154,-0.1745987832546234,-0.1856477260589599,-0.0051364535465836,0.0,0.0,0.3997725248336792,0.521411657333374
-0.2220875769853592,0.6651678085327148,0.0023370466660708,-0.1421399563550949,-0.1872882097959518,-0.0328095629811286,0.0,0.0,0.58296799659729,0.139203667640686
-0.2218022793531417,0.6629090309143066,0.0298282001167535,-0.1005546599626541,-0.1885896176099777,-0.0260283909738063,0.0,0.0,-0.4588937759399414,-0.0982828736305236
-0.2215240448713302,0.6604166626930237,0.029410284012556,-0.1109789311885833,-0.1901869624853134,-0.0319469906389713,0.0,0.0,0.5249112844467163,0.2817921638488769
-0.2211157381534576,0.6588024497032166,0.0427506156265735,-0.0719894990324974,-0.1921135932207107,-0.0385325774550437,0.0,0.0,0.312971830368042,0.0249959230422973
-0.2205451428890228,0.6578624844551086,0.0590520612895488,-0.0420407988131046,-0.1941180080175399,-0.0400884225964546,0.0,0.0,0.1010537147521972,0.257013201713562
-0.2198663651943206,0.6571229100227356,0.0699227005243301,-0.0331363007426261,-0.1961769163608551,-0.0411783196032047,0.0,0.0,-0.4543769359588623,0.5466482639312744
-0.2191561758518219,0.6561407446861267,0.0742383375763893,-0.0440825782716274,-0.1994149535894394,-0.064760647714138,0.0,0.0,-0.28902268409729,-0.3034402728080749
-0.2184474021196365,0.6549250483512878,0.0743952840566635,-0.0545080117881298,-0.2029594928026199,-0.0708911567926406,0.0,0.0,-0.1753302812576294,-0.2733365297317505
-0.2177391946315765,0.6534759402275085,0.074640579521656,-0.0649337321519851,-0.206812173128128,-0.0770535692572593,0.0,0.0,-0.1110949516296386,-0.6332232356071472
-0.2170777767896652,0.6518071293830872,0.0690594017505645,-0.0745867937803268,-0.2097569555044174,-0.0588956959545612,0.0,0.0,0.2003853321075439,-0.3812422752380371
-0.2162682563066482,0.650258481502533,0.0837412923574447,-0.0692317262291908,-0.2125737518072128,-0.0563359931111335,0.0,0.0,-0.6111682057380676,-0.277916669845581
-0.2154572904109954,0.6484761834144592,0.0841974392533302,-0.0796573683619499,-0.215702548623085,-0.0625763311982154,0.0,0.0,-0.4115657806396484,0.2020459175109863
-0.2146442830562591,0.6464605927467346,0.0847055464982986,-0.0900832638144493,-0.2191444039344787,-0.0688370391726493,0.0,0.0,0.4105439186096191,-0.2100670933723449
