x_pos,y_pos,x_vel,y_vel,angle,ang_vel,leg_1,leg_2,main_booster,lat_booster
-0.0015876770485192,1.4034650325775146,-0.1605129987001419,-0.3313290774822235,0.0015670954016968,0.0308979395776987,0.0,0.0,-0.3953195810317993,0.3644484281539917
-0.0032410621643066,1.3958740234375,-0.1666256636381149,-0.3373800218105316,0.0028378260321915,0.0254178456962108,0.0,0.0,-0.4110006093978882,0.8937697410583496
-0.0048753740265965,1.3881170749664309,-0.162268579006195,-0.3447502553462982,0.0016849410021677,-0.0230602659285068,0.0,0.0,-0.0464016795158386,0.5975191593170166
-0.0065397261641919,1.3801990747451782,-0.1640312820672989,-0.3519133627414703,-0.0006883731111884,-0.0474707037210464,0.0,0.0,-0.5482497811317444,0.1674997806549072
-0.008272647857666,1.3721216917037964,-0.1706105321645736,-0.3589922189712524,-0.0033417686354368,-0.0530731305480003,0.0,0.0,0.2803415060043335,0.6358892917633057
-0.0099058151245117,1.3645150661468506,-0.1593033522367477,-0.3380928039550781,-0.0073185660876333,-0.0795434117317199,0.0,0.0,-0.043236494064331,0.4290227890014648
-0.0116093633696436,1.356749176979065,-0.1660323590040207,-0.3451779186725616,-0.0115885371342301,-0.0854072347283363,0.0,0.0,-0.120125412940979,0.1832045316696167
-0.0133837703615427,1.348824381828308,-0.1728280931711197,-0.352256178855896,-0.0161581803113222,-0.091401070356369,0.0,0.0,-0.4348043203353882,0.723414421081543
-0.0151740070432424,1.3407471179962158,-0.1726731359958648,-0.3590629398822784,-0.0224367175251245,-0.1255821883678436,0.0,0.0,-0.494266927242279,0.3285232782363891
-0.0170364379882812,1.3325114250183103,-0.1795804947614669,-0.366144984960556,-0.0290247369557619,-0.1317723840475082,0.0,0.0,-0.528209924697876,0.5449800491333008
-0.0189226157963275,1.3241156339645386,-0.1803837567567825,-0.3733295202255249,-0.0371623262763023,-0.162767231464386,0.0,0.0,-0.6355828046798706,0.2354267835617065
-0.0208819396793842,1.3155614137649536,-0.1873840242624282,-0.3804141879081726,-0.0456184484064579,-0.1691382527351379,0.0,0.0,0.0168418884277343,0.6150398254394531
-0.0227560997009277,1.3074880838394165,-0.1774339228868484,-0.3591462969779968,-0.0555019229650497,-0.1976875364780426,0.0,0.0,-0.7839270830154419,0.7371978759765625
-0.0246397964656353,1.299244999885559,-0.1764202415943145,-0.3668449819087982,-0.0673435851931572,-0.2368549406528473,0.0,0.0,-0.6660275459289551,-0.0159430503845214
-0.0265978816896677,1.2908447980880735,-0.1835275739431381,-0.3739343881607055,-0.0795143768191337,-0.2434380054473877,0.0,0.0,-0.7653504610061646,-0.3869023323059082
-0.028630543500185,1.282287836074829,-0.1906673610210418,-0.3810272216796875,-0.0920182392001152,-0.2500996887683868,0.0,0.0,-0.553305447101593,-0.4075933694839477
-0.0307381637394428,1.2735742330551147,-0.1978360563516616,-0.3881217241287231,-0.1048575565218925,-0.2568099200725555,0.0,0.0,-0.8475155830383301,0.3810670375823974
-0.0329210273921489,1.2647039890289309,-0.2050308883190155,-0.3952176868915558,-0.1180348545312881,-0.2635696530342102,0.0,0.0,-0.900890052318573,0.1780986785888672
-0.0351791381835937,1.255677342414856,-0.212249606847763,-0.4023152589797973,-0.1315523236989975,-0.2703739404678345,0.0,0.0,-0.8485572338104248,-0.1198651790618896
-0.0375128760933876,1.2464945316314695,-0.2194901257753372,-0.4094145596027374,-0.1454119682312011,-0.2772178649902344,0.0,0.0,-0.8154340982437134,-0.2450525760650634
-0.0399226173758506,1.237155556678772,-0.2267504036426544,-0.4165155291557312,-0.1596155166625976,-0.2840967178344726,0.0,0.0,-0.3559261560440063,-0.9062257409095764
-0.0424778945744037,1.2276719808578491,-0.242784708738327,-0.4229102432727813,-0.1723901182413101,-0.2555153667926788,0.0,0.0,-0.7186031341552734,-0.1045917868614196
-0.0451093688607215,1.2180320024490356,-0.2500843405723572,-0.4300112128257751,-0.1855125874280929,-0.2624727189540863,0.0,0.0,-0.8269907832145691,-0.5079824328422546
-0.0478527061641216,1.208240032196045,-0.2618471682071686,-0.4368124306201935,-0.1980859041213989,-0.2514889538288116,0.0,0.0,-0.5424620509147644,-0.5436485409736633
-0.0507243163883686,1.1983085870742798,-0.2756967544555664,-0.4429739415645599,-0.2096582800149917,-0.2314680367708206,0.0,0.0,-0.521980345249176,-0.9128833413124084
-0.0537625327706337,1.1882320642471311,-0.2942860722541809,-0.4492343664169311,-0.2192980051040649,-0.1927937716245651,0.0,0.0,-0.8123984336853027,-0.0901858806610107
-0.0568779930472373,1.177998423576355,-0.3016718924045563,-0.4563253819942474,-0.2292908430099487,-0.199857085943222,0.0,0.0,-0.6218027472496033,0.561913251876831
-0.0600358955562114,1.1676019430160522,-0.3047241866588592,-0.463826835155487,-0.2405200600624084,-0.224584549665451,0.0,0.0,-0.9254488348960876,-0.4407050013542175
-0.0632710456848144,1.1570490598678589,-0.3121304214000702,-0.4709211587905884,-0.2521042227745056,-0.2316835671663284,0.0,0.0,-0.7647485733032227,-0.8110066652297974
-0.0666481032967567,1.1463615894317627,-0.327669084072113,-0.4767616391181946,-0.2623502910137176,-0.2049214839935302,0.0,0.0,-0.5514286160469055,-0.7574116587638855
-0.0701571479439735,1.1355478763580322,-0.3419838547706604,-0.482227623462677,-0.2714595198631286,-0.1821843534708023,0.0,0.0,-0.7206274271011353,-0.8186301589012146
-0.0738145858049392,1.1246018409729004,-0.3583418428897857,-0.4878823459148407,-0.2790565490722656,-0.1519412100315094,0.0,0.0,-0.7186647057533264,0.3891384601593017
-0.0775497406721115,1.1134988069534302,-0.3657727837562561,-0.4949722290039062,-0.2870102226734161,-0.1590736210346222,0.0,0.0,-0.5647093653678894,-0.4010246992111206
-0.0813624411821365,1.1022385358810425,-0.3732083439826965,-0.5020627975463867,-0.2953205108642578,-0.1662057340145111,0.0,0.0,-0.8882761001586914,-0.6707404851913452
-0.0853016823530197,1.0908451080322266,-0.386823832988739,-0.5078365206718445,-0.3026590049266815,-0.1467700004577636,0.0,0.0,-0.7417898774147034,-0.3183125257492065
-0.0893187522888183,1.0792945623397827,-0.3942655920982361,-0.5149266719818115,-0.3103536069393158,-0.15389184653759,0.0,0.0,-0.2987042665481567,0.0925889015197753
-0.0934133529663086,1.0675870180130005,-0.4017095565795898,-0.5220174789428711,-0.3184037804603576,-0.1610035449266433,0.0,0.0,-0.633755087852478,0.4096555709838867
-0.0975857749581337,1.05572247505188,-0.4091551303863525,-0.5291088819503784,-0.3268088400363922,-0.1681020408868789,0.0,0.0,-0.7173370718955994,0.0622577667236328
-0.1018358245491981,1.0437012910842896,-0.4166015088558197,-0.5362008810043335,-0.3355680704116821,-0.1751846224069595,0.0,0.0,-0.6987257599830627,0.0837570428848266
-0.1061634048819542,1.03152334690094,-0.4240480363368988,-0.5432936549186707,-0.3446803987026214,-0.1822474300861358,0.0,0.0,-0.65498948097229,-0.0645740032196044
-0.1105685234069824,1.0191888809204102,-0.4314939975738525,-0.5503870844841003,-0.354144811630249,-0.1892879903316497,0.0,0.0,-0.5081982016563416,0.1290154457092285
-0.1150509864091873,1.0066980123519895,-0.438938707113266,-0.5574811697006226,-0.3639599680900574,-0.1963032782077789,0.0,0.0,0.0635267496109008,-0.0492970943450927
-0.119480513036251,0.9943004846572876,-0.4336233139038086,-0.5534136891365051,-0.3738351762294769,-0.1975040286779403,0.0,0.0,-0.8675204515457153,-0.078784167766571
-0.123987391591072,0.9817463159561156,-0.441062867641449,-0.5605089664459229,-0.3840581178665161,-0.2044591158628463,0.0,0.0,-0.82369464635849,-0.1868574619293213
-0.1285715103149414,0.9690359234809875,-0.4484988152980804,-0.5676049590110779,-0.3946270942687988,-0.2113792449235916,0.0,0.0,-0.7165996432304382,0.3211483955383301
-0.1332326829433441,0.956169605255127,-0.4559304118156433,-0.5747016072273254,-0.4055401682853699,-0.2182611525058746,0.0,0.0,-0.829738199710846,0.3690686225891113
-0.1379707306623459,0.943147361278534,-0.4633567929267883,-0.5817990899085999,-0.4167952537536621,-0.2251015901565551,0.0,0.0,-0.0326023697853088,0.322913646697998
-0.1427856385707855,0.9299692511558532,-0.4707769751548767,-0.588897168636322,-0.4283901154994964,-0.2318971902132034,0.0,0.0,-0.4625439643859863,0.1212471723556518
-0.1476772278547287,0.9166354537010192,-0.4781901240348816,-0.5959961414337158,-0.4403223395347595,-0.2386445701122284,0.0,0.0,-0.2673106789588928,0.3921380043029785
-0.1526452004909515,0.9031461477279664,-0.4855952262878418,-0.6030958294868469,-0.4525893926620483,-0.245340347290039,0.0,0.0,0.4444875717163086,0.3049080371856689
-0.1573584526777267,0.8900924324989319,-0.4604061245918274,-0.5837478637695312,-0.4646083414554596,-0.2403782159090042,0.0,0.0,0.5873967409133911,-0.0045118927955627
-0.1618801057338714,0.8778698444366455,-0.4407870173454284,-0.5470871329307556,-0.4772122204303741,-0.2520778179168701,0.0,0.0,-0.6517744064331055,0.6827441453933716
-0.1664228439331054,0.8654454350471497,-0.4411511421203613,-0.5567951202392578,-0.4918413758277893,-0.2925837635993957,0.0,0.0,0.6425807476043701,-0.6548259258270264
-0.1707066595554351,0.8539535403251648,-0.4163123071193695,-0.5151160955429077,-0.5053977966308594,-0.2711279988288879,0.0,0.0,-0.1703169345855713,-0.8437274694442749
-0.175110250711441,0.842339813709259,-0.4292864799499511,-0.520305335521698,-0.5179373621940613,-0.2507913708686828,0.0,0.0,0.448714017868042,-0.2848870754241943
-0.1794573813676834,0.8311716914176941,-0.4230967164039612,-0.5008388161659241,-0.5311800241470337,-0.2648531198501587,0.0,0.0,0.3599094152450561,-0.5397284626960754
-0.1835092604160308,0.8206688761711121,-0.3945550918579101,-0.4710045158863067,-0.5434013605117798,-0.2444264888763427,0.0,0.0,0.5436704158782959,-0.8811244964599609
-0.1872439384460449,0.8107637166976929,-0.364400565624237,-0.4439181387424469,-0.5538819432258606,-0.2096122056245803,0.0,0.0,0.609412431716919,-0.7909813523292542
-0.1906125098466873,0.8017176985740662,-0.3291533291339874,-0.4052494764328003,-0.5628374218940735,-0.1791094094514846,0.0,0.0,0.8739615678787231,-0.9200755953788756
-0.1937183439731598,0.7937864065170288,-0.3042306005954742,-0.3551935255527496,-0.5702618956565857,-0.1484890580177307,0.0,0.0,0.8726162910461426,-0.618355393409729
-0.196662038564682,0.786212682723999,-0.2890547513961792,-0.3388998806476593,-0.5765088200569153,-0.1249387711286544,0.0,0.0,0.914871096611023,-0.3205090165138244
-0.199334055185318,0.7795997262001038,-0.2612029910087585,-0.2965298295021057,-0.5835821628570557,-0.141466274857521,0.0,0.0,0.9955921173095704,-0.5063904523849487
-0.2016374617815017,0.7735134959220886,-0.2254491746425628,-0.2726708948612213,-0.5893863439559937,-0.116083338856697,0.0,0.0,0.9526200294494628,-0.7422139644622803
-0.2036340236663818,0.7681975364685059,-0.1959404051303863,-0.2379306703805923,-0.5938037633895874,-0.0883487612009048,0.0,0.0,0.9247958660125732,-0.7770256996154785
-0.2054862082004547,0.7633426785469055,-0.1826965361833572,-0.2169079482555389,-0.5968096256256104,-0.0601167902350425,0.0,0.0,0.9705054759979248,-0.132337749004364
-0.20713672041893,0.7593297958374023,-0.1617428660392761,-0.1798557937145233,-0.6007646918296814,-0.0791012197732925,0.0,0.0,0.9907606840133668,-0.9282400608062744
-0.2083079814910888,0.7564815282821655,-0.1153333038091659,-0.1274122446775436,-0.6029114723205566,-0.0429358296096324,0.0,0.0,0.4683103561401367,-0.8698739409446716
-0.2093952149152755,0.7537762522697449,-0.1083407253026962,-0.1204134747385978,-0.6033710241317749,-0.0091915279626846,0.0,0.0,0.6098474264144897,-0.7657634615898132
-0.2101027965545654,0.7519739866256714,-0.0715972632169723,-0.0797114074230194,-0.6023626327514648,0.0201675985008478,0.0,0.0,-0.1783775091171264,-0.9536607265472412
-0.2109525650739669,0.7500836849212646,-0.087599329650402,-0.0828080177307128,-0.5992226004600525,0.0628010109066963,0.0,0.0,0.3515344858169555,-0.676476776599884
-0.2116700708866119,0.7488394379615784,-0.0753057301044464,-0.0536903105676174,-0.5949776768684387,0.0848983824253082,0.0,0.0,0.1011261940002441,-0.764744222164154
-0.2122525721788406,0.7479844093322754,-0.0630256161093711,-0.0358580239117145,-0.5892985463142395,0.1135828718543052,0.0,0.0,0.0527520179748535,-0.5966134667396545
-0.2127159535884857,0.7477642893791199,-0.0519445538520813,-0.0073071452789008,-0.5826486945152283,0.1329974830150604,0.0,0.0,0.0503609180450439,-0.7157696485519409
-0.2130454033613205,0.747848391532898,-0.039737083017826,0.0067001366987824,-0.5746440291404724,0.1600928157567978,0.0,0.0,-0.4753401279449463,-0.5070173740386963
-0.2134765684604644,0.7478064894676208,-0.0507461316883564,0.0013915193267166,-0.565701425075531,0.1788522601127624,0.0,0.0,0.0663572549819946,-0.6628877520561218
-0.2138635665178299,0.7478688359260559,-0.0474450401961803,0.0064401025883853,-0.5555046796798706,0.2039349824190139,0.0,0.0,-0.1503570079803466,-0.7512428760528564
-0.2143682986497879,0.7478170394897461,-0.0605644099414348,0.0018292177701368,-0.5438199043273926,0.2336960136890411,0.0,0.0,-0.5377824902534485,-0.5694396495819092
-0.214970976114273,0.7476482391357422,-0.0713520869612693,-0.0030882772989571,-0.5310772657394409,0.254852294921875,0.0,0.0,-0.1681877374649047,-0.3188757300376892
-0.2156334817409515,0.747323215007782,-0.077266052365303,-0.0101842265576124,-0.5185065269470215,0.2514156401157379,0.0,0.0,-0.1497208476066589,-0.4464514255523681
-0.2163542807102203,0.7468418478965759,-0.0830304622650146,-0.0172794573009014,-0.5060995817184448,0.2481390535831451,0.0,0.0,0.0590076446533203,-0.0024513602256774
-0.2171013802289962,0.7465428709983826,-0.0852541998028755,-0.0094395941123366,-0.4942320883274078,0.237349659204483,0.0,0.0,-0.0401961207389831,-0.2404491901397705
-0.2179033756256103,0.7460872530937195,-0.0906815752387046,-0.0165328029543161,-0.4825125336647033,0.2343911826610565,0.0,0.0,-0.0282660722732543,-0.2750540971755981
-0.2187583893537521,0.7454747557640076,-0.0959207788109779,-0.0236253850162029,-0.470933049917221,0.2315897941589355,0.0,0.0,0.2774760723114013,0.5086491107940674
-0.2194314897060394,0.7454119324684143,-0.076615534722805,0.0003354019136168,-0.4606483280658722,0.2056946456432342,0.0,0.0,0.6532180309295654,0.0150238275527954
-0.2198530733585357,0.7461400628089905,-0.0513492636382579,0.0353693291544914,-0.450543612241745,0.2020943462848663,0.0,0.0,0.1025396585464477,-0.6674906015396118
-0.2201398313045501,0.7472266554832458,-0.0391406491398811,0.0516233034431934,-0.4390946626663208,0.2289789170026779,0.0,0.0,-0.0950270295143127,-0.6313456892967224
-0.2205151617527008,0.7481811046600342,-0.0491156950592994,0.0459906905889511,-0.426500529050827,0.2518827021121979,0.0,0.0,0.110345721244812,-0.0056868195533752
-0.2207628786563873,0.7493096590042114,-0.0365921631455421,0.0536832101643085,-0.4137206971645355,0.2555966973304748,0.0,0.0,-0.6257656812667847,-0.3038420677185058
-0.2210488319396972,0.7502813935279846,-0.0403974615037441,0.0465905219316482,-0.4010365307331085,0.2536832988262176,0.0,0.0,-0.5476589202880859,0.107542872428894
-0.2213701754808426,0.7510964870452881,-0.0439110025763511,0.0394982621073722,-0.3884412348270416,0.2519057691097259,0.0,0.0,-0.5573652386665344,0.6381008625030518
-0.2216767370700836,0.7517305016517639,-0.0411872379481792,0.0310113672167062,-0.3772270679473877,0.2242831885814666,0.0,0.0,-0.3913098573684692,-0.1167788505554199
-0.2220123708248138,0.7522071599960327,-0.0440739318728446,0.0239222664386034,-0.3660888671875,0.2227640599012375,0.0,0.0,-0.3333206176757812,0.158554196357727
-0.2223738133907318,0.7525264620780945,-0.0466287545859813,0.0168335102498531,-0.3550205528736114,0.2213662564754486,0.0,0.0,-0.0821089744567871,0.1818828582763672
-0.2227575331926345,0.7526883482933044,-0.0488403961062431,0.009745062328875,-0.3440163135528564,0.2200846672058105,0.0,0.0,-0.2620872259140014,0.5445516109466553
-0.223123550415039,0.752671480178833,-0.0460838377475738,0.0014811180299147,-0.3340905606746673,0.1985149085521698,0.0,0.0,-0.3980473279953003,0.0670825242996215
-0.2235046923160553,0.7524968385696411,-0.0475801117718219,-0.0056051048450171,-0.3242180347442627,0.1974503099918365,0.0,0.0,-0.0684921145439148,-0.0298694372177124
-0.2238972634077072,0.7521645426750183,-0.0487085208296775,-0.0126910964027047,-0.3143937289714813,0.1964859515428543,0.0,0.0,-0.1168360710144043,0.5056310892105103
-0.2242665737867355,0.751663863658905,-0.0455791391432285,-0.020403254777193,-0.3054259121417999,0.1793562024831771,0.0,0.0,-0.1460423469543457,0.1467227935791015
-0.224639743566513,0.751005232334137,-0.0459593832492828,-0.0274876300245523,-0.2964970767498016,0.1785766780376434,0.0,0.0,-0.0734122991561889,0.3878349065780639
-0.2250130623579025,0.750188410282135,-0.0459639877080917,-0.0345718339085578,-0.2876030206680298,0.1778815239667892,0.0,0.0,-0.0576725006103515,-0.0178478360176086
-0.2253828048706054,0.7492135167121887,-0.0455944463610649,-0.041655883193016,-0.2787397801876068,0.1772657036781311,0.0,0.0,-0.5979435443878174,0.3862396478652954
-0.2257452011108398,0.7480805516242981,-0.044854249805212,-0.0487398020923137,-0.2699035704135895,0.1767241656780243,0.0,0.0,-0.4323688745498657,0.2425605058670044
-0.2260965406894683,0.7467893958091736,-0.0437488183379173,-0.0558236017823219,-0.2610909640789032,0.1762519776821136,0.0,0.0,-0.3373589515686035,0.1116985082626342
-0.2264332771301269,0.74534010887146,-0.0422853603959083,-0.0629072934389114,-0.2522987127304077,0.1758443564176559,0.0,0.0,-0.3891806006431579,-0.4926144480705261
-0.2267518043518066,0.7437325119972229,-0.0404727235436439,-0.0699908956885337,-0.2435238808393478,0.1754965186119079,0.0,0.0,-0.4918693900108337,-0.4158342480659485
-0.2270488291978836,0.7419668436050415,-0.0383211709558963,-0.0770744308829307,-0.2347636967897415,0.1752039790153503,0.0,0.0,-0.7463330030441284,-0.6888012290000916
-0.2273602038621902,0.7400625348091125,-0.0408110097050666,-0.0831210538744926,-0.2249565869569778,0.1961423307657241,0.0,0.0,-0.870399534702301,0.3567397594451904
-0.22764353454113,0.7380004525184631,-0.0380177795886993,-0.0902060642838478,-0.2151592671871185,0.1959462314844131,0.0,0.0,-0.6595236659049988,0.0813665390014648
-0.2278957813978195,0.7357802987098694,-0.0349230132997036,-0.0972910225391388,-0.2053696811199188,0.195791870355606,0.0,0.0,-0.9303183555603028,0.3123146295547485
-0.2281140834093094,0.7334021925926208,-0.0315406322479248,-0.1043759584426879,-0.1955859363079071,0.1956748962402343,0.0,0.0,-0.8573680520057678,0.6490100622177124
-0.2282451093196869,0.7308576107025146,-0.0215535126626491,-0.1120026037096977,-0.1870898455381393,0.169921800494194,0.0,0.0,-0.8294419050216675,0.6569485664367676
-0.228280022740364,0.7281443476676941,-0.0105101615190505,-0.1197235435247421,-0.180043876171112,0.1409196555614471,0.0,0.0,-0.8320396542549133,0.9260978698730468
-0.2281922847032547,0.7252454161643982,0.0038550428580492,-0.1282515674829483,-0.1751080900430679,0.098715528845787,0.0,0.0,-0.7489129900932312,0.4409167766571045
-0.2280605733394622,0.7221875786781311,0.008245201781392,-0.1353305876255035,-0.1701727509498596,0.0987067446112632,0.0,0.0,-0.8238542079925537,0.4383943080902099
-0.2278827726840973,0.7189709544181824,0.0128510165959596,-0.1424095779657364,-0.1652370393276214,0.0987141132354736,0.0,0.0,-0.9070959687232972,0.5964548587799072
-0.2276120632886886,0.7155836224555969,0.0232891924679279,-0.1501300036907196,-0.1614524722099304,0.0756912976503372,0.0,0.0,-0.8999411463737488,0.9188783168792723
-0.2272167652845382,0.7120173573493958,0.0376633368432521,-0.1583026945590973,-0.1595866680145263,0.0373160615563392,0.0,0.0,-0.9005646705627441,0.396496057510376
-0.2267697304487228,0.7082917094230652,0.0428357720375061,-0.1653799414634704,-0.1577193588018417,0.0373460836708545,0.0,0.0,-0.8240071535110474,0.6937980651855469
-0.2262060642242431,0.7043949961662292,0.0561103336513042,-0.1731598079204559,-0.1574623584747314,0.0051399730145931,0.0,0.0,-0.9264703392982484,0.3431887626647949
-0.2255875170230865,0.7003390789031982,0.0615982636809349,-0.1802367866039276,-0.1572042107582092,0.0051629776135087,0.0,0.0,-0.7239353060722351,0.6760995388031006
