x_pos,y_pos,x_vel,y_vel,angle,ang_vel,leg_1,leg_2,main_booster,lat_booster
-0.0015238762134686,1.4032121896743774,-0.1543593406677246,-0.3425780534744262,0.0017739239847287,0.034992791712284,0.0,0.0,0.6053906651584178,0.2921359033642541
-0.0029982565902173,1.3957873582839966,-0.1494346559047699,-0.3299904465675354,0.0037468781229108,0.0394635610282421,0.0,0.0,-0.2280001373032136,-0.7238517850442974
-0.0045171738602221,1.3879443407058716,-0.1550086438655853,-0.3485950827598572,0.0068344911560416,0.0617579109966754,0.0,0.0,-0.4291501165503733,-0.353553072345675
-0.0060362815856933,1.3796889781951904,-0.1550274789333343,-0.366923838853836,0.0099215060472488,0.0617458336055278,0.0,0.0,0.1711593589345612,-0.1418172291098403
-0.0074687004089355,1.371716022491455,-0.1468037217855453,-0.3543786406517029,0.0134458048269152,0.0704925507307052,0.0,0.0,0.5812971088106786,0.1231952904086305
-0.0087769506499171,1.3641130924224854,-0.1350216716527938,-0.3379488587379455,0.0175964925438165,0.0830212980508804,0.0,0.0,-0.9656234187315254,0.2440701175897378
-0.0100853918120265,1.356098175048828,-0.1350444704294204,-0.3562812805175781,0.0217451602220535,0.0829809308052063,0.0,0.0,-0.6970270713936482,0.7612534115887147
-0.0113194463774561,1.3476754426956177,-0.1256934851408004,-0.3743724822998047,0.024011056870222,0.0453223660588264,0.0,0.0,0.4568928077960945,0.6038595866754605
-0.0125354770570993,1.3399549722671509,-0.122660219669342,-0.3431501090526581,0.0250519718974828,0.0208202339708805,0.0,0.0,-0.6032534543494665,-0.6990983607325933
-0.013806914910674,1.3318241834640503,-0.1295967996120453,-0.3614088892936706,0.0274771079421043,0.0485072508454322,0.0,0.0,0.6176958077350485,-0.4296377810839731
-0.0150101659819483,1.324157476425171,-0.1231798306107521,-0.3407951593399048,0.0302984099835157,0.0564315021038055,0.0,0.0,0.1114211929626955,-0.8879718668701008
-0.0162385944277048,1.3166089057922363,-0.1274909377098083,-0.3355967700481415,0.0348955057561397,0.0919503793120384,0.0,0.0,-0.481042154549667,-0.5327104470539601
-0.0175004005432128,1.3086491823196411,-0.1316512823104858,-0.3539022803306579,0.0403155200183391,0.1084098815917968,0.0,0.0,0.5528316457927387,0.8966302640289177
-0.0186321251094341,1.3007781505584717,-0.1169459968805313,-0.3499345481395721,0.0440558120608329,0.074812576174736,0.0,0.0,0.3293375218952208,-0.9258060939240292
-0.0197360031306743,1.2935022115707395,-0.1161279901862144,-0.3235524296760559,0.0497325249016284,0.113544225692749,0.0,0.0,-0.8078739658481304,-0.5126302681165944
-0.0208731647580862,1.2858059406280518,-0.1202845349907875,-0.3422940969467163,0.0562360435724258,0.1300822347402572,0.0,0.0,0.6362854564720581,0.040515213247559
-0.0219220165163278,1.2789782285690308,-0.1120956763625145,-0.3037409484386444,0.0633744671940803,0.1427815407514572,0.0,0.0,-0.4605479597813373,0.1327146445652967
-0.0229712482541799,1.2717387676239014,-0.1121280416846275,-0.3220836818218231,0.0705059841275215,0.1426438242197036,0.0,0.0,-0.1758544605177758,0.1485240814096934
-0.024021053686738,1.2640873193740845,-0.1121614128351211,-0.3404122292995453,0.0776309370994567,0.1425119340419769,0.0,0.0,-0.524433663773981,-0.2663522574114806
-0.0250711441040039,1.2560241222381592,-0.1121944561600685,-0.358744353055954,0.084748700261116,0.1423682868480682,0.0,0.0,-0.1345820947143998,-0.3684908705439391
-0.0261218063533306,1.247549295425415,-0.1122276037931442,-0.3770772516727447,0.0918589830398559,0.1422184854745865,0.0,0.0,-0.6882723771061965,-0.0603797954667502
-0.027172852307558,1.238662600517273,-0.1122606843709945,-0.3954104483127594,0.0989614725112915,0.1420627534389495,0.0,0.0,0.6238730178382279,0.4327048872524718
-0.028150176629424,1.2301820516586304,-0.1054797992110252,-0.3774400055408478,0.1066492274403572,0.1537690013647079,0.0,0.0,0.3300583205983465,-0.1714618862915242
-0.029098892584443,1.2216734886169434,-0.1028580889105796,-0.3787413835525512,0.1145891919732093,0.1588135361671447,0.0,0.0,0.9761437701297772,0.6832579682291985
-0.0302639957517385,1.2138803005218506,-0.1226449459791183,-0.3468473553657532,0.1206903904676437,0.1220350116491317,0.0,0.0,0.8676598983487647,0.3310568673025235
-0.0316871628165245,1.2068092823028564,-0.1476726680994033,-0.3147135078907013,0.1260219812393188,0.1066318601369857,0.0,0.0,-0.0684648923054775,-0.6223585548234428
-0.0331594459712505,1.199320912361145,-0.153810515999794,-0.333385020494461,0.1325787007808685,0.1311343014240265,0.0,0.0,0.3568935405616416,-0.1625731136422856
-0.0348278991878032,1.192407250404358,-0.1729215681552887,-0.3078250288963318,0.1386307328939438,0.1210407614707946,0.0,0.0,-0.7480384907178552,-0.8056590673883527
-0.0365739837288856,1.185072422027588,-0.1826364696025848,-0.3267577886581421,0.1466301530599594,0.1599884629249572,0.0,0.0,0.1885814118581483,-0.5839562519040052
-0.0384337417781353,1.177830934524536,-0.1951134800910949,-0.3227763772010803,0.1557607650756836,0.1826120465993881,0.0,0.0,-0.1574782985024649,-0.7519458753621345
-0.0403515808284282,1.1701732873916626,-0.2023605555295944,-0.3414850234985351,0.1663358807563781,0.2115026414394378,0.0,0.0,-0.947512984275818,0.9646725654602052
-0.0422035232186317,1.1621153354644775,-0.1940826326608657,-0.3591459989547729,0.1752227991819381,0.1777383685111999,0.0,0.0,-0.9318926334381104,0.9529825448989868
-0.043993093073368,1.1536718606948853,-0.1861559897661209,-0.3761373162269592,0.1824466586112976,0.1444775611162185,0.0,0.0,-0.9557934403419496,0.9908275604248048
-0.0457130447030067,1.1448266506195068,-0.1774075478315353,-0.3937966227531433,0.1878900974988937,0.1088689118623733,0.0,0.0,-0.9578428864479064,0.9891823530197144
-0.0473546013236045,1.1355937719345093,-0.1675338447093963,-0.4107783734798431,0.1912840604782104,0.067879244685173,0.0,0.0,-0.9930230975151062,0.9926388263702391
-0.0489181503653526,1.1259790658950806,-0.1576695740222931,-0.427493005990982,0.1926105916500091,0.0265308916568756,0.0,0.0,-0.9385308027267456,0.9908788204193116
-0.0504076965153217,1.1159684658050537,-0.1483805030584335,-0.4448390901088714,0.1920282840728759,-0.011646176688373,0.0,0.0,-0.8545512557029724,0.9365426301956176
-0.0518213286995887,1.1055752038955688,-0.13877734541893,-0.4615919291973114,0.1894323080778122,-0.051919799298048,0.0,0.0,-0.906000554561615,0.9848315715789796
-0.0531652458012104,1.0948010683059692,-0.1299485713243484,-0.4782928824424743,0.1849716603755951,-0.0892127752304077,0.0,0.0,-0.9755600094795228,0.9166251420974731
-0.0544350631535053,1.0836368799209597,-0.1206075698137283,-0.4954006373882293,0.1785751283168792,-0.1279310882091522,0.0,0.0,-0.96381413936615,0.8679194450378418
-0.055650521069765,1.0720833539962769,-0.1137274727225303,-0.5125699639320374,0.170732319355011,-0.1568557918071746,0.0,0.0,-0.9810022711753844,0.9793484210968018
-0.0567743293941021,1.0601401329040527,-0.1021654158830642,-0.5296703577041626,0.1605164408683776,-0.2043175995349884,0.0,0.0,-0.953499436378479,0.5729507207870483
-0.0578457824885845,1.0477925539016724,-0.0955867022275924,-0.5475786924362183,0.1489621847867965,-0.2310849130153656,0.0,0.0,-0.9641311764717102,0.6102299690246582
-0.0588621124625206,1.0350457429885864,-0.0886041969060897,-0.5652719736099243,0.1359769105911255,-0.2597059309482574,0.0,0.0,-0.8778435587882996,0.3154373168945312
-0.0598788261413574,1.0218888521194458,-0.088614821434021,-0.5836116671562195,0.1229817047715187,-0.2599044144153595,0.0,0.0,-0.9700629115104676,-0.4722142219543457
-0.0608959197998046,1.008321762084961,-0.0886256471276283,-0.601951539516449,0.1099765077233314,-0.2601039707660675,0.0,0.0,-0.9931851625442504,-0.8830370306968689
-0.0619754791259765,0.9943293929100036,-0.0964342504739761,-0.621081531047821,0.0985462442040443,-0.2286052256822586,0.0,0.0,-0.9948278665542604,-0.7058448195457458
-0.0631216987967491,0.9799238443374634,-0.1047719866037368,-0.6396285891532898,0.0887729227542877,-0.1954662501811981,0.0,0.0,-0.9526240229606628,-0.7395607233047485
-0.0643398314714431,0.965104043483734,-0.1137487292289733,-0.6582031846046448,0.0807856246829032,-0.1597458720207214,0.0,0.0,-0.9151017069816588,-0.630068302154541
-0.0656095519661903,0.9498645067214966,-0.1202066913247108,-0.6769633889198303,0.0740877389907836,-0.1339577734470367,0.0,0.0,-0.9304671883583068,0.2064859867095947
-0.0668795555830001,0.9342132806777954,-0.1202194094657898,-0.6952930688858032,0.0673795342445373,-0.1341641098260879,0.0,0.0,-0.9123568534851074,-0.4820160865783691
-0.0681497603654861,0.9181501865386964,-0.1202320605516433,-0.7136226892471313,0.0606609843671321,-0.1343711018562317,0.0,0.0,-0.967950701713562,-0.1521897912025451
-0.0694203376770019,0.9016754031181335,-0.1202446445822715,-0.7319523096084595,0.0539320595562458,-0.1345786452293396,0.0,0.0,-0.2720362544059753,-0.8233135938644409
-0.0707560554146766,0.8847910761833191,-0.1284039616584777,-0.7502369284629822,0.0488209128379821,-0.1022229045629501,0.0,0.0,-0.4138290882110595,-0.9556601643562316
-0.0721487030386924,0.8674868941307068,-0.1355375200510025,-0.7689573168754578,0.0451309718191623,-0.0737989172339439,0.0,0.0,-0.1902576088905334,-0.7966136932373047
-0.0736145004630088,0.8497620224952698,-0.1446950882673263,-0.7877176403999329,0.043267510831356,-0.0372689329087734,0.0,0.0,-0.5086068511009216,0.4835983514785766
-0.0750805884599685,0.8316248655319214,-0.144707515835762,-0.8060438632965088,0.0413935706019401,-0.0374788083136081,0.0,0.0,0.4250624179840088,0.9321752786636353
-0.076361559331417,0.8139641880989075,-0.124431274831295,-0.7848251461982727,0.0377795957028865,-0.0722796618938446,0.0,0.0,-0.6480519771575928,0.0014624595642089
-0.0776426345109939,0.7958912253379822,-0.1244433671236038,-0.8031520843505859,0.0341550931334495,-0.0724901109933853,0.0,0.0,0.2280138731002807,0.5475900173187256
-0.0789628028869628,0.7782855033874512,-0.1271041333675384,-0.7823660969734192,0.029306061565876,-0.0969806984066963,0.0,0.0,-0.1405354142189026,-0.3002296090126037
-0.0802831649780273,0.7602679133415222,-0.127115860581398,-0.8006940484046936,0.0244464706629514,-0.097191646695137,0.0,0.0,0.7759191989898682,-0.3658864498138428
-0.0817299857735633,0.742965042591095,-0.1392386704683303,-0.7689388990402222,0.0190777089446783,-0.1073750630021095,0.0,0.0,0.3914899826049804,-0.5742630362510681
-0.0831172913312912,0.7259039282798767,-0.1346960514783859,-0.7582296133041382,0.0150874331593513,-0.0798054933547973,0.0,0.0,0.0927486419677734,0.2801727056503296
-0.0844954475760459,0.7090389132499695,-0.1338320970535278,-0.7495175004005432,0.0111586451530456,-0.0785756185650825,0.0,0.0,0.3696650266647339,0.8029453754425049
-0.0858065634965896,0.6922555565834045,-0.125514343380928,-0.7458911538124084,0.005631981883198,-0.1105333417654037,0.0,0.0,-0.0220202803611755,0.3148037195205688
-0.0871178656816482,0.675060510635376,-0.1255251616239547,-0.7642195820808411,9.472540114074944e-05,-0.1107451170682907,0.0,0.0,0.7190241813659668,0.1021854877471923
-0.0884071364998817,0.6587890386581421,-0.1234122365713119,-0.7231842875480652,-0.0053498297929763,-0.1088912039995193,0.0,0.0,-0.4371645450592041,0.391165018081665
-0.0896966904401779,0.6421056985855103,-0.123422659933567,-0.741512656211853,-0.0108049809932708,-0.1091031208634376,0.0,0.0,0.5631062984466553,0.2804737091064453
-0.0909521132707595,0.6262214183807373,-0.1201200932264328,-0.7060166597366333,-0.0161524657160043,-0.1069501265883445,0.0,0.0,-0.8212655782699585,0.1941971778869629
-0.0922077149152755,0.6099250912666321,-0.1201300844550132,-0.7243450284004211,-0.0215105675160884,-0.1071621403098106,0.0,0.0,0.4085103273391723,0.2628753185272217
-0.0935292243957519,0.594085156917572,-0.1263563930988311,-0.7040905356407166,-0.0272414404898881,-0.1146171316504478,0.0,0.0,-0.549728274345398,0.8136312961578369
-0.0947834029793739,0.5778322219848633,-0.1178743094205856,-0.7225054502487183,-0.0346837230026721,-0.1488456279039383,0.0,0.0,-0.6132230162620544,0.4371098279953003
-0.096037670969963,0.5611677765846252,-0.1178836971521377,-0.740835964679718,-0.0421365797519683,-0.1490571349859237,0.0,0.0,0.4864907264709472,0.6113128662109375
-0.097149945795536,0.5448629260063171,-0.1026018038392067,-0.7249272465705872,-0.0506588667631149,-0.1704457104206085,0.0,0.0,-0.0613207817077636,-0.1473776698112487
-0.0982624068856239,0.5281466841697693,-0.1026108488440513,-0.7432593107223511,-0.0591916851699352,-0.1706567257642746,0.0,0.0,0.6477762460708618,-0.2794901728630066
-0.0992881804704666,0.5114985704421997,-0.0942475572228431,-0.7402703166007996,-0.0674213543534278,-0.1645933836698532,0.0,0.0,0.894234299659729,-0.2063961625099182
-0.1003238707780838,0.4950250685214996,-0.0950784683227539,-0.7325612902641296,-0.0758291780948638,-0.1681564152240753,0.0,0.0,0.8237214088439941,-0.6508125066757202
-0.1013544052839279,0.4794624745845794,-0.0958325192332267,-0.6920535564422607,-0.0829745978116989,-0.1429082453250885,0.0,0.0,0.8928383588790894,-0.2389655113220214
-0.1022162437438964,0.4648739695549011,-0.0793809369206428,-0.6487729549407959,-0.0897064208984375,-0.1346364915370941,0.0,0.0,-0.2186803817749023,-0.0907418131828308
-0.103078082203865,0.449873685836792,-0.0793885961174964,-0.6671027541160583,-0.0964487716555595,-0.1348468363285064,0.0,0.0,0.4818288087844848,-0.4642093181610107
-0.1040269881486892,0.4349220693111419,-0.0875438973307609,-0.665009081363678,-0.1037384122610092,-0.1457931399345398,0.0,0.0,0.6417064666748047,-0.6418359875679016
-0.1049015074968338,0.4207373261451721,-0.0814892053604126,-0.630854070186615,-0.1096568927168846,-0.1183696761727333,0.0,0.0,0.1921573877334594,-0.7498649954795837
-0.1058722510933876,0.406783252954483,-0.092524379491806,-0.6205238103866577,-0.1141765713691711,-0.0903937816619873,0.0,0.0,0.3913130760192871,0.2281856536865234
-0.106824018061161,0.393275648355484,-0.0903970450162887,-0.6007112264633179,-0.1189202666282653,-0.0948739349842071,0.0,0.0,-0.9054700136184692,0.2773140668869018
-0.1077757850289344,0.3793559968471527,-0.0904029831290245,-0.6190391778945923,-0.1236743927001953,-0.0950824618339538,0.0,0.0,-0.279338002204895,-0.7880202531814575
-0.1087806671857833,0.365034282207489,-0.0970484465360641,-0.6368104815483093,-0.1270934045314788,-0.0683801099658012,0.0,0.0,0.66162109375,0.2925798892974853
-0.1097183227539062,0.3508081436157226,-0.0904349908232688,-0.6325635313987732,-0.1304125338792801,-0.0663824677467346,0.0,0.0,0.944148063659668,-0.1143507361412048
-0.1104863137006759,0.3368530571460724,-0.0739602223038673,-0.6204735636711121,-0.1332370638847351,-0.0564905926585197,0.0,0.0,0.9282801151275636,-0.576068639755249
-0.1110298186540603,0.3234492540359497,-0.0531723611056804,-0.5958349108695984,-0.13440802693367,-0.0234192460775375,0.0,0.0,0.9473562240600586,-0.8284425139427185
-0.1113987937569618,0.3102948367595672,-0.0377472564578056,-0.5845639109611511,-0.133560225367546,0.0169555991888046,0.0,0.0,0.8725006580352783,-0.6202684640884399
-0.1117094978690147,0.2980096042156219,-0.0331388600170612,-0.5458258986473083,-0.1314994543790817,0.0412155203521251,0.0,0.0,0.725949764251709,0.1894512176513672
-0.1118843108415603,0.2864841222763061,-0.0196948237717151,-0.512048602104187,-0.1292993575334549,0.0440021120011806,0.0,0.0,0.3982510566711426,0.2777829170227051
-0.1118819266557693,0.2753658294677734,-0.0024543029721826,-0.4939156174659729,-0.1266218274831771,0.0535507202148437,0.0,0.0,0.0418484210968017,-0.2771857976913452
-0.1117905601859092,0.2641295790672302,0.0061564436182379,-0.4991390109062195,-0.123660147190094,0.0592337734997272,0.0,0.0,0.454345703125,0.39391028881073
-0.1116899475455284,0.2531569898128509,0.0073093497194349,-0.4874467551708221,-0.1209224089980125,0.0547547861933708,0.0,0.0,0.6293351650238037,-0.2827540636062622
-0.1114039421081543,0.2430240213871002,0.0254714582115411,-0.4501025974750519,-0.117808498442173,0.062278252094984,0.0,0.0,-0.1270806789398193,-0.4937479496002197
-0.1111179366707801,0.2324789315462112,0.0254693534225225,-0.4684294760227203,-0.114704392850399,0.0620824620127677,0.0,0.0,0.490969181060791,-0.4623280763626098
-0.1108614951372146,0.2226106226444244,0.0230531319975852,-0.4383939206600189,-0.1121294423937797,0.0514988005161285,0.0,0.0,0.1693439483642578,-0.4478024244308471
-0.1104886084794998,0.2130560278892517,0.0344149693846702,-0.4244373738765716,-0.1092791557312011,0.0570058710873127,0.0,0.0,0.2002899646759033,-0.6249815821647644
-0.1101482361555099,0.2039216309785843,0.0299903787672519,-0.4056816399097442,-0.1052589938044548,0.0804032832384109,0.0,0.0,-0.2176413536071777,-0.0788499116897583
-0.1098078712821006,0.1943751126527786,0.0299892332404851,-0.4240090250968933,-0.1012481898069381,0.0802161544561386,0.0,0.0,0.4780480861663818,0.4330403804779053
-0.1094447150826454,0.185084730386734,0.0323825702071189,-0.4126456081867218,-0.0973495543003082,0.0779728665947914,0.0,0.0,-0.0073105096817016,0.4283910989761352
-0.109081745147705,0.1753822863101959,0.032381922006607,-0.4309729337692261,-0.0934599563479423,0.0777914375066757,0.0,0.0,0.5118532180786133,0.6696450710296631
-0.1087716072797775,0.1659955531358719,0.0287454240024089,-0.4170481562614441,-0.0912179797887802,0.0448393784463405,0.0,0.0,0.0571522712707519,0.3805159330368042
-0.108352281153202,0.156874194741249,0.0393688380718231,-0.4052397310733795,-0.0886712297797203,0.0509351380169391,0.0,0.0,0.4723525047302246,-0.1840710639953613
-0.1078494042158126,0.1478246301412582,0.0474724359810352,-0.4020385444164276,-0.0858801379799842,0.0558219663798809,0.0,0.0,0.3834596872329712,-0.4300686717033386
-0.1071707755327224,0.1393020749092102,0.0644891187548637,-0.3785941302776336,-0.0825355574488639,0.0668915286660194,0.0,0.0,0.3795106410980224,-0.6573668122291565
-0.1065113097429275,0.131350427865982,0.061296559870243,-0.353155642747879,-0.0779266282916069,0.0921784713864326,0.0,0.0,0.0603705644607543,0.1314749717712402
-0.1057177558541297,0.1237963289022445,0.0742706209421157,-0.3354851305484772,-0.072902001440525,0.1004929095506668,0.0,0.0,-0.2948464155197143,-0.0407496690750122
-0.1049243956804275,0.1158301681280136,0.0742711573839187,-0.3538132905960083,-0.0678849443793296,0.1003411039710044,0.0,0.0,0.3253577947616577,-0.0977603197097778
-0.1040924042463302,0.1084328517317771,0.0781668871641159,-0.3285515904426574,-0.0629019886255264,0.0996589809656143,0.0,0.0,-0.0021992325782775,-0.1891179680824279
-0.1032604202628135,0.1006234735250473,0.0781676918268203,-0.3468796908855438,-0.0579260289669036,0.0995190888643264,0.0,0.0,0.7098760604858398,0.5517442226409912
-0.1022684127092361,0.0930983424186706,0.0950432121753692,-0.3342957496643066,-0.0538167022168636,0.0821865200996398,0.0,0.0,0.4280571937561035,0.0498474836349487
-0.1013532653450965,0.0859701037406921,0.0878582894802093,-0.3166836202144623,-0.0502027496695518,0.072279118001461,0.0,0.0,0.2228834629058838,0.0988626480102539
-0.1005139350891113,0.079007588326931,0.0807279720902443,-0.3093385696411133,-0.047034241259098,0.063370257616043,0.0,0.0,0.3805755376815796,0.0147358179092407
-0.09967041015625,0.072340041399002,0.0812321677803993,-0.2962419390678406,-0.0439545288681983,0.0615943446755409,0.0,0.0,0.3960442543029785,-0.127328872680664
-0.0987852066755294,0.0659342855215072,0.0853049531579017,-0.284608393907547,-0.0407784357666969,0.0635218769311904,0.0,0.0,-0.0476806163787841,0.62690269947052
-0.0978398323059082,0.059106882661581,0.0928595513105392,-0.3033952414989471,-0.039125483483076,0.0330591574311256,0.0,0.0,0.6704978942871094,0.5917408466339111
-0.0967145934700965,0.0528971068561077,0.1117822974920272,-0.275970995426178,-0.0383882224559783,0.0147449057549238,0.0,0.0,0.3069542646408081,-0.0386203527450561
-0.095545008778572,0.047230277210474,0.1161228865385055,-0.251836359500885,-0.0375629663467407,0.0165049731731414,0.0,0.0,-0.1350690126419067,-0.4820294380187988
-0.0943754166364669,0.0411511771380901,0.1161242350935936,-0.2701624035835266,-0.0367408730089664,0.0164420437067747,0.0,0.0,0.6248340606689453,-0.3775625228881836
