x_pos,y_pos,x_vel,y_vel,angle,ang_vel,leg_1,leg_2,main_booster,lat_booster
-0.0015225410461425,1.402934193611145,-0.1542079448699951,-0.3549313545227051,0.0017492811894044,0.0345051661133766,0.0,0.0,0.0897482633590698,0.7721505165100098
-0.002943706465885,1.3947339057922363,-0.1423060595989227,-0.3644541800022125,0.0019392424728721,0.0038003609515726,0.0,0.0,-0.0568604469299316,0.7493159770965576
-0.0042901039123535,1.3858375549316406,-0.1329823732376098,-0.3953924179077148,0.0002983419690281,-0.0328209139406681,0.0,0.0,-0.2868680953979492,0.6528515815734863
-0.0055917738936841,1.376248836517334,-0.1274286657571792,-0.4261684417724609,-0.002399030374363,-0.0539523437619209,0.0,0.0,0.0145121812820434,0.2089923620223999
-0.0068087577819824,1.3665703535079956,-0.1193322390317916,-0.4301657378673553,-0.0047362344339489,-0.0467487759888172,0.0,0.0,-0.4135274291038513,0.4689960479736328
-0.0080205919221043,1.3562012910842896,-0.1187975779175758,-0.4608516693115234,-0.0070917280390858,-0.0471143089234828,0.0,0.0,0.578326940536499,0.4946513175964355
-0.0092442510649561,1.3459699153900146,-0.1198533400893211,-0.4547424912452698,-0.0095661487430334,-0.0494934394955635,0.0,0.0,0.0879665613174438,0.6060056686401367
-0.0102992057800292,1.3356866836547852,-0.1019380837678909,-0.4570576548576355,-0.0130826411768794,-0.0703363269567489,0.0,0.0,-0.2586231231689453,0.278425931930542
-0.0113467220216989,1.3247132301330566,-0.1011974364519119,-0.4877412915229797,-0.0166105572134256,-0.0705645158886909,0.0,0.0,-0.2820613384246826,0.5669151544570923
-0.0123417852446436,1.3130522966384888,-0.0947977006435394,-0.5183252096176147,-0.0212691631168127,-0.0931806191802024,0.0,0.0,-0.1487796306610107,-0.216214895248413
-0.0133283613249659,1.3007012605667114,-0.0939352139830589,-0.5490076541900635,-0.0259333234280347,-0.093291588127613,0.0,0.0,0.6737394332885742,-0.9193775057792664
-0.0142842289060354,1.288460373878479,-0.092835783958435,-0.5440889596939087,-0.0286527592688798,-0.054393894970417,0.0,0.0,0.1432561874389648,-0.6700364947319031
-0.0151678081601858,1.276256084442139,-0.0870915651321411,-0.5424354076385498,-0.029904780909419,-0.0250426717102527,0.0,0.0,-0.4905214309692383,-0.5896332263946533
-0.0160826686769723,1.2633578777313232,-0.0912620574235916,-0.5732602477073669,-0.0301183238625526,-0.0042714336887001,0.0,0.0,-0.0313830971717834,-0.5173312425613403
-0.0170180313289165,1.2497762441635132,-0.0941265746951103,-0.6036217212677002,-0.0295374672859907,0.0116181652992963,0.0,0.0,-0.5388538837432861,-0.0455814599990844
-0.0179424285888671,1.235504150390625,-0.0930430963635444,-0.6343027353286743,-0.028944905847311,0.0118522504344582,0.0,0.0,0.2129168510437011,-0.5830110907554626
-0.0187714584171772,1.2214874029159546,-0.0849083736538887,-0.6229304671287537,-0.0269673969596624,0.0395539849996566,0.0,0.0,-0.5420191884040833,0.0136381387710571
-0.0195888523012399,1.2067803144454956,-0.083757109940052,-0.6536195874214172,-0.0249696262180805,0.0399590954184532,0.0,0.0,-0.5330293774604797,-0.4404078125953674
-0.0203940384089946,1.191382884979248,-0.0825728550553321,-0.6842985153198242,-0.0229453723877668,0.0404888205230236,0.0,0.0,0.2375552654266357,-0.375689148902893
-0.021237563341856,1.1759331226348877,-0.0861409306526184,-0.6866352558135986,-0.02117202244699,0.0354701392352581,0.0,0.0,-0.1697794198989868,0.0185291767120361
-0.0220682136714458,1.1597927808761597,-0.0849001109600067,-0.7173213362693787,-0.019361350685358,0.0362169221043586,0.0,0.0,0.1251595020294189,-0.2141397595405578
-0.022871971130371,1.143413782119751,-0.0822902992367744,-0.727925181388855,-0.0174707807600498,0.0378147289156913,0.0,0.0,0.4023014307022095,-0.4298795461654663
-0.0235440246760845,1.1270349025726318,-0.0696956664323806,-0.7279267907142639,-0.015019005164504,0.0490401163697242,0.0,0.0,0.5052381753921509,-0.1803776621818542
-0.0241347309201955,1.1103907823562622,-0.061895839869976,-0.7397148013114929,-0.0122170895338058,0.0560434870421886,0.0,0.0,-0.0617656111717224,-0.2645745277404785
-0.0247114188969135,1.0930562019348145,-0.0605717226862907,-0.7703971266746521,-0.0093537457287311,0.0572720095515251,0.0,0.0,0.3849246501922607,0.3197433948516845
-0.0253907199949026,1.0758970975875854,-0.0703350380063057,-0.7626127004623413,-0.0069871391169726,0.0473321303725242,0.0,0.0,0.4737070798873901,-0.2537772059440613
-0.0260477066040039,1.0590198040008545,-0.068191073834896,-0.7500949501991272,-0.0045293937437236,0.04915501922369,0.0,0.0,0.5108985900878906,-0.192626953125
-0.0268061645328998,1.0425851345062256,-0.0778590589761734,-0.7304246425628662,-0.0025419902522116,0.039747916162014,0.0,0.0,-0.0242924690246582,-0.2660560011863708
-0.0275497436523437,1.0254602432250977,-0.0764677375555038,-0.7611038684844971,-0.0004648930043913,0.0415422432124614,0.0,0.0,0.0891103744506836,-0.0711944103240966
-0.0282920841127634,1.0081273317337036,-0.0763686224818229,-0.7703549861907959,0.0016452481504529,0.0422028116881847,0.0,0.0,0.7259936332702637,-0.0936071872711181
-0.0290010459721088,0.9914309978485109,-0.0732350200414657,-0.7420668005943298,0.0039503229781985,0.0461014844477176,0.0,0.0,-0.1999949812889099,0.2924644947052002
-0.0296947471797466,0.9740444421768188,-0.0718123465776443,-0.7727463245391846,0.0063674985431134,0.0483434796333313,0.0,0.0,0.2782025337219238,0.4279539585113525
-0.0304407123476266,0.9568973183631896,-0.0768626779317855,-0.762106716632843,0.0086088683456182,0.0448273979127407,0.0,0.0,0.6847114562988281,-0.2111988663673401
-0.0312390327453613,0.939610719680786,-0.0819348022341728,-0.7683036923408508,0.0106769846752285,0.0413623824715614,0.0,0.0,-0.4563406109809875,0.4646416902542114
-0.0320216193795204,0.921634078025818,-0.0804890915751457,-0.7989832162857056,0.0128803336992859,0.0440668985247612,0.0,0.0,0.6239345073699951,-0.2522132396697998
-0.0327798835933208,0.904082417488098,-0.0782888680696487,-0.7800900340080261,0.0153093291446566,0.0485799089074134,0.0,0.0,-0.0997164249420166,0.7003093957901001
-0.0334690101444721,0.8858383893966675,-0.0701777189970016,-0.8108612298965454,0.0165573433041572,0.0249600429087877,0.0,0.0,0.8573265075683594,0.2506341934204101
-0.034113310277462,0.8681885600090027,-0.0660510882735252,-0.7844541072845459,0.0181619077920913,0.0320912525057792,0.0,0.0,0.8362756967544556,0.3235584497451782
-0.0348018631339073,0.8512519001960754,-0.0704500898718833,-0.7527600526809692,0.0197305399924516,0.0313725695013999,0.0,0.0,-0.0063240528106689,0.5924880504608154
-0.0354248993098735,0.8336272835731506,-0.0628221184015274,-0.7833250164985657,0.0202396381646394,0.0101820435374975,0.0,0.0,0.7513469457626343,0.3939099311828613
-0.0361612327396869,0.8165468573570251,-0.0738017410039901,-0.7591357827186584,0.020406974479556,0.0033466282766312,0.0,0.0,-0.425040066242218,0.4382528066635132
-0.0368808731436729,0.7987761497497559,-0.0723243877291679,-0.7898151278495789,0.0207638032734394,0.0071363574825227,0.0,0.0,0.2714563608169555,-0.3166838884353637
-0.0375140197575092,0.78067946434021,-0.0642194896936416,-0.804309070110321,0.0216635391116142,0.0179943814873695,0.0,0.0,0.177638292312622,0.2926065921783447
-0.038067627698183,0.762459933757782,-0.0568081140518188,-0.8097769021987915,0.0230951160192489,0.0286315269768238,0.0,0.0,0.769426703453064,0.8978004455566406
-0.038588523864746,0.7440134882926941,-0.0518717058002948,-0.8198443055152893,0.0228729676455259,-0.0044428328983485,0.0,0.0,0.6149144172668457,0.6632840633392334
-0.0389984138309955,0.7253631949424744,-0.0397553034126758,-0.828881561756134,0.0216583739966154,-0.0242919493466615,0.0,0.0,0.678605318069458,0.7898800373077393
-0.0392701141536235,0.7067034244537354,-0.0247011017054319,-0.8292802572250366,0.0192269217222929,-0.0486289896070957,0.0,0.0,0.3485947847366333,0.1412115097045898
-0.0396292693912982,0.6883718371391296,-0.0332613810896873,-0.8147078156471252,0.0166041404008865,-0.0524557121098041,0.0,0.0,0.4373829364776611,-0.425790786743164
-0.0400979034602642,0.6703757643699646,-0.0439080670475959,-0.7998026609420776,0.0136873126029968,-0.058336429297924,0.0,0.0,0.4760091304779053,0.248443603515625
-0.0405742637813091,0.6523704528808594,-0.0448396615684032,-0.8002078533172607,0.010929592885077,-0.0551547594368457,0.0,0.0,0.7722511291503906,0.1307986974716186
-0.0408859252929687,0.6345963478088379,-0.0293503496795892,-0.7899455428123474,0.0091366646811366,-0.0358585529029369,0.0,0.0,0.7584905624389648,-0.0292611122131347
-0.0412485115230083,0.6173074841499329,-0.0344136022031307,-0.7683879733085632,0.0073195695877075,-0.0363420434296131,0.0,0.0,0.3275442123413086,-0.2888054847717285
-0.0415081977844238,0.5998650193214417,-0.0248094983398914,-0.7752119898796082,0.0061742560938,-0.0229061339050531,0.0,0.0,0.4841883182525635,0.2288352251052856
-0.0417517647147178,0.5828073620796204,-0.0234839506447315,-0.7581176161766052,0.005313572473824,-0.0172133985906839,0.0,0.0,0.512488603591919,0.5521459579467773
-0.0417889580130577,0.5657283663749695,-0.0023863944225013,-0.7590621113777161,0.0039913682267069,-0.0264440923929214,0.0,0.0,0.3613557815551758,-0.0819596052169799
-0.0418887138366699,0.5485410690307617,-0.0085530867800116,-0.7638770937919617,0.0025875885039567,-0.0280756596475839,0.0,0.0,0.5949695110321045,0.2026188373565673
-0.0418818481266498,0.5318180322647095,0.0013925245730206,-0.7432473301887512,0.0018916769186034,-0.0139183979481458,0.0,0.0,0.7287113666534424,0.567191481590271
-0.0416587814688682,0.5154660940170288,0.0234378986060619,-0.7267512083053589,0.0007704437593929,-0.0224246811121702,0.0,0.0,0.3400806188583374,0.486222505569458
-0.0413578040897846,0.4994256794452667,0.0306549910455942,-0.7129058837890625,0.0002276597224408,-0.0108558051288127,0.0,0.0,0.6190627813339233,-0.000993013381958
-0.0411135666072368,0.4838500618934631,0.0250147096812725,-0.6922487616539001,-0.0003575992886908,-0.0117048490792512,0.0,0.0,0.2741134166717529,0.6473000049591064
-0.0407561287283897,0.4680069386959076,0.0372502021491527,-0.70414137840271,-0.0018494373653084,-0.0298370514065027,0.0,0.0,0.5377607345581055,-0.1608391404151916
-0.040472887456417,0.4524531364440918,0.029963444918394,-0.6912849545478821,-0.0034612899180501,-0.0322369933128356,0.0,0.0,0.6138268709182739,-0.2022940516471862
-0.0400490760803222,0.4369661211967468,0.0431242622435092,-0.6883119940757751,-0.0041991719044744,-0.0147576611489057,0.0,0.0,0.8855564594268799,-0.1499223709106445
-0.0395773872733116,0.4218380451202392,0.0474671646952629,-0.6723620891571045,-0.0044928179122507,-0.0058728428557515,0.0,0.0,0.484492540359497,-0.3097966909408569
-0.0390789993107318,0.4065598249435425,0.0497815832495689,-0.679031491279602,-0.0044303596951067,0.0012491208035498,0.0,0.0,0.948296070098877,-0.5536965727806091
-0.0387580879032611,0.3916383683681488,0.0310302916914224,-0.6631717085838318,-0.0033887447789311,0.0208323094993829,0.0,0.0,0.9630428552627563,-0.4783194065093994
-0.0383901596069335,0.3775518238544464,0.0352869294583797,-0.626066267490387,-0.0018986378563567,0.0298019349575042,0.0,0.0,0.657163143157959,0.1420232057571411
-0.0379210487008094,0.3632147312164306,0.0446663610637187,-0.6371996998786926,0.0003060051240026,0.044093158096075,0.0,0.0,0.9409719705581664,0.2018593549728393
-0.0374024398624897,0.3496919870376587,0.0491382926702499,-0.6010167002677917,0.0029942537657916,0.0537649616599082,0.0,0.0,0.706974983215332,0.3731499910354614
-0.0369643196463584,0.3362121880054474,0.0411955267190933,-0.5991103649139404,0.0055721984244883,0.0515590198338031,0.0,0.0,0.8052051067352295,0.0773942470550537
-0.0366125106811523,0.3231511116027832,0.0326890684664249,-0.5805025696754456,0.0080281244590878,0.0491186492145061,0.0,0.0,0.7782140970230103,0.5519213676452637
-0.0361689552664756,0.3104066252708435,0.0425322689116001,-0.5664335489273071,0.0098281223326921,0.0359999500215053,0.0,0.0,0.8005738258361816,0.2564246654510498
-0.0358567237854003,0.2983503341674804,0.0297092832624912,-0.5358428955078125,0.0113255465403199,0.0299483835697174,0.0,0.0,0.118644118309021,0.6273852586746216
-0.0354252830147743,0.2861922085285187,0.0424545854330062,-0.5403688549995422,0.0120021449401974,0.0135322315618395,0.0,0.0,0.7537136077880859,0.4300806522369385
-0.0350166335701942,0.273965835571289,0.0399980023503303,-0.5434017777442932,0.01286406442523,0.0172382742166519,0.0,0.0,0.8975214958190918,0.6917377710342407
-0.0344555862247943,0.2616045773029327,0.0560592301189899,-0.5493892431259155,0.0129092605784535,0.0009035236435011,0.0,0.0,0.8461438417434692,-0.3028749227523803
-0.0339167602360248,0.2491213679313659,0.0536471493542194,-0.554813802242279,0.0131452716886997,0.0047204461880028,0.0,0.0,0.9353923797607422,0.3614588975906372
-0.0333819389343261,0.2373413145542144,0.0529307126998901,-0.5235610604286194,0.0136915119364857,0.0109246131032705,0.0,0.0,0.7402142286300659,-0.2256571650505066
-0.0327565185725688,0.2261615842580795,0.0612222366034984,-0.4968882799148559,0.0149845695123076,0.0258613489568233,0.0,0.0,0.540942907333374,-0.2638024091720581
-0.0322294235229492,0.2154326736927032,0.0515312030911445,-0.4768515229225158,0.0161514207720756,0.023336611688137,0.0,0.0,0.4879994392395019,0.2943565845489502
-0.031805895268917,0.2044582217931747,0.0413612909615039,-0.4877653121948242,0.0171380825340747,0.0197332128882408,0.0,0.0,0.8139822483062744,0.08419930934906
-0.0313350670039653,0.1940964609384536,0.0455070808529853,-0.4605427086353302,0.0186892412602901,0.0310233570635318,0.0,0.0,0.4009783267974853,-0.7201806902885437
-0.0310081485658884,0.1837721019983291,0.0294567290693521,-0.4589022397994995,0.0218763537704944,0.0637423694133758,0.0,0.0,0.66546630859375,-0.3073735237121582
-0.0307339671999216,0.1737806946039199,0.0240904130041599,-0.4441179931163788,0.0251685287803411,0.0658434182405471,0.0,0.0,0.6982426643371582,0.7259690761566162
-0.0304162986576557,0.1641823202371597,0.029551938176155,-0.426631361246109,0.0273491982370615,0.0436133816838264,0.0,0.0,0.6906683444976807,0.6977787017822266
-0.029945183545351,0.1547929346561432,0.0457285419106483,-0.4173296988010406,0.0287148691713809,0.0273133907467126,0.0,0.0,0.7484043836593628,-0.5160444378852844
-0.029481315985322,0.145250990986824,0.0435294136404991,-0.4241441488265991,0.0315441004931926,0.0565845258533954,0.0,0.0,0.8234081268310547,0.4165356159210205
-0.0289118774235248,0.1356901675462722,0.0532313212752342,-0.4250085949897766,0.0352077223360538,0.0732725337147712,0.0,0.0,0.8328815698623657,-0.6920244097709656
-0.0282259937375783,0.1263954937458038,0.0626974031329155,-0.4132463037967682,0.0410269983112812,0.1163852587342262,0.0,0.0,0.8174105882644653,-0.2815142869949341
-0.0273878090083599,0.1170709207653999,0.0768439471721649,-0.4146310091018677,0.0479154214262962,0.1377687454223632,0.0,0.0,0.9176552295684814,-0.2595946788787842
-0.0265812873840332,0.108363039791584,0.0733488649129867,-0.3872685432434082,0.0551324635744094,0.1443407386541366,0.0,0.0,0.7580603361129761,-0.4648265838623047
-0.0257699005305767,0.1001775860786438,0.0733253806829452,-0.364107608795166,0.0628599300980568,0.1545493304729461,0.0,0.0,0.638047456741333,-0.4186662435531616
-0.0248603820800781,0.0923047661781311,0.082189068198204,-0.3502955138683319,0.071515567600727,0.1731127649545669,0.0,0.0,0.4590868949890136,-0.3469457626342773
-0.0238667484372854,0.0841839611530304,0.0898486822843551,-0.3614080548286438,0.080938920378685,0.1884669959545135,0.0,0.0,0.9006309509277344,0.3731915950775146
-0.022964859381318,0.076242983341217,0.0806010290980339,-0.3534797430038452,0.0904367864131927,0.1899572759866714,0.0,0.0,0.8779265880584717,0.5437933206558228
-0.0219916347414255,0.0691043734550476,0.0881815105676651,-0.3178454339504242,0.0994938910007476,0.1811423003673553,0.0,0.0,0.6176069974899292,0.1979187726974487
-0.0210813526064157,0.0621055215597152,0.0816656202077865,-0.3117125332355499,0.1087958887219429,0.1860399842262268,0.0,0.0,0.5894428491592407,0.168442964553833
-0.0203579906374216,0.0555396191775798,0.0631712451577186,-0.2925080358982086,0.1178924143314361,0.1819303184747696,0.0,0.0,0.8430137634277344,0.7811604738235474
-0.0195453651249408,0.0494781844317913,0.0731224864721298,-0.2700633108615875,0.1259979158639907,0.162110149860382,0.0,0.0,0.5736337900161743,0.552915096282959
-0.0188195221126079,0.0437930449843406,0.0653503388166427,-0.2532989382743835,0.1332030296325683,0.1441022902727127,0.0,0.0,0.7443797588348389,0.7754244804382324
-0.0182192809879779,0.0385929197072982,0.0542013719677925,-0.23164963722229,0.1390054374933242,0.1160478740930557,0.0,0.0,0.750602126121521,0.7905755043029785
-0.017644977197051,0.0334916450083255,0.0529130585491657,-0.2271503955125808,0.1435096263885498,0.0900839492678642,0.0,0.0,0.8010401725769043,0.9461021423339844
-0.0172174461185932,0.0286608785390853,0.0400239191949367,-0.2149688303470611,0.1462336778640747,0.0544810183346271,0.0,0.0,0.91997492313385,0.8800158500671387
-0.0169869419187307,0.0240149348974227,0.022126106545329,-0.2065773606300354,0.1471597850322723,0.01852204836905,0.0,0.0,0.8714207410812378,0.5400722026824951
-0.0166953094303607,0.0199276786297559,0.0286267437040805,-0.1817054003477096,0.1476950794458389,0.0107062626630067,0.0,0.0,0.6985363960266113,0.9178285598754884
-0.0163052566349506,0.0157373528927564,0.0398736409842968,-0.1861518025398254,0.1468253284692764,-0.0173953399062156,0.0,0.0,0.8815450668334961,0.7790737152099609
-0.0158769600093364,0.0130019998177886,0.0634479075670242,-0.1196920201182365,0.1262187361717224,-0.4122219979763031,0.0,1.0,0.3913198709487915,-0.0642648339271545
-0.0156371109187603,0.0110982749611139,0.0588087625801563,-0.0820521116256713,0.091544933617115,-0.6935871839523315,0.0,1.0,0.5317726135253906,-0.1561091542243957
-0.0153174400329589,0.009691403247416,0.0651567801833152,-0.0608250424265861,0.0586941093206405,-0.6570174098014832,0.0,1.0,0.4324537515640259,-0.6927618384361267
-0.0150094032287597,0.0083620641380548,0.0625165626406669,-0.0581364072859287,0.0273538399487733,-0.6268063187599182,0.0,0.0,-0.2062290906906128,-0.9547281265258788
-0.0147672649472951,0.006361064966768,0.0536876395344734,-0.088650457561016,-0.0017517580417916,-0.582112193107605,0.0,0.0,0.512148380279541,-0.956201195716858
-0.0145260812714695,0.0047698356211185,0.0512957498431205,-0.0709684193134307,-0.0285854469984769,-0.536673903465271,0.0,0.0,0.1424709558486938,-0.9000041484832764
-0.0142720220610499,0.0029681778978556,0.0504342317581176,-0.0807339698076248,-0.0533110201358795,-0.4945116937160492,1.0,0.0,0.4820470809936523,-0.3529014587402344
-0.0140480995178222,0.0017945147119462,0.0363132804632186,-0.0529668368399143,-0.0661587566137313,-0.2557600736618042,1.0,0.0,0.2267768383026123,-0.1663721799850464
-0.0137830730527639,0.0010924553498625,0.0234054382890462,-0.0310787595808506,-0.0630496442317962,0.0622389987111091,1.0,0.0,-0.3189097642898559,-0.2006465792655944
-0.0134321209043264,0.0002125477767549,0.0175714585930109,-0.0384714752435684,-0.0457047298550605,0.3469332158565521,1.0,0.0,-0.5757104158401489,-0.32612144947052
-0.0130262374877929,-0.0010142588289454,0.0135760623961687,-0.053919319063425,-0.0189860872924327,0.5344117879867554,1.0,0.0,0.0981075763702392,0.0448395013809204
-0.0125084873288869,-0.0024361514952033,0.0207196250557899,-0.06309524923563,0.0116876335814595,0.6135165691375732,1.0,1.0,0.7670974731445312,0.7349052429199219
-0.0119881629943847,-0.003065361874178,0.0362860523164272,-0.0284076947718858,0.0259442701935768,0.2834984064102173,1.0,1.0,0.7326737642288208,0.922461748123169
-0.0115759847685694,-0.0027004384901374,0.0433199778199195,0.0162482094019651,0.0238452181220054,-0.0420183390378952,0.0,1.0,-0.8249545097351074,-0.1861258149147033
-0.0112870214506983,-0.0027298354543745,0.0415607839822769,-0.0011597060365602,0.0113163497298955,-0.2506115734577179,0.0,1.0,-0.57518470287323,-0.1787564754486084
