x_pos,y_pos,x_vel,y_vel,angle,ang_vel,leg_1,leg_2,main_booster,lat_booster
-0.0015719414222985,1.4035249948501587,-0.1588652431964874,-0.3286672532558441,0.0014915420906618,0.0294021908193826,0.0,0.0,-0.6946456432342529,0.5851867198944092
-0.00314083090052,1.396051049232483,-0.156793400645256,-0.33217653632164,0.0013913946459069,-0.0020024045370519,0.0,0.0,-0.0255419015884399,0.7234430313110352
-0.0046851160004734,1.388472080230713,-0.1522687375545501,-0.3368420600891113,-0.0007362757460214,-0.0425576195120811,0.0,0.0,-0.7002347111701965,0.300045371055603
-0.0062719346024096,1.380793571472168,-0.1562618762254715,-0.3412624001502991,-0.0031267674639821,-0.047814343124628,0.0,0.0,-0.1043401360511779,0.0785229206085205
-0.0078992843627929,1.3730158805847168,-0.1600617915391922,-0.345679372549057,-0.0057630813680589,-0.0527313649654388,0.0,0.0,-0.2682400941848755,0.0664229393005371
-0.0095647815614938,1.3651392459869385,-0.1636631786823272,-0.3500963449478149,-0.008625959046185,-0.0572632066905498,0.0,0.0,-0.2634005546569824,0.7316360473632812
-0.0112110134214162,1.357162594795227,-0.1601087749004364,-0.3545536696910858,-0.0130898132920265,-0.0892853885889053,0.0,0.0,-0.3100766539573669,0.3136429786682129
-0.012891006655991,1.3490867614746094,-0.1632960885763168,-0.3589718043804168,-0.0177389308810234,-0.0929909572005271,0.0,0.0,-0.0825346708297729,0.4121254682540893
-0.0146024702116847,1.340912103652954,-0.1662729978561401,-0.363390177488327,-0.0225527193397283,-0.0962843671441078,0.0,0.0,-0.3058143854141235,0.5608867406845093
-0.016298770904541,1.332640290260315,-0.1634969413280487,-0.3677366375923157,-0.0286181680858135,-0.1213200539350509,0.0,0.0,-0.3562408089637756,0.3404107093811035
-0.0180216785520315,1.3242697715759275,-0.1660402864217758,-0.3721562027931213,-0.0348021164536476,-0.1236907839775085,0.0,0.0,-0.4356246590614319,0.7668323516845703
-0.0197013858705759,1.315795660018921,-0.159902885556221,-0.3768430054187774,-0.0427806824445724,-0.1595858186483383,0.0,0.0,-0.3068215847015381,0.625988245010376
-0.0213425643742084,1.3072222471237185,-0.1544712632894516,-0.3813376426696777,-0.05233920738101,-0.1911881119012832,0.0,0.0,-0.6301588416099548,0.1537624597549438
-0.0230030063539743,1.2985508441925049,-0.1563465297222137,-0.3857620358467102,-0.0619443617761135,-0.1921203285455703,0.0,0.0,-0.7479259967803955,0.4765844345092773
-0.0246802326291799,1.2897813320159912,-0.1580007374286651,-0.3901866972446441,-0.0715723037719726,-0.1925765424966812,0.0,0.0,-0.5198511481285095,-0.3436095714569092
-0.0263715740293264,1.2809135913848877,-0.1594339311122894,-0.3946116268634796,-0.0811983123421669,-0.1925374716520309,0.0,0.0,-0.6489425301551819,0.3182433843612671
-0.0280747413635253,1.2719476222991943,-0.1606470942497253,-0.3990365862846374,-0.0907980352640152,-0.1920113712549209,0.0,0.0,-0.7962530255317688,0.3986647129058838
-0.029787253588438,1.2628834247589111,-0.1616416126489639,-0.4034616351127624,-0.1003473252058029,-0.1910029053688049,0.0,0.0,-0.461047887802124,0.4380917549133301
-0.0315068252384662,1.253720998764038,-0.1624193787574768,-0.407886803150177,-0.1098224371671676,-0.1895192265510559,0.0,0.0,-0.8592925071716309,0.0070469379425048
-0.0332308784127235,1.244460105895996,-0.1629829406738281,-0.4123117327690124,-0.119200088083744,-0.1875699907541275,0.0,0.0,-0.6070106625556946,0.5911647081375122
-0.0349006652832031,1.2350950241088867,-0.1562488824129104,-0.4171090722084045,-0.1298840641975402,-0.2136987745761871,0.0,0.0,-0.6489859819412231,0.1408864259719848
-0.03657016903162,1.2256319522857666,-0.156389519572258,-0.4215361773967743,-0.1404251158237457,-0.2108397483825683,0.0,0.0,-0.9000952839851379,-0.2641597986221313
-0.0382372848689556,1.216070532798767,-0.1563266813755035,-0.4259629249572754,-0.150802880525589,-0.2075736224651336,0.0,0.0,-0.525623083114624,0.2477815151214599
-0.0398998260498046,1.2064106464385986,-0.1560641229152679,-0.430389255285263,-0.1609966903924942,-0.2038944959640503,0.0,0.0,-0.0019199252128601,0.153120756149292
-0.0415555015206337,1.1966524124145508,-0.1556067168712616,-0.4348151087760925,-0.1709871292114257,-0.1998267769813537,0.0,0.0,-0.6966210007667542,-0.2477346062660217
-0.0432049743831157,1.1867743730545044,-0.1552026718854904,-0.440180242061615,-0.1807565838098526,-0.1953888833522796,0.0,0.0,-0.5848310589790344,-0.1491864919662475
-0.0448438636958599,1.17679762840271,-0.154397428035736,-0.4445994198322296,-0.1902879178524017,-0.1906268149614334,0.0,0.0,-0.6580390334129333,-0.4361974000930786
-0.0464701652526855,1.1667221784591677,-0.1534119695425033,-0.449017733335495,-0.199564442038536,-0.1855304539203643,0.0,0.0,-0.741782546043396,-0.4956730604171753
-0.048082161694765,1.1565476655960083,-0.1522520035505294,-0.4534352123737335,-0.2085704058408737,-0.180119127035141,0.0,0.0,-0.769583523273468,-0.5063396692276001
-0.0497184768319129,1.146284818649292,-0.1560412049293518,-0.4572163820266723,-0.2162385880947113,-0.1533639132976532,0.0,0.0,-0.795544445514679,-0.007415235042572
-0.0513368621468544,1.1359225511550903,-0.15454962849617,-0.4616307318210602,-0.223607525229454,-0.1473788172006607,0.0,0.0,-0.3928986191749573,-0.0648612380027771
-0.0529355034232139,1.1254607439041138,-0.1529016643762588,-0.4660442471504211,-0.2306642234325409,-0.1411343961954116,0.0,0.0,-0.8497918844223022,0.0230622291564941
-0.0545128807425498,1.1148992776870728,-0.1511036306619644,-0.4704570174217224,-0.2373966425657272,-0.1346481442451477,0.0,0.0,-0.9493948221206664,-0.6479378342628479
-0.0561233535408973,1.1042519807815552,-0.1561711728572845,-0.4740075170993805,-0.2423527091741562,-0.0991215780377388,0.0,0.0,-0.7075479030609131,-0.327713131904602
-0.0577096939086914,1.093504548072815,-0.1540915966033935,-0.4784174263477325,-0.2469628155231475,-0.0922020003199577,0.0,0.0,0.0267101526260375,-0.7038022875785828
-0.0591957084834575,1.0833611488342283,-0.1458336561918258,-0.4512859284877777,-0.2497818171977996,-0.0563799031078815,0.0,0.0,-0.139248788356781,-0.1097481846809387
-0.0606547370553016,1.0731173753738403,-0.1434983313083648,-0.4556939303874969,-0.2522362470626831,-0.0490883029997348,0.0,0.0,-0.5592307448387146,-0.1469019055366516
-0.0620856285095214,1.0627729892730713,-0.1410449296236038,-0.4601014852523803,-0.2543177902698517,-0.0416314750909805,0.0,0.0,-0.2067219018936157,-0.6059412956237793
-0.0635353103280067,1.0523537397384644,-0.1445735841989517,-0.4631434977054596,-0.2547078430652618,-0.0078011727891862,0.0,0.0,-0.1288071870803833,-0.0070886015892028
-0.0649543777108192,1.0418338775634766,-0.1419028341770172,-0.4675502181053161,-0.2547104358673095,-5.159047577762976e-05,0.0,0.0,-0.4235731959342956,-0.4773225784301758
-0.0663418769836425,1.0312135219573977,-0.1391328275203704,-0.4719567894935608,-0.2543190717697143,0.0078272726386785,0.0,0.0,0.0374423265457153,-0.4694436192512512
-0.0675390213727951,1.0209403038024902,-0.1208489537239074,-0.456392228603363,-0.253169298171997,0.0229952316731214,0.0,0.0,-0.3710725307464599,-0.5419403314590454
-0.0687384605407714,1.010574221611023,-0.1223690882325172,-0.4603027701377868,-0.2507006525993347,0.0493727102875709,0.0,0.0,-0.266139268875122,-0.1292844414710998
-0.0699035674333572,1.0001075267791748,-0.1193378344178199,-0.464709609746933,-0.247821643948555,0.0575800910592079,0.0,0.0,-0.1546447873115539,-0.2431069016456604
-0.0710335746407508,0.989540159702301,-0.1162312999367713,-0.4691166281700134,-0.244527667760849,0.065879613161087,0.0,0.0,-0.6925819516181946,-0.7528666257858276
-0.0721820816397667,0.9788848757743835,-0.1198806390166282,-0.4727401733398437,-0.2394167184829712,0.1022191420197486,0.0,0.0,-0.6861146092414856,-0.4751825332641601
-0.0732939690351486,0.9681292772293092,-0.1166409477591514,-0.4771487414836883,-0.2338826954364776,0.1106805577874183,0.0,0.0,-0.8447897434234619,-0.5689703822135925
-0.0744194015860557,0.95729798078537,-0.1197725981473922,-0.4802574515342712,-0.2265554517507553,0.1465449780225753,0.0,0.0,-0.9289082884788512,0.1362836360931396
-0.075507067143917,0.9463669061660768,-0.1164219975471496,-0.4846686720848083,-0.2187983244657516,0.1551422029733657,0.0,0.0,-0.8015940189361572,0.3103319406509399
-0.0765562057495117,0.9353360533714294,-0.1130236610770225,-0.4890806078910827,-0.2106083780527115,0.1637989282608032,0.0,0.0,-0.9846824407577516,0.7184768915176392
-0.0774978622794151,0.9241832494735718,-0.1009444147348404,-0.4947333037853241,-0.2037725448608398,0.136716678738594,0.0,0.0,-0.9086850881576538,0.64286208152771
-0.0783547386527061,0.9129205346107484,-0.0917524620890617,-0.4997369349002838,-0.1976642459630966,0.1221660748124122,0.0,0.0,-0.9959266185760498,0.5169451236724854
-0.0791252106428146,0.9015409350395204,-0.08232943713665,-0.5050673484802246,-0.1923445165157318,0.1063943654298782,0.0,0.0,-0.9995914101600648,0.7337403297424316
-0.0797977447509765,0.8900510668754578,-0.0715122371912002,-0.5101156830787659,-0.1880587041378021,0.0857161283493042,0.0,0.0,-0.9923114776611328,-0.0721840262413024
-0.0804301276803016,0.8784609436988831,-0.0679488107562065,-0.5145251154899597,-0.1833283901214599,0.0946062505245208,0.0,0.0,-0.9900840520858764,0.8689130544662476
-0.0809658989310264,0.8667510747909546,-0.0572747997939586,-0.5199865698814392,-0.1796208173036575,0.0741513520479202,0.0,0.0,-0.9924939870834352,-0.5169265866279602
-0.0814946144819259,0.8549550771713257,-0.0578853711485862,-0.5236719846725464,-0.174587532877922,0.100665345788002,0.0,0.0,-0.9951661229133606,-0.2029995918273925
-0.081982709467411,0.8430589437484741,-0.0542807579040527,-0.5280824303627014,-0.1691048145294189,0.1096542626619339,0.0,0.0,-0.991928219795227,0.0127812623977661
-0.0824301689863205,0.8310629725456238,-0.0506714582443237,-0.5324934124946594,-0.1631712913513183,0.1186707019805908,0.0,0.0,-0.9761419296264648,0.6104202270507812
-0.0827947631478309,0.8189619779586792,-0.0417790375649929,-0.5372449159622192,-0.157850369811058,0.1064184457063674,0.0,0.0,-0.9938114285469056,0.1185841560363769
-0.0831187218427658,0.8067612648010254,-0.0381731390953063,-0.5416561365127563,-0.1520762145519256,0.1154830083250999,0.0,0.0,-0.9991698265075684,0.6237388849258423
-0.0833610519766807,0.7944544553756714,-0.0294393356889486,-0.5464471578598022,-0.1468861550092697,0.1038011685013771,0.0,0.0,-0.9677300453186036,0.5523008108139038
-0.0835111588239669,0.7820347547531128,-0.019328486174345,-0.5515650510787964,-0.1425727009773254,0.0862690359354019,0.0,0.0,-0.9281643629074096,-0.3977450728416443
-0.0836208313703537,0.7695152163505554,-0.0157590731978416,-0.5559759736061096,-0.137803167104721,0.0953910425305366,0.0,0.0,-0.9830376505851746,0.1919244527816772
-0.0836904495954513,0.7568957805633545,-0.0122100980952382,-0.5603875517845154,-0.1325767338275909,0.1045286208391189,0.0,0.0,-0.9978681802749634,0.6187729835510254
-0.0836816802620887,0.7441691160202026,-0.0038434222806245,-0.5652143955230713,-0.1278746426105499,0.0940419435501098,0.0,0.0,-0.9782220125198364,0.0570151805877685
-0.0836332291364669,0.7313428521156311,-0.0003469894290901,-0.5696261525154114,-0.1227143555879592,0.1032059416174888,0.0,0.0,-0.9878634214401244,0.4805006980895996
-0.0835454910993576,0.7184167504310608,0.0031173063907772,-0.5740385055541992,-0.1170953139662742,0.1123808249831199,0.0,0.0,-0.984850823879242,0.6704561710357666
-0.0833632498979568,0.7053889632225037,0.01351516880095,-0.5786507725715637,-0.1124119609594345,0.0936671048402786,0.0,0.0,-0.9567910432815552,0.2802557945251465
-0.083142377436161,0.6922613978385925,0.016904154792428,-0.5830631256103516,-0.1072689965367317,0.1028596386313438,0.0,0.0,-0.990834891796112,0.3999795913696289
-0.0828834548592567,0.6790343523025513,0.0202498920261859,-0.5874760746955872,-0.101666048169136,0.1120588332414627,0.0,0.0,-0.9872984886169434,0.7587801218032837
-0.0825240164995193,0.6656994223594666,0.0314375236630439,-0.5923624038696289,-0.0971926674246788,0.0894673615694046,0.0,0.0,-0.9708288311958312,0.2827737331390381
-0.0821274742484092,0.6522647738456726,0.0346863232553005,-0.596775233745575,-0.092258870601654,0.0986759588122367,0.0,0.0,-0.9581384658813475,0.6417529582977295
-0.0816374793648719,0.638722836971283,0.0450014248490333,-0.601627767086029,-0.0882996395230293,0.0791847556829452,0.0,0.0,-0.924891710281372,0.2280101776123047
-0.0811114311218261,0.6250810027122498,0.0481395758688449,-0.6060405373573303,-0.0838797912001609,0.0883971825242042,0.0,0.0,-0.9736796617507936,0.1435678005218505
-0.0805499106645584,0.611339807510376,0.0512173995375633,-0.610453724861145,-0.0789993330836296,0.0976093336939811,0.0,0.0,-0.9596787691116332,0.2896492481231689
-0.0799536705017089,0.5974991917610168,0.054231721907854,-0.6148675084114075,-0.0736583545804023,0.1068197041749954,0.0,0.0,-0.9641944169998168,0.7184700965881348
-0.0792669281363487,0.5835592746734619,0.0642275586724281,-0.6193392276763916,-0.0692662224173545,0.0878425911068916,0.0,0.0,-0.9478507041931152,0.8536862134933472
-0.0784701332449913,0.5695204138755798,0.0767259895801544,-0.6238182783126831,-0.0663375705480575,0.058572880923748,0.0,0.0,-0.821313202381134,-0.3199950456619262
-0.0776405334472656,0.5553818345069885,0.079532079398632,-0.6282312870025635,-0.0629491433501243,0.0677687302231788,0.0,0.0,-0.778479814529419,0.2284893989562988
-0.0767789855599403,0.5411437749862671,0.0822630450129509,-0.6326447129249573,-0.059101328253746,0.0769563466310501,0.0,0.0,-0.8012810349464417,0.1120016574859619
-0.0758862495422363,0.5268062353134155,0.0849162563681602,-0.6370585560798645,-0.0547946356236934,0.0861337631940841,0.0,0.0,-0.7814518809318542,-0.355712890625
-0.074963092803955,0.5123693346977234,0.0874892175197601,-0.6414729356765747,-0.0500296838581562,0.0952990278601646,0.0,0.0,-0.9123714566230774,-0.0688932538032531
-0.074010469019413,0.497833102941513,0.0899795964360237,-0.6458877325057983,-0.0448071733117103,0.104450024664402,0.0,0.0,-0.7280003428459167,0.1866955757141113
-0.0730291381478309,0.4831975996494293,0.0923851728439331,-0.6503031849861145,-0.039127942174673,0.1135845184326171,0.0,0.0,-0.8509256839752197,0.3280954360961914
-0.0720200538635253,0.4684630632400512,0.0947039052844047,-0.6547192931175232,-0.0329929254949092,0.1227001696825027,0.0,0.0,-0.72016441822052,0.3444780111312866
-0.0709839835762977,0.4536294937133789,0.0969339162111282,-0.6591359972953796,-0.0264032017439603,0.1317944079637527,0.0,0.0,-0.5675758719444275,0.8122899532318115
-0.0698479637503624,0.4386880397796631,0.108368195593357,-0.6639816761016846,-0.0212250053882598,0.1035637483000755,0.0,0.0,-0.3872194290161133,0.3313663005828857
-0.06868676841259,0.4236474931240082,0.1104158535599708,-0.6683980226516724,-0.0155946500599384,0.1126072257757186,0.0,0.0,0.4283243417739868,0.1024961471557617
-0.0673755630850792,0.4090166389942169,0.1243887096643447,-0.6502062678337097,-0.0089561268687248,0.1327703148126602,0.0,0.0,-0.310095727443695,0.1026196479797363
-0.066041275858879,0.3942870199680328,0.1262485086917877,-0.6546244025230408,-0.0018686123657971,0.1417504101991653,0.0,0.0,-0.3303004503250122,0.0384953022003173
-0.0646848678588867,0.3794587850570678,0.128012865781784,-0.6590433716773987,0.0056660748086869,0.1506937444210052,0.0,0.0,0.3371376991271972,0.6670054197311401
-0.0631457343697547,0.3653455674648285,0.1469759196043014,-0.6272936463356018,0.0125113651156425,0.136905699968338,0.0,0.0,-0.6325139403343201,0.05364990234375
-0.0615864768624305,0.351133793592453,0.1485472619533538,-0.6317129135131836,0.0197995826601982,0.1457642018795013,0.0,0.0,-0.5150039792060852,0.4187500476837158
-0.0600079521536827,0.3368235826492309,0.1500214636325836,-0.6361329555511475,0.0275282766669988,0.1545739769935608,0.0,0.0,-0.0823002457618713,-0.3445178270339966
-0.0584113113582134,0.3224150538444519,0.1513984054327011,-0.6405538320541382,0.0356947965919971,0.1633305251598358,0.0,0.0,0.6873458623886108,0.7088565826416016
-0.0567881576716899,0.3087808489799499,0.1551000773906707,-0.6061533093452454,0.0428306125104427,0.1427161544561386,0.0,0.0,0.5246840715408325,-0.1775493621826172
-0.055294893682003,0.2961411476135254,0.1422061622142791,-0.5619887113571167,0.0498670078814029,0.1407278925180435,0.0,0.0,0.1637715101242065,0.6821006536483765
-0.053688146173954,0.2841518819332123,0.1544118076562881,-0.5330744981765747,0.0560612455010414,0.1238847970962524,0.0,0.0,-0.6404463648796082,0.0627263784408569
-0.052067182958126,0.2720642685890198,0.1554024070501327,-0.5374945998191833,0.0626801177859306,0.1323772370815277,0.0,0.0,0.0354013442993164,0.3470019102096557
-0.0505141243338584,0.2605758309364319,0.1484282612800598,-0.510898232460022,0.0694798156619072,0.1359941363334655,0.0,0.0,-0.3053205609321594,0.1204328536987304
-0.0489489547908306,0.2489891797304153,0.1492305397987365,-0.5153194069862366,0.076695866882801,0.1443208754062652,0.0,0.0,-0.4034991264343261,0.8214759826660156
-0.0473202690482139,0.2373110651969909,0.1564943641424179,-0.5193688273429871,0.0830041766166687,0.1261663436889648,0.0,0.0,-0.0391357541084289,-0.0455228686332702
-0.0456812866032123,0.225534588098526,0.1571137011051178,-0.5237898826599121,0.0897191688418388,0.134300023317337,0.0,0.0,0.3885234594345093,0.5224156379699707
-0.0439502708613872,0.2145836651325225,0.1667435318231582,-0.4871017038822174,0.0960220769047737,0.1260580271482467,0.0,0.0,0.0119040012359619,-0.0073645114898681
-0.0421951301395893,0.2038773596286773,0.1685860753059387,-0.4762974679470062,0.1028943359851837,0.1374455988407135,0.0,0.0,0.1705130338668823,-0.0234702825546264
-0.0403858199715614,0.1938952505588531,0.1731384992599487,-0.4442048072814941,0.1106313914060592,0.1547412723302841,0.0,0.0,-0.0125266909599304,0.1930680274963379
-0.0385699272155761,0.1838153004646301,0.1734153926372528,-0.4486282467842102,0.1187513172626495,0.1623985022306442,0.0,0.0,-0.280318021774292,-0.1371167302131652
-0.0367483124136924,0.1736373454332351,0.1736126244068145,-0.4530523419380188,0.1272471100091934,0.1699160933494568,0.0,0.0,0.0439414978027343,0.022773265838623
-0.0349205955862998,0.1639158874750137,0.1736441850662231,-0.4328695833683014,0.1363344043493271,0.1817454844713211,0.0,0.0,-0.1070397496223449,0.0842856168746948
-0.0330889709293842,0.1540968567132949,0.1736906915903091,-0.4372954666614532,0.1457822769880294,0.188957467675209,0.0,0.0,0.3375046253204345,0.3224412202835083
-0.0312980636954307,0.1451373398303985,0.1690379083156585,-0.3992135226726532,0.155809611082077,0.2005465775728225,0.0,0.0,-0.3547683954238891,-0.1700873374938964
-0.0295049659907817,0.1360805630683899,0.1689461171627044,-0.4036412239074707,0.1661804467439651,0.2074165642261505,0.0,0.0,-0.0244556069374084,-0.4961726665496826
-0.0277102477848529,0.1269266456365585,0.1687901467084884,-0.4080696403980255,0.1768855154514312,0.2141015231609344,0.0,0.0,-0.2025724649429321,-0.5372734665870667
-0.0259651187807321,0.1176610812544822,0.1622178256511688,-0.4133200049400329,0.1892227232456207,0.2467440813779831,0.0,0.0,0.4079246520996094,0.3377637863159179
-0.0243282318115234,0.1090014055371284,0.1511924713850021,-0.3865166306495666,0.2017893344163894,0.2513322532176971,0.0,0.0,0.4139943122863769,0.1482865810394287
-0.0227617267519235,0.1009230241179466,0.1437929719686508,-0.3608469367027282,0.2147623896598816,0.2594615221023559,0.0,0.0,0.4218074083328247,0.8546251058578491
-0.0210712440311908,0.0932561978697776,0.1574927270412445,-0.342473030090332,0.2264608442783355,0.233968898653984,0.0,0.0,-0.0009525418281555,0.6755452156066895
-0.0193224903196096,0.0855161994695663,0.1646243780851364,-0.3456069827079773,0.2368562519550323,0.2079080045223236,0.0,0.0,0.0040268898010253,0.4357697963714599
-0.0176761634647846,0.0783993303775787,0.1540713906288147,-0.3180407583713531,0.2475911080837249,0.214697390794754,0.0,0.0,0.1289077997207641,0.351270318031311
