x_pos,y_pos,x_vel,y_vel,angle,ang_vel,leg_1,leg_2,main_booster,lat_booster
-0.0015689849387854,1.4034947156906128,-0.1592639982700348,-0.3300182223320007,0.0021221337374299,0.0418875627219677,0.0,0.0,0.5408414985333949,-0.0393188121703586
-0.003136062528938,1.3966082334518433,-0.1593568623065948,-0.306071400642395,0.0047444161027669,0.0524514913558959,0.0,0.0,-0.4286333234440442,0.7010237124333828
-0.00468111038208,1.3895868062973022,-0.1557733863592147,-0.3120678663253784,0.0059937289915978,0.0249885916709899,0.0,0.0,-0.2231300611093238,0.5439171528805384
-0.0062370300292968,1.3824341297149658,-0.1563045233488083,-0.3178982436656952,0.0067023583687841,0.0141738709062337,0.0,0.0,0.6132398449012841,0.9945897432594364
-0.0076211928389966,1.3761122226715088,-0.1376540660858154,-0.2809715569019317,0.0059489710256457,-0.0150691475719213,0.0,0.0,0.5795699504387968,-0.7853313958879566
-0.0089694978669285,1.370438814163208,-0.1362503170967102,-0.2521554231643677,0.0073487814515829,0.027998749166727,0.0,0.0,0.3704882879070807,0.2134526072352618
-0.010384464636445,1.3653539419174194,-0.1431491672992706,-0.2259997278451919,0.0089830188080668,0.0326879322528839,0.0,0.0,0.0482958583043029,0.8502472382335091
-0.0116687770932912,1.360759973526001,-0.12874835729599,-0.2041776925325393,0.0092951664701104,0.0062436438165605,0.0,0.0,-0.4504649339259372,0.3706737372981772
-0.0129966735839843,1.3560363054275513,-0.1334358751773834,-0.2099478393793106,0.0099348025396466,0.0127936704084277,0.0,0.0,-0.0382066408425454,0.146871872702084
-0.0143676754087209,1.3511829376220703,-0.1380814313888549,-0.2157136499881744,0.0109017072245478,0.0193398334085941,0.0,0.0,0.8968727883611605,-0.0149537259204041
-0.0156898498535156,1.3472250699996948,-0.1339990049600601,-0.1759138107299804,0.0126659469678998,0.035287968814373,0.0,0.0,-0.7642347230950688,-0.6357081517115619
-0.0170984268188476,1.3431353569030762,-0.1440954506397247,-0.1817956715822219,0.0158706232905387,0.0640991777181625,0.0,0.0,0.7626575114395802,-0.1830409245045307
-0.0184214599430561,1.3400388956069946,-0.1365388333797454,-0.1376750022172927,0.0200605895370244,0.0838068202137947,0.0,0.0,0.1102489692593242,0.4569897059712496
-0.0197439193725585,1.337172031402588,-0.1370381116867065,-0.1274868100881576,0.0247979797422885,0.0947565287351608,0.0,0.0,0.4165147484920459,-0.2570187596528919
-0.0210034362971782,1.335240364074707,-0.1316494792699813,-0.0859581604599952,0.0304341465234756,0.1127334237098693,0.0,0.0,-0.4933591000202573,-0.2927249052855418
-0.0223027225583791,1.3331793546676636,-0.135960653424263,-0.0917364731431007,0.0363988764584064,0.1193054318428039,0.0,0.0,-0.6207879279927264,-0.1442311598141658
-0.0236411094665527,1.3309892416000366,-0.1402006149291992,-0.0975043401122093,0.0426928140223026,0.1258901804685592,0.0,0.0,-0.3996761076679926,0.1487064427057581
-0.0250178333371877,1.3286702632904053,-0.1443654000759124,-0.1032766550779342,0.0493156872689724,0.132469430565834,0.0,0.0,-0.5997674260848902,0.7644030337511363
-0.0263624191284179,1.3262343406677246,-0.1396902799606323,-0.108440525829792,0.0545026957988739,0.1037493795156478,0.0,0.0,-0.8043096847773521,0.596243447482584
-0.0277029033750295,1.3236724138259888,-0.1385757029056549,-0.1140394732356071,0.058992963284254,0.0898133367300033,0.0,0.0,0.884926839183614,0.5049940977886795
-0.0289361961185932,1.3222863674163818,-0.1276528686285019,-0.061774481087923,0.0632736310362815,0.0856209471821785,0.0,0.0,0.8118056401836715,0.7624667726879621
-0.0301608089357614,1.3215000629425049,-0.1256041526794433,-0.0350868664681911,0.0663973093032836,0.0624789074063301,0.0,0.0,-0.7412990810841513,0.55385336284493
-0.0313660614192485,1.3205888271331787,-0.1226585954427719,-0.0405971370637416,0.0685107186436653,0.0422717407345771,0.0,0.0,-0.3257485590890436,-0.4991329097955085
-0.0326042175292968,1.3195481300354004,-0.1262817084789276,-0.0463649742305278,0.0709524452686309,0.0488390550017356,0.0,0.0,0.9273379157028064,-0.7118266684747356
-0.0341624245047569,1.3194785118103027,-0.1596004664897918,-0.0032803015783429,0.0747041404247284,0.0750409588217735,0.0,0.0,0.9828523992028992,0.3127184393443802
-0.0359878540039062,1.3205024003982544,-0.1858503669500351,0.0453409105539321,0.077973686158657,0.065390944480896,0.0,0.0,-0.9020614977249846,0.7675971524147595
-0.037782572209835,1.3214091062545776,-0.1815382689237594,0.0401826426386833,0.0800298005342483,0.0411222018301487,0.0,0.0,0.2020808557014333,0.3275736281127984
-0.0397486686706543,1.3230726718902588,-0.1985737383365631,0.0738348439335823,0.081971600651741,0.0388360656797885,0.0,0.0,0.4052873015184643,0.1727241462937103
-0.0419069305062294,1.3255784511566162,-0.2176040858030319,0.11126559227705,0.0837245136499404,0.0350585356354713,0.0,0.0,0.263563885184745,-0.6981456832961218
-0.0441958419978618,1.3285003900527954,-0.2323631942272186,0.1296684890985489,0.0871668606996536,0.068847045302391,0.0,0.0,0.7496340674001443,0.2775468931743492
-0.0465684905648231,1.3326356410980225,-0.2411524504423141,0.1835551708936691,0.0910233408212661,0.0771296247839927,0.0,0.0,-0.4428222775459289,0.2898396253585815
-0.0489653572440147,1.336641788482666,-0.2439053058624267,0.1777855455875396,0.0952012687921524,0.0835586935281753,0.0,0.0,-0.4039669036865234,0.7338619232177734
-0.0513360016047954,1.3405325412750244,-0.2403250932693481,0.1727190762758255,0.0984348282217979,0.0646709650754928,0.0,0.0,-0.4761651158332824,0.6059179306030273
-0.0536856651306152,1.3442951440811155,-0.2374541014432907,0.1670586317777633,0.1009092479944229,0.0494884923100471,0.0,0.0,-0.5923024415969849,0.6240644454956055
-0.0560056678950786,1.3479373455047607,-0.2335309237241745,0.1617744863033294,0.1024229899048805,0.0302750580012798,0.0,0.0,-0.5468419194221497,0.3551579713821411
-0.0583453178405761,1.3514504432678225,-0.2358122766017913,0.1560056507587433,0.1042531505227088,0.0366031341254711,0.0,0.0,-0.4827522039413452,0.6538187265396118
-0.0606539733707904,1.3548386096954346,-0.231775015592575,0.1505195349454879,0.1051524952054023,0.01798652485013,0.0,0.0,-0.6425514817237854,-0.3782747387886047
-0.062979981303215,1.3580974340438845,-0.233817309141159,0.1447507739067077,0.106365330517292,0.0242566931992769,0.0,0.0,-0.7389914393424988,0.4325275421142578
-0.0653220191597938,1.3612269163131714,-0.2357401102781295,0.1389819085597992,0.1078901141881942,0.0304956790059804,0.0,0.0,-0.6898452639579773,0.2254351377487182
-0.0676789283752441,1.3642274141311646,-0.2375438660383224,0.1332129687070846,0.1097252294421196,0.0367023050785064,0.0,0.0,-0.7067397236824036,0.6567239761352539
-0.0700076073408126,1.3671109676361084,-0.2339361608028412,0.1280801743268966,0.1107889488339424,0.0212744325399398,0.0,0.0,-0.7979134917259216,0.0726810693740844
-0.0723487883806228,1.3698651790618896,-0.235504001379013,0.1223112717270851,0.1121594980359077,0.0274111591279506,0.0,0.0,-0.7882572412490845,0.3255470991134643
-0.0747015923261642,1.372490406036377,-0.2369555234909057,0.1165423095226287,0.1138350293040275,0.0335102900862693,0.0,0.0,-0.791860818862915,0.3940398693084717
-0.077064611017704,1.374986171722412,-0.2382921725511551,0.1107732281088829,0.11581352353096,0.0395698547363281,0.0,0.0,-0.8669008016586304,0.1185239553451538
-0.0794367790222168,1.377352952957153,-0.2395155876874923,0.1050040423870086,0.1180929094552993,0.0455876961350441,0.0,0.0,-0.8159558176994324,0.2660059928894043
-0.0818171501159668,1.3795902729034424,-0.240627720952034,0.0992347076535224,0.1206709966063499,0.0515615567564964,0.0,0.0,-0.8675705790519714,0.7116607427597046
-0.0841426849365234,1.3817058801651,-0.2338731288909912,0.0939180180430412,0.1219825968146324,0.0262321718037128,0.0,0.0,-0.8359560966491699,0.535840630531311
-0.0864405632019043,1.3837043046951294,-0.2305198460817337,0.0887539610266685,0.12271548807621,0.0146577851846814,0.0,0.0,-0.8562238812446594,-0.1086038947105407
-0.0887434035539627,1.3855732679367063,-0.2313123047351837,0.0829849615693092,0.1237396746873855,0.0204837433993816,0.0,0.0,-0.907559871673584,0.716361403465271
-0.0909957885742187,1.3873212337493896,-0.2251751869916916,0.0776896104216575,0.1236732676625251,-0.0013279910199344,0.0,0.0,-0.7709182500839233,0.4441286325454712
-0.0932513251900672,1.3889398574829102,-0.2257685214281082,0.071920707821846,0.1238924488425254,0.0043834913522005,0.0,0.0,-0.9509112238883972,0.817854642868042
-0.0954513549804687,1.3904454708099363,-0.219022586941719,0.0669976770877838,0.1229147687554359,-0.019553443416953,0.0,0.0,-0.9767069816589355,0.6299549341201782
-0.0975939780473709,1.3918291330337524,-0.2120657414197921,0.0616782084107399,0.1207317039370536,-0.0436615236103534,0.0,0.0,-0.93534117937088,0.3917607069015503
-0.0997369736433029,1.3930836915969849,-0.2123856246471405,0.0559090748429298,0.1188240870833396,-0.0381523743271827,0.0,0.0,-0.9050762057304382,0.3510801792144775
-0.1018796935677528,1.3942087888717651,-0.2126218527555465,0.0501401200890541,0.1171880736947059,-0.0327204093337059,0.0,0.0,-0.9404633045196532,0.578132152557373
-0.1039828285574913,1.3952090740203855,-0.2079614400863647,0.0446341894567012,0.1148498281836509,-0.0467645563185215,0.0,0.0,-0.8626452684402466,0.4835411310195923
-0.1060841530561447,1.3960798978805542,-0.2080427408218383,0.0388652645051479,0.1127746105194091,-0.0415043011307716,0.0,0.0,-0.8589745759963989,0.6193321943283081
-0.1081233024597168,1.396834135055542,-0.2005600184202194,0.0337748602032661,0.1094376891851425,-0.0667384415864944,0.0,0.0,-0.9453285932540894,0.2894126176834106
-0.1101593971252441,1.3974592685699463,-0.2005038261413574,0.028005663305521,0.1063538342714309,-0.061676699668169,0.0,0.0,-0.9262030720710754,0.5426630973815918
-0.1121548637747764,1.3979657888412476,-0.195738285779953,0.0227792356163263,0.1025702655315399,-0.0756715908646583,0.0,0.0,-0.9038394093513488,0.4248666763305664
-0.1141462326049804,1.3983429670333862,-0.1955632269382476,0.0170100145041942,0.0990282744169235,-0.0708396807312965,0.0,0.0,-0.6851157546043396,0.2954894304275512
-0.1161328330636024,1.3985910415649414,-0.1953360885381698,0.0112410662695765,0.095721460878849,-0.0661360397934913,0.0,0.0,-0.9802786707878112,0.2230876684188842
-0.1181145682930946,1.398709774017334,-0.1950618773698806,0.0054723727516829,0.0926429480314254,-0.0615703389048576,0.0,0.0,-0.942144513130188,0.6701982021331787
-0.1200360283255577,1.3987077474594116,-0.1878656893968582,0.0001745526969898,0.0883969217538833,-0.0849203839898109,0.0,0.0,-0.7999154329299927,0.224290132522583
-0.1219518631696701,1.398576736450195,-0.18751260638237,-0.0055944793857634,0.0843638181686401,-0.0806619673967361,0.0,0.0,-0.9290237426757812,0.3947269916534424
-0.1238617897033691,1.3983162641525269,-0.1871280670166015,-0.0113632343709468,0.0805351138114929,-0.0765741243958473,0.0,0.0,-0.928435742855072,0.3748469352722168
-0.125765711069107,1.3979264497756958,-0.1867174208164215,-0.0171317253261804,0.0769016817212104,-0.0726687610149383,0.0,0.0,-0.8659026622772217,0.4975430965423584
-0.1276634186506271,1.3974071741104126,-0.1862861067056656,-0.0228999778628349,0.0734537690877914,-0.0689581781625747,0.0,0.0,-0.9118054509162904,0.5867704153060913
-0.1295067816972732,1.396770715713501,-0.1798007190227508,-0.0280690696090459,0.0689582228660583,-0.089910589158535,0.0,0.0,-0.9329928755760192,0.4416127204895019
-0.131344124674797,1.3960049152374268,-0.1793445944786071,-0.033837653696537,0.064626857638359,-0.0866274908185005,0.0,0.0,-0.9640128016471864,0.2948141098022461
-0.133175179362297,1.395110011100769,-0.1788845509290695,-0.0396059975028038,0.0604479797184467,-0.08357734978199,0.0,0.0,-0.8373233675956726,-0.1438863277435302
-0.1350002288818359,1.3940855264663696,-0.1784262359142303,-0.0453741177916526,0.0564093366265296,-0.0807728022336959,0.0,0.0,-0.7349748015403748,-0.2110893726348877
-0.1368195563554763,1.3929314613342283,-0.1779753863811493,-0.0511420369148254,0.0524980351328849,-0.0782261043787002,0.0,0.0,-0.9741407036781312,0.3289530277252197
-0.1386333405971527,1.3916481733322144,-0.177537739276886,-0.0569097734987735,0.0487005785107612,-0.0759489759802818,0.0,0.0,-0.9910863637924194,0.1075609922409057
-0.14044189453125,1.3902353048324585,-0.177119106054306,-0.0626773387193679,0.045002955943346,-0.0739523321390152,0.0,0.0,-0.9636005163192748,0.5198764801025391
-0.1421997100114822,1.3886905908584597,-0.1709695160388946,-0.0685165748000145,0.0402403734624385,-0.0952514559030532,0.0,0.0,-0.9759232997894288,0.2037285566329956
-0.1439533233642578,1.387016534805298,-0.1706063151359558,-0.0742846503853797,0.0355481579899787,-0.0938443168997764,0.0,0.0,-0.9214100241661072,0.4609823226928711
-0.1457030326128006,0.0,-0.1702796220779419,-0.0800526067614555,0.0309109687805175,-0.0927435979247093,0.0,0.0,-0.9756693243980408,-0.156274676322937
-0.1474494934082031,1.3832800388336182,-0.1699953079223632,-0.0858204513788223,0.0263132248073816,-0.0919549912214279,0.0,0.0,-0.9917168617248536,0.2890346050262451
-0.1491934806108474,1.3812175989151,-0.1697592437267303,-0.0915882214903831,0.021739101037383,-0.0914823561906814,0.0,0.0,-0.9989036917686462,0.0057728290557861
-0.1509354561567306,1.37902569770813,-0.1695772558450698,-0.0973559245467186,0.0171727146953344,-0.0913277715444564,0.0,0.0,-0.992862582206726,-0.4404888749122619
-0.1526763886213302,1.3767043352127075,-0.169455200433731,-0.1031235978007316,0.0125981476157903,-0.0914913192391395,0.0,0.0,-0.9600677490234376,-0.3093408346176147
-0.1544169485569,1.3742536306381226,-0.1693988740444183,-0.1088912710547447,0.0079995999112725,-0.0919711366295814,0.0,0.0,-0.9982166290283204,-0.4971761107444763
-0.1561580598354339,1.371673345565796,-0.1694140136241912,-0.1146589592099189,0.003361415117979,-0.0927634686231613,0.0,0.0,-0.9937374591827391,0.3118946552276611
-0.1579006165266037,1.3689638376235962,-0.1695063710212707,-0.1204266920685768,-0.0013317175908014,-0.0938626453280448,0.0,0.0,-0.9983900785446168,-0.2358216047286987
-0.1596456468105316,1.3661247491836548,-0.169681578874588,-0.12619449198246,-0.0060947812162339,-0.0952612608671188,0.0,0.0,-0.9998397827148438,-0.239872395992279
-0.1613942086696624,1.3631560802459717,-0.1699452102184295,-0.1319623738527298,-0.0109423035755753,-0.0969504117965698,0.0,0.0,-0.9997014999389648,0.1453442573547363
-0.1631474494934082,1.3600581884384155,-0.1703027784824371,-0.1377304047346115,-0.0158882793039083,-0.0989197343587875,0.0,0.0,-0.9980280995368958,-0.3728493452072143
-0.1649062186479568,1.3568309545516968,-0.1707596480846405,-0.1434985697269439,-0.0209461841732263,-0.1011577472090721,0.0,0.0,-0.9915745854377748,-0.5034222602844238
-0.1667026579380035,1.3534713983535769,-0.175167053937912,-0.1493848860263824,-0.0253596622496843,-0.0882698073983192,0.0,0.0,-0.99709951877594,-0.0027647614479064
-0.1685070991516113,1.3499823808670044,-0.1758381128311157,-0.1551527678966522,-0.0299100298434495,-0.0910071581602096,0.0,0.0,-0.9957916736602784,-0.6268914937973022
-0.170367807149887,1.346370816230774,-0.1825163662433624,-0.1605918407440185,-0.0334254316985607,-0.0703081935644149,0.0,0.0,-0.9969963431358336,-0.5601105093955994
-0.1722743064165115,1.3426334857940674,-0.187825545668602,-0.1661676317453384,-0.0362160243093967,-0.0558117404580116,0.0,0.0,-0.9930984377861024,-0.2579498291015625
-0.1741929054260254,1.3387665748596191,-0.1888545453548431,-0.1719347536563873,-0.039175771176815,-0.0591951087117195,0.0,0.0,-0.9988661408424376,-0.6279386878013611
-0.1761787384748459,1.3347716331481934,-0.1967904269695282,-0.1776048094034195,-0.0409561805427074,-0.0356079116463661,0.0,0.0,-0.924525797367096,0.1040313243865966
-0.178179457783699,1.3306469917297363,-0.19808030128479,-0.1833716481924057,-0.0429237782955169,-0.0393518880009651,0.0,0.0,-0.9839956760406494,0.274993896484375
-0.1801964789628982,1.3263928890228271,-0.1995066255331039,-0.1891386359930038,-0.0450865663588047,-0.04325582832098,0.0,0.0,-0.9687170386314392,-0.4347525835037231
-0.182231143116951,1.3220090866088867,-0.2010730803012848,-0.1949057430028915,-0.0474518984556198,-0.0473065301775932,0.0,0.0,-0.9854573011398317,-0.6744629740715027
-0.1843304634094238,1.317502498626709,-0.2084948271512985,-0.2003408223390579,-0.0488779284060001,-0.0285205598920583,0.0,0.0,-0.9652504920959472,-0.0564924478530883
-0.186450570821762,1.3128662109375,-0.2103514373302459,-0.2061078250408172,-0.0505193248391151,-0.0328280851244926,0.0,0.0,-0.9661102294921876,0.0722725391387939
-0.1885930001735687,1.3081004619598389,-0.2123575210571289,-0.2118749320507049,-0.0523816682398319,-0.0372467897832393,0.0,0.0,-0.990684688091278,-0.6794454455375671
-0.1908152550458908,1.3032073974609375,-0.2215389460325241,-0.2174974232912063,-0.0530625060200691,-0.0136168571189045,0.0,0.0,-0.9488422870635986,0.2974860668182373
-0.1930629760026931,1.2981847524642944,-0.223851129412651,-0.2232644259929657,-0.0539738349616527,-0.0182265844196081,0.0,0.0,-0.9922311305999756,0.5561599731445312
-0.1953047811985016,1.2930285930633545,-0.2221872359514236,-0.2292360365390777,-0.0559502281248569,-0.0395278148353099,0.0,0.0,-0.9441815614700316,0.5097184181213379
-0.1975278854370117,1.287742018699646,-0.2188594341278076,-0.2350914925336837,-0.059357114136219,-0.0681376606225967,0.0,0.0,-0.8808267116546631,0.8867526054382324
-0.1997043639421463,1.2823116779327393,-0.2119892537593841,-0.2415869981050491,-0.0649519115686416,-0.1118958964943885,0.0,0.0,-0.7569718956947327,0.7488291263580322
-0.2018390595912933,1.276750922203064,-0.2057011425495147,-0.2474980056285858,-0.0726394951343536,-0.1537518799304962,0.0,0.0,-0.9657346606254578,0.6609416007995605
-0.2039568424224853,1.271061658859253,-0.2024822980165481,-0.2533320784568786,-0.0818386599421501,-0.1839833706617355,0.0,0.0,-0.9776805639266968,0.1708519458770752
-0.2061096727848053,1.2652442455291748,-0.2057479172945022,-0.2591067850589752,-0.0912868678569793,-0.1889642030000686,0.0,0.0,-0.9776746034622192,0.2613782882690429
-0.2082992047071457,1.25929856300354,-0.2091738879680633,-0.2648821175098419,-0.1009860783815383,-0.193984180688858,0.0,0.0,-0.8574987053871155,-0.6711254119873047
-0.2105800658464431,1.253239393234253,-0.2194243222475052,-0.2699076235294342,-0.1095814555883407,-0.171907439827919,0.0,0.0,-0.1561771035194397,0.166374921798706
-0.2129008322954177,1.2470518350601196,-0.2231688201427459,-0.2756820321083069,-0.1184310317039489,-0.1769914329051971,0.0,0.0,-0.9745471477508544,0.7725719213485718
-0.2151946127414703,1.24072003364563,-0.218463584780693,-0.2823122143745422,-0.1292860060930252,-0.2170997560024261,0.0,0.0,-0.9254331588745116,0.3845334053039551
-0.2175313532352447,1.2342607975006104,-0.2225229740142822,-0.288090705871582,-0.1403975188732147,-0.2222301512956619,0.0,0.0,-0.9079133868217468,0.1299060583114624
-0.2199126780033111,1.2276737689971924,-0.2267371863126754,-0.2938699424266815,-0.1517664641141891,-0.2273789942264557,0.0,0.0,-0.5930281281471252,0.637847900390625
-0.2222920358180999,1.2209481000900269,-0.2250699698925018,-0.3002816438674927,-0.1646242886781692,-0.2571564316749573,0.0,0.0,-0.3350971937179565,0.2375248670578003
-0.2247188538312912,1.2140953540802002,-0.2295881956815719,-0.3060648143291473,-0.1777409315109253,-0.2623328864574432,0.0,0.0,-0.7150110006332397,-0.1859849691390991
-0.2271946370601654,1.207115888595581,-0.2342545986175537,-0.3118488192558288,-0.191116914153099,-0.267520010471344,0.0,0.0,-0.5273826122283936,-0.7008911967277527
-0.2297659367322921,1.2000257968902588,-0.2447551488876342,-0.3167586326599121,-0.2035713344812393,-0.2490883618593216,0.0,0.0,-0.4936912059783935,0.513237714767456
-0.2323469668626785,1.192800998687744,-0.244442343711853,-0.3230428099632263,-0.2173570096492767,-0.2757132053375244,0.0,0.0,-0.0069131851196289,-0.174686849117279
-0.2349811047315597,1.185449719429016,-0.2495358735322952,-0.3288289904594421,-0.2314030677080154,-0.2809212207794189,0.0,0.0,-0.5783172249794006,-0.0893594622611999
