x_pos,y_pos,x_vel,y_vel,angle,ang_vel,leg_1,leg_2,main_booster,lat_booster
-0.0015233040321618,1.4030228853225708,-0.1548487097024917,-0.3509813845157623,0.0022612635511904,0.0446420758962631,0.0,0.0,0.932727861404036,0.5984458319734391
-0.0029359818436205,1.3953545093536377,-0.1429973244667053,-0.3408212959766388,0.0039669754914939,0.0341182723641395,0.0,0.0,0.1823070850582124,0.94991806851508
-0.0041632652282714,1.3875118494033811,-0.1231063231825828,-0.3485609591007232,0.0043352269567549,0.0073658428154885,0.0,0.0,0.7719714683455221,-0.8647485336259415
-0.0056025506928563,1.3798673152923584,-0.1462658196687698,-0.3397610485553741,0.0066417083144187,0.0461341366171836,0.0,0.0,-0.0561229983843099,-0.8657178206737837
-0.0070962905883789,1.3716237545013428,-0.1535725146532058,-0.3664067387580871,0.0108011830598115,0.0831971764564514,0.0,0.0,-0.9468780246113944,0.6285086610272996
-0.0085302349179983,1.3627790212631226,-0.1465719044208526,-0.3931213617324829,0.0139440614730119,0.062863290309906,0.0,0.0,0.8941377995034858,0.5046126470271599
-0.0099620819091796,1.3543264865875244,-0.1457860171794891,-0.3756978809833526,0.0165167730301618,0.05145875364542,0.0,0.0,0.3235728067167609,-0.7629499776990818
-0.0113289831206202,1.3460540771484375,-0.141548603773117,-0.3677268624305725,0.0213140696287155,0.0959552899003028,0.0,0.0,-0.8556785011360211,-0.50393095666038
-0.0127376560121774,1.3371847867965698,-0.1472716182470321,-0.3942914605140686,0.0276477634906768,0.1266853064298629,0.0,0.0,-0.212177852419072,-0.6180710880018886
-0.0141962049528956,1.3277170658111572,-0.154030293226242,-0.4209648072719574,0.0357294157147407,0.1616481840610504,0.0,0.0,0.2827933104728097,0.5621630888569391
-0.0155548099428415,1.318347454071045,-0.1435960978269577,-0.4166293442249298,0.0433784462511539,0.1529948562383651,0.0,0.0,-0.951681796193986,0.7879787348798903
-0.0168449394404888,1.308380126953125,-0.1355095207691192,-0.4431928992271423,0.0498082973062992,0.1286089271306991,0.0,0.0,0.1271756420589902,-0.9049791735684952
-0.0181265827268362,1.298534631729126,-0.1370433866977691,-0.437897264957428,0.0585928596556186,0.1757075488567352,0.0,0.0,-0.3482394860901472,-0.8460422933974312
-0.0194673538208007,1.2880760431289673,-0.1449816226959228,-0.4652822613716125,0.0693928375840187,0.2160193473100662,0.0,0.0,0.9390942099376371,-0.6175542169032674
-0.0207478515803813,1.2784861326217651,-0.1411976516246795,-0.4268768727779388,0.082439087331295,0.2609487771987915,0.0,0.0,0.8665111317703629,-0.7045170765003363
-0.021977137774229,1.26880145072937,-0.1383547335863113,-0.4313564300537109,0.0977438539266586,0.3061229586601257,0.0,0.0,-0.3709362219105627,-0.571245491302705
-0.0232412330806255,1.2585208415985107,-0.1432103216648101,-0.4580996930599212,0.1144508868455886,0.3341709077358246,0.0,0.0,-0.8579597054645047,-0.7283358508975806
-0.0245476718991994,1.2476298809051514,-0.1490596830844879,-0.485550969839096,0.1327964961528778,0.3669452369213104,0.0,0.0,-0.872372722778922,-0.8704177161537718
-0.025910759344697,1.236140251159668,-0.1566733568906784,-0.5125943422317505,0.1531214863061905,0.4065369665622711,0.0,0.0,0.3281477927006886,0.6000918070047276
-0.0273653976619243,1.224724054336548,-0.1649353802204132,-0.5095083117485046,0.1726306527853012,0.3902186751365661,0.0,0.0,0.6855187066452437,-0.5984693852033993
-0.0288585666567087,1.2138746976852417,-0.170792818069458,-0.4848326742649078,0.1942149102687835,0.4317237436771393,0.0,0.0,-0.0422846565168553,-0.860975077270849
-0.0304140094667673,1.202407717704773,-0.1791238635778427,-0.5129125714302063,0.2180186361074447,0.476117193698883,0.0,0.0,-0.1585208590422637,0.7295575709414654
-0.0318981185555458,1.1903694868087769,-0.1706231534481048,-0.5384775996208191,0.2405600845813751,0.4508693814277649,0.0,0.0,0.0790109730787054,-0.869786616593459
-0.0334401130676269,1.1780205965042114,-0.1785368621349334,-0.5530080795288086,0.2653937637805938,0.496718019247055,0.0,0.0,-0.7357616495960222,0.511436245292169
-0.0349486358463764,1.1650930643081665,-0.174753338098526,-0.5790757536888123,0.2899508476257324,0.4911856055259704,0.0,0.0,0.7420515131233147,0.5045079688713976
-0.0367790237069129,1.1525694131851196,-0.2058611810207367,-0.5613189339637756,0.3135350346565246,0.4716837406158447,0.0,0.0,-0.0436981708004493,-0.9215397253533066
-0.0386730208992958,1.139426589012146,-0.2143202722072601,-0.589733362197876,0.3394957184791565,0.5192140340805054,0.0,0.0,-0.5171839621592009,-0.6644560889905258
-0.0406218543648719,1.1256682872772217,-0.2216331213712692,-0.618025004863739,0.3676165640354156,0.5624167323112488,0.0,0.0,0.8827127444942793,-0.716776938534256
-0.0430851951241493,1.1124457120895386,-0.2742863297462463,-0.5951430201530457,0.3973450064659118,0.5945688486099243,0.0,0.0,-0.5524304025978162,-0.6673296260899728
-0.045590303838253,1.0986019372940063,-0.2799169421195984,-0.6238314509391785,0.4290100336074829,0.633301317691803,0.0,0.0,0.7529982778017328,0.8976265976172817
-0.048379898071289,1.085463285446167,-0.3067227005958557,-0.5927074551582336,0.4593298435211181,0.6063963770866394,0.0,0.0,-0.9777330160140992,0.9960596561431884
-0.0510978698730468,1.0717768669128418,-0.2979620993137359,-0.6172075271606445,0.4883414506912231,0.5802327394485474,0.0,0.0,-0.958815574645996,0.9990381002426147
-0.0537490844726562,1.0575569868087769,-0.2897124886512756,-0.6409687399864197,0.5160189270973206,0.5535500049591064,0.0,0.0,-0.917469084262848,0.998559594154358
-0.0563250556588172,1.0427911281585691,-0.2806078195571899,-0.665204644203186,0.5423105955123901,0.525833249092102,0.0,0.0,-0.8188266754150391,0.9989731311798096
-0.0588205344974994,1.0274980068206787,-0.270739197731018,-0.6884137392044067,0.566900372505188,0.49179607629776,0.0,0.0,-0.8252906799316406,0.9984338283538818
-0.0612370483577251,1.0116841793060305,-0.261059433221817,-0.7112628817558289,0.5897571444511414,0.4571357667446136,0.0,0.0,-0.6361011862754822,0.9939820766448976
-0.0635747909545898,0.9953352808952332,-0.2515798509120941,-0.7347319722175598,0.6110531091690063,0.4259187579154968,0.0,0.0,-0.7773663401603699,0.9994839429855348
-0.0658308044075965,0.978470265865326,-0.2416624724864959,-0.7571894526481628,0.6305091977119446,0.3891217410564422,0.0,0.0,-0.574887216091156,0.9990265369415284
-0.0680147185921669,0.9610843062400818,-0.2329228669404983,-0.7799152731895447,0.6483834385871887,0.3574851155281067,0.0,0.0,-0.669288158416748,0.9950597286224364
-0.0701148957014083,0.9431774020195008,-0.2229210585355758,-0.8024693727493286,0.6644430160522461,0.321191668510437,0.0,0.0,-0.759681224822998,0.9915084838867188
-0.0721478462219238,0.9247401356697084,-0.2149626463651657,-0.8256077170372009,0.6791554689407349,0.294249027967453,0.0,0.0,-0.5774500966072083,0.9976918697357178
-0.0740848556160926,0.9057930111885072,-0.2035262882709503,-0.8474408388137817,0.6916781663894653,0.2504534125328064,0.0,0.0,-0.591033399105072,0.9894448518753052
-0.0759245902299881,0.8863263130187988,-0.1921019703149795,-0.8697141408920288,0.7021290063858032,0.2090162485837936,0.0,0.0,-0.3527030348777771,0.9992966651916504
-0.0776694267988205,0.866348385810852,-0.1808948665857315,-0.8915526866912842,0.710445761680603,0.166334718465805,0.0,0.0,-0.1812531948089599,0.997673749923706
-0.0793277770280838,0.8458348512649536,-0.1709690988063812,-0.914681315422058,0.7171506285667419,0.1340974569320678,0.0,0.0,-0.1642155051231384,0.985342502593994
-0.08089180290699,0.8247970342636108,-0.1600596010684967,-0.9371464848518372,0.7219410538673401,0.0958092957735061,0.0,0.0,-0.12533038854599,0.9973225593566896
-0.0823605507612228,0.803241491317749,-0.1489793211221695,-0.9592633843421936,0.7247142195701599,0.0554638616740703,0.0,0.0,-0.0672839879989624,0.999456524848938
-0.0837567299604415,0.7811582684516907,-0.1406399309635162,-0.9820789098739624,0.7260646820068359,0.0270091835409402,0.0,0.0,-0.0925813913345336,0.98976731300354
-0.0850807204842567,0.7585428953170776,-0.1324089169502258,-1.0051369667053225,0.7260783314704895,0.0002727695391513,0.0,0.0,-0.0095546841621398,0.9994728565216064
-0.0863150581717491,0.7354015111923218,-0.1221140995621681,-1.0277326107025146,0.724339485168457,-0.0347773469984531,0.0,0.0,0.0153357982635498,0.9908950328826904
-0.0876111015677452,0.7122376561164856,-0.126811072230339,-1.027859091758728,0.7206599712371826,-0.0735903233289718,0.0,0.0,0.133394718170166,0.9944789409637452
-0.0891863852739334,0.6890799403190613,-0.1533339172601699,-1.0267866849899292,0.7151562571525574,-0.1100745424628257,0.0,0.0,0.2047526836395263,0.9927102327346802
-0.090807631611824,0.6658548712730408,-0.156468316912651,-1.0289779901504517,0.7077886462211609,-0.1473518908023834,0.0,0.0,0.3530491590499878,0.9722180366516112
-0.0927616134285926,0.642859160900116,-0.1883062571287155,-1.0180069208145142,0.6986014246940613,-0.1837442815303802,0.0,0.0,0.4423288106918335,0.8826503753662109
-0.0947856903076171,0.6199600696563721,-0.1941055357456207,-1.0131261348724363,0.6879277229309082,-0.2134737223386764,0.0,0.0,0.4115821123123169,0.9357845783233644
-0.0970416069030761,0.5969073176383972,-0.2157977819442749,-1.0192633867263794,0.6754759550094604,-0.2490359544754028,0.0,0.0,0.1574589014053344,0.8701711893081665
-0.0994990319013595,0.5740521550178528,-0.2345743179321289,-1.0098979473114014,0.6614211201667786,-0.2810970842838287,0.0,0.0,-0.0177729725837707,0.781816840171814
-0.1018595695495605,0.5506714582443237,-0.2233051508665084,-1.0326266288757324,0.6455621123313904,-0.3171800971031189,0.0,0.0,-0.1877813339233398,0.4871360063552856
-0.1041798591613769,0.5266942977905273,-0.2193594723939895,-1.0593873262405396,0.6299953460693359,-0.3113355338573456,0.0,0.0,-0.1835437417030334,0.4834035634994507
-0.1064588576555252,0.5021204948425293,-0.2153261005878448,-1.0861467123031616,0.6147095561027527,-0.3057164549827575,0.0,0.0,0.6799418926239014,-0.1185105443000793
-0.1088704094290733,0.4774561822414398,-0.2288703918457031,-1.0904890298843384,0.5999340415000916,-0.2955106794834137,0.0,0.0,0.8563063144683838,-0.4057767987251282
-0.1117770224809646,0.4530751705169678,-0.2780300080776214,-1.07792067527771,0.5848954319953918,-0.3007727265357971,0.0,0.0,0.3830084800720215,-0.5212007761001587
-0.1148191466927528,0.4286961853504181,-0.2928282022476196,-1.0785514116287231,0.5714738965034485,-0.2684305906295776,0.0,0.0,0.7328066825866699,-0.6061183214187622
-0.1181820854544639,0.4045143127441406,-0.3261767923831939,-1.0704607963562012,0.5596477389335632,-0.2365236282348632,0.0,0.0,0.4804966449737549,-0.817623496055603
-0.1217352896928787,0.3801411986351013,-0.3468580543994903,-1.0797488689422607,0.5498113632202148,-0.1967270672321319,0.0,0.0,0.4793030023574829,-0.8935221433639526
-0.1256851255893707,0.3556936085224151,-0.3881958723068237,-1.0838074684143066,0.5419697761535645,-0.156832069158554,0.0,0.0,0.5108569860458374,-0.9240131378173828
-0.1300383508205413,0.331622838973999,-0.4303893148899078,-1.0678445100784302,0.5362980961799622,-0.1134335845708847,0.0,0.0,-0.4638956785202026,-0.9320147037506104
-0.1343941688537597,0.3068947196006775,-0.4323071539402008,-1.0977377891540527,0.5325437188148499,-0.0750873833894729,0.0,0.0,-0.4626561999320984,-0.964824378490448
-0.1387679129838943,0.2815211713314056,-0.4359409213066101,-1.1271497011184692,0.5309059023857117,-0.0327567979693412,0.0,0.0,-0.3823833465576172,-0.978695511817932
-0.1431678831577301,0.2554767727851867,-0.4408181607723236,-1.1578494310379028,0.5318433046340942,0.0187477637082338,0.0,0.0,-0.7631745338439941,-0.9701340198516846
-0.1475958824157714,0.2287692576646804,-0.4458102285861969,-1.1881897449493408,0.5353031754493713,0.069197304546833,0.0,0.0,-0.6644062399864197,-0.9393925070762634
-0.1520354300737381,0.2014098763465881,-0.4487280249595642,-1.2178736925125122,0.5407981276512146,0.1098991855978965,0.0,0.0,-0.4416453838348388,-0.9263607859611512
-0.1565047204494476,0.173391655087471,-0.4538684487342834,-1.2480541467666626,0.5488018989562988,0.1600759327411651,0.0,0.0,-0.4069409370422363,-0.8918478488922119
-0.1609769761562347,0.1447260677814483,-0.4556795656681061,-1.2775020599365234,0.558596670627594,0.1958954632282257,0.0,0.0,0.1936309337615966,-0.7896245121955872
-0.165623664855957,0.115744337439537,-0.4745799601078033,-1.2922531366348269,0.5701815485954285,0.2316975891590118,0.0,0.0,0.6708862781524658,-0.4900528192520141
-0.170340821146965,0.0866344273090362,-0.4819245338439941,-1.2981873750686646,0.5821856260299683,0.2400821447372436,0.0,0.0,0.184906005859375,-0.0557771325111389
-0.1751620322465896,0.0572116002440452,-0.4922167360782623,-1.3121668100357056,0.5941762328147888,0.2398113310337066,0.0,1.0,0.9991856813430786,0.9997355937957764
-0.1744914948940277,0.0528079830110073,-0.0753731951117515,-0.2988685369491577,0.6890801787376404,1.7520831823349,0.0,1.0,-0.1307465434074401,0.1600937843322754
-0.1724673211574554,0.0558295100927352,0.0994739681482315,0.064627967774868,0.7861122488975525,1.880215048789978,0.0,1.0,-0.9984472393989564,-0.1046130061149597
-0.1709111183881759,0.0582932084798812,0.10235246270895,0.0712405890226364,0.8629530072212219,1.5362354516983032,0.0,1.0,-0.9472423195838928,0.6911206245422363
-0.1693794280290603,0.0609506703913211,0.114746056497097,0.0864647552371025,0.9220920205116272,1.181338906288147,0.0,1.0,-0.9887126684188844,0.6013374328613281
-0.1678616553544998,0.0636476874351501,0.1248200759291648,0.0950385704636573,0.9674899578094482,0.9079748392105104,0.0,1.0,-0.9591227173805236,0.1897981166839599
-0.1663597077131271,0.0660031661391258,0.127496063709259,0.0817621946334838,1.0083377361297607,0.8171737790107727,0.0,1.0,-0.9406148195266724,0.0697295665740966
-0.1648566275835037,0.067761905491352,0.1285724341869354,0.0541270188987255,1.0499534606933594,0.8323830366134644,0.0,1.0,-0.9301451444625854,-0.3694135546684265
-0.163364976644516,0.0689293444156646,0.1288634538650512,0.027166137471795,1.091718673706055,0.8353513479232788,0.0,0.0,-0.9975155591964722,0.237969160079956
-0.161839097738266,0.0695067048072815,0.1338228583335876,0.0003459526924416,1.1335722208023071,0.8371195793151855,0.0,0.0,-0.9967005252838136,0.2146121263504028
-0.1602791845798492,0.0694931149482727,0.1387930959463119,-0.0264736544340848,1.1755056381225586,0.8387187719345093,0.0,0.0,-0.995804488658905,0.1645059585571289
-0.1586855947971344,0.068887360394001,0.1437692046165466,-0.0532922334969043,1.21751070022583,0.8401516675949097,0.0,1.0,-0.6574839353561401,0.4052587747573852
-0.157188132405281,0.0687388777732849,0.1375387758016586,-0.0295538622885942,1.2470093965530396,0.5816755890846252,0.0,1.0,-0.087083101272583,0.2962228059768677
-0.1558767259120941,0.0687150582671165,0.1268182545900344,-0.0097907800227403,1.2603832483291626,0.2671734094619751,0.0,1.0,-0.247385561466217,0.6425462961196899
-0.1547079980373382,0.0689518749713897,0.1173409670591354,0.0115945814177393,1.257446527481079,-0.0603607520461082,0.0,1.0,-0.3280327916145324,0.6720520257949829
-0.1536360681056976,0.0691800415515899,0.1119748800992965,0.0197222121059894,1.2423653602600098,-0.3017993569374084,0.0,1.0,0.1909202337265014,0.5850235223770142
-0.1530158966779709,0.0694323182106018,0.068703792989254,0.0239110700786113,1.2223281860351562,-0.4008750915527344,0.0,1.0,0.5520169734954834,0.5776673555374146
-0.152614876627922,0.0694446191191673,0.0472763404250144,0.0133197605609893,1.2020533084869385,-0.405602216720581,0.0,1.0,0.5845458507537842,0.3235800266265869
-0.1526872664690017,0.0690508708357811,0.000349757290678,-0.0047668912447988,1.1817387342453003,-0.4063206315040588,0.0,1.0,0.87225341796875,0.7106125354766846
-0.1536138504743576,0.068835362792015,-0.0840878561139106,0.0039550298824906,1.1599767208099363,-0.4352580606937408,0.0,1.0,0.5538616180419922,0.8295533657073975
-0.1550201475620269,0.0683934763073921,-0.1307776868343353,-0.0050060274079442,1.1362148523330688,-0.4752556383609772,0.0,1.0,0.7021417617797852,0.9358735084533693
-0.1572109162807464,0.0677754953503608,-0.2076396495103836,-0.0115527603775262,1.1100717782974243,-0.522879421710968,0.0,0.0,-0.733686089515686,-0.6208118796348572
-0.1593772917985916,0.0665099918842315,-0.2052086144685745,-0.0413451939821243,1.085273027420044,-0.4959947168827057,0.0,0.0,-0.5132476687431335,-0.6890907883644104
-0.1609008759260177,0.0664881095290184,-0.1472436040639877,0.0053281295113265,1.0743486881256104,-0.2189027518033981,0.0,1.0,-0.140621542930603,0.9651193618774414
-0.1620085686445236,0.0672200992703437,-0.1074386239051818,0.0366016291081905,1.0675687789916992,-0.1354943215847015,0.0,1.0,-0.4127976298332214,0.907381534576416
-0.1629173308610916,0.0679604634642601,-0.0878414362668991,0.0365765765309333,1.061493754386902,-0.1213359609246254,0.0,1.0,-0.4811763763427734,0.9504790306091307
-0.1637077331542968,0.0684392526745796,-0.0759916976094245,0.0249030757695436,1.0553908348083496,-0.121999442577362,0.0,1.0,0.1261128187179565,0.8959863185882568
-0.1647113859653473,0.0688810646533966,-0.0974193215370178,0.0230869278311729,1.0494900941848757,-0.1180394068360328,0.0,1.0,-0.1926357746124267,0.912727117538452
-0.1655431687831878,0.0692479237914085,-0.080118790268898,0.0198267102241516,1.0434573888778689,-0.1206734627485275,0.0,1.0,-0.1914761066436767,0.8721442222595215
-0.1661907136440277,0.0695483982563018,-0.061816394329071,0.0166966617107391,1.037716269493103,-0.1148307770490646,0.0,1.0,-0.6354030966758728,0.8029742240905762
-0.1666633635759353,0.0697825029492378,-0.0443677604198455,0.0136606739833951,1.0321104526519775,-0.1121169477701187,0.0,1.0,-0.3596521019935608,0.7115273475646973
-0.1669654846191406,0.0699397176504135,-0.0278189275413751,0.0096389213576912,1.0275248289108276,-0.091720774769783,0.0,1.0,-0.2342363595962524,0.6662015914916992
-0.1671008169651031,0.0700270533561706,-0.0112914387136697,0.0063397171907126,1.0232725143432615,-0.0850458964705467,0.0,1.0,0.232901930809021,0.5683391094207764
-0.1674624383449554,0.0702855437994003,-0.0339603200554847,0.0138971088454127,1.019111394882202,-0.0831948965787887,0.0,1.0,-0.6822913289070129,0.6982541084289551
-0.1676763594150543,0.0703951194882392,-0.0195272359997034,0.0068804048933088,1.015605092048645,-0.0701428428292274,0.0,1.0,0.0242104530334472,0.6020874977111816
-0.1681658774614334,0.0707038938999176,-0.0472830161452293,0.0155161181464791,1.0125011205673218,-0.0620588846504688,0.0,1.0,-0.3545104265213012,0.8139959573745728
-0.1684930771589279,0.0708716213703155,-0.0311785005033016,0.0090950420126318,1.009617805480957,-0.0576840415596962,0.0,1.0,-0.2796136140823364,0.7606399059295654
-0.1686614006757736,0.0709564536809921,-0.0156587827950716,0.0050177397206425,1.0074223279953003,-0.0439252778887748,0.0,1.0,-0.3352584838867187,0.6100294589996338
-0.1686946898698806,0.0709774121642112,-0.0019182417308911,0.002409100299701,1.004824161529541,-0.0519711673259735,0.0,1.0,-0.0946034789085388,0.583817720413208
-0.1686165779829025,0.0709391459822654,0.0102760540321469,0.000876693171449,1.0002949237823486,-0.0905877202749252,0.0,1.0,-0.2555787563323974,0.4203889369964599
-0.1684506386518478,0.070834219455719,0.0197161585092544,-0.001452631666325,0.994628131389618,-0.1133477687835693,0.0,1.0,0.0421364307403564,0.5718631744384766
-0.1683685332536697,0.0708284229040145,0.0132269319146871,0.0048596560955047,0.985593855381012,-0.1806574612855911,0.0,1.0,-0.1765007972717285,0.5264688730239868
-0.1681759804487228,0.0706890225410461,0.0250808112323284,-0.0003991079865954,0.9752473831176758,-0.2069458663463592,0.0,1.0,0.4885492324829101,0.611191987991333
-0.1684729605913162,0.0708878636360168,-0.0238082744181156,0.0145917041227221,0.9649657011032104,-0.2055886089801788,0.0,1.0,-0.6216248273849487,0.8005412817001343
-0.1686214506626129,0.0708707645535469,-0.0089225303381681,0.0048731192946434,0.954759955406189,-0.2041384726762771,0.0,1.0,-0.1565202474594116,0.6834487915039062
