x_pos,y_pos,x_vel,y_vel,angle,ang_vel,leg_1,leg_2,main_booster,lat_booster
-0.0015883445739746,1.4029574394226074,-0.1612090021371841,,0.0021234678570181,0.0419140234589576,0.0,0.0,0.5118847813795719,0.7823480891977268
-0.0031284331344068,1.394980549812317,-0.1549295336008072,-0.3545257449150085,0.0030448315665125,0.0184294041246175,0.0,0.0,0.6264557538266022,-0.9129439659838394
-0.0046585081145167,1.386926531791687,-0.1563019007444381,-0.3579699397087097,0.0062999343499541,0.0651083812117576,0.0,0.0,-0.8215355140479903,-0.997868917260082
-0.0063467025756835,1.3782014846801758,-0.1748031228780746,-0.3878172636032104,0.0122069744393229,0.1181517392396926,0.0,0.0,-0.9401766870476956,-0.8292551528298061
-0.0081502916291356,1.3688116073608398,-0.187922403216362,-0.4174011349678039,0.0196872055530548,0.1496186405420303,0.0,0.0,-0.6076917661065413,-0.887763452638408
-0.010071468539536,1.3587532043457031,-0.2013293802738189,-0.4471974968910217,0.0288020353764295,0.1823132634162902,0.0,0.0,0.0986286999907699,-0.8230934279787376
-0.0121491430327296,1.3486011028289795,-0.2188825905323028,-0.4514493644237518,0.0398052707314491,0.2200847864151001,0.0,0.0,-0.8679763756531931,0.9847645601387608
-0.0141928670927882,1.337792158126831,-0.2133068591356277,-0.4806607067584991,0.0486364625394344,0.1766398251056671,0.0,0.0,-0.4013472486803102,-0.8342501545899372
-0.0163661949336528,1.326321721076965,-0.2282039672136306,-0.5101819634437561,0.0594090148806571,0.2154710292816162,0.0,0.0,0.2855693131047372,0.6986827745699812
-0.0185806266963481,1.315041422843933,-0.2311614006757736,-0.50175940990448,0.0690398514270782,0.1926343142986297,0.0,0.0,-0.0391237996792874,0.7876848315822573
-0.0207851417362689,1.303102970123291,-0.2286179959774017,-0.5309877395629883,0.0771245509386062,0.1617085337638855,0.0,0.0,0.8461050557365482,-0.8092452826376274
-0.0230727195739746,1.2913827896118164,-0.2389459162950515,-0.5214537382125854,0.0872331708669662,0.2021910846233368,0.0,0.0,-0.2449409826231061,-0.971837449350602
-0.0254799835383892,1.27899432182312,-0.252651035785675,-0.5513353943824768,0.0990740731358528,0.2368394583463668,0.0,0.0,0.3999902249678795,-0.8961662121559072
-0.0279792789369821,1.2663816213607788,-0.2639216184616089,-0.5615474581718445,0.1129835918545723,0.2782158255577087,0.0,0.0,-0.159937813752294,0.6985036530905323
-0.0304697044193744,1.253123164176941,-0.2614849209785461,-0.5902555584907532,0.125376358628273,0.247877836227417,0.0,0.0,0.2709550609746269,0.624511409187895
-0.0329036712646484,1.239559531211853,-0.2549382746219635,-0.6038353443145752,0.1368924081325531,0.2303421795368194,0.0,0.0,0.0738101026459931,0.6646321080375327
-0.0353175178170204,1.226196050643921,-0.2518887221813202,-0.5949270725250244,0.1473791897296905,0.2097547501325607,0.0,0.0,-0.0086430190916553,0.8817840546733781
-0.0377002730965614,1.2121784687042236,-0.2467639148235321,-0.6238642930984497,0.1558661162853241,0.1697540432214737,0.0,0.0,0.1151832826843357,-0.8528323263332572
-0.0402124412357807,1.1983084678649902,-0.2615861594676971,-0.6175661683082581,0.1662473827600479,0.2076437473297119,0.0,0.0,-0.4779441709387773,0.8522460033164481
-0.0427193641662597,1.1837867498397827,-0.2597239315509796,-0.6464433670043945,0.1753015965223312,0.1811005175113678,0.0,0.0,0.920115806323488,0.7802088221395744
-0.0452107414603233,1.1699538230895996,-0.2570918202400207,-0.615752100944519,0.1832915246486663,0.1598130613565445,0.0,0.0,-0.4488837215867756,0.9485633945656836
-0.0476757064461708,1.1554701328277588,-0.252638041973114,-0.6444883942604065,0.1894751787185669,0.1236836686730384,0.0,0.0,-0.7545257905215776,-0.6468538269876951
-0.0502273552119731,1.140308141708374,-0.2624443471431732,-0.6748087406158447,0.1967954039573669,0.1464177072048187,0.0,0.0,0.0030176008979356,-0.679335559541594
-0.0528660789132118,1.1247502565383911,-0.2726278305053711,-0.6926528811454773,0.2056283056735992,0.1766742020845413,0.0,0.0,-0.332529852220558,0.711603077667445
-0.0555072799324989,1.1085412502288818,-0.2718758583068847,-0.7214929461479187,0.2134597301483154,0.1566423624753952,0.0,0.0,-0.3830367599502131,-0.6902981781644639
-0.0582545287907123,1.091627597808838,-0.2842493951320648,-0.753123939037323,0.2230966836214065,0.1927388906478881,0.0,0.0,-0.8823507627742602,-0.982646956333902
-0.0611180290579795,1.0740292072296145,-0.2978656888008117,-0.7839422225952148,0.2347663342952728,0.2333929240703582,0.0,0.0,-0.5332560344086894,0.6817662446162318
-0.0639798194169998,1.0557869672775269,-0.2966604828834533,-0.8124707937240601,0.2454119175672531,0.212911769747734,0.0,0.0,0.2944369744719859,0.688942068824408
-0.0670837387442588,1.0377459526062012,-0.319355696439743,-0.8033429980278015,0.2545360624790191,0.1824831366539001,0.0,0.0,0.5447721190274841,0.9959628334007508
-0.0702809318900108,1.0197185277938845,-0.3267025947570801,-0.8024541139602661,0.261663407087326,0.142546609044075,0.0,0.0,0.5402078324890505,0.9875804462521952
-0.0736207962036132,1.0022168159484863,-0.3390345871448517,-0.7787659764289856,0.2668227851390838,0.1031873077154159,0.0,0.0,-0.6249423286439453,-0.8455129002370032
-0.0770606994628906,0.9840139746665956,-0.3509311079978943,-0.81029212474823,0.273930549621582,0.1421555578708648,0.0,0.0,0.008214257848331,0.929285201249459
-0.0806479454040527,0.9658647775650024,-0.3638255894184112,-0.8075997829437256,0.2791701257228851,0.1047917380928993,0.0,0.0,-0.8294236164501059,-0.9645138754352468
-0.0843370407819747,0.9470059275627136,-0.3761123716831207,-0.8395677208900452,0.2865687906742096,0.1479733884334564,0.0,0.0,0.0216339490473576,0.6341329614793407
-0.0880971923470497,0.9280657768249512,-0.3819310069084167,-0.842957079410553,0.2926658391952514,0.1219412684440612,0.0,0.0,-0.3825442481647612,-0.7882143189033534
-0.0919329673051834,0.9084387421607972,-0.3909620940685272,-0.8738132119178772,0.3002749681472778,0.152181789278984,0.0,0.0,0.9138436746562556,-0.666890879380805
-0.0960194617509841,0.8888601660728455,-0.4171926081180572,-0.871952474117279,0.3091162145137787,0.1768258064985275,0.0,0.0,0.1790493470943732,0.6963539782868874
-0.1002016067504882,0.8694352507591248,-0.425347626209259,-0.8648586273193359,0.3165117800235748,0.14791139960289,0.0,0.0,-0.213521493258223,-0.8911059370877692
-0.1044643372297287,0.8493186831474304,-0.4351780414581299,-0.8960448503494263,0.3257650136947632,0.1850648671388626,0.0,0.0,-0.3457939769335143,-0.6840742814435065
-0.1087802872061729,0.8285118937492371,-0.4416544437408447,-0.9270398616790771,0.336270809173584,0.2101157456636428,0.0,0.0,-0.3918451581416853,-0.7014250782362479
-0.1131598502397537,0.8070130348205566,-0.4495038390159607,-0.9582479000091552,0.3483712673187256,0.2420090436935424,0.0,0.0,-0.0093511939048767,0.9385558366775512
-999.0,0.7848917841911316,-0.4385168552398681,-0.9854325652122498,0.3580582439899444,0.1937394440174102,0.0,0.0,0.2450336217880249,0.9072234630584716
-0.1216742545366287,0.7625085711479187,-0.4294997155666351,-0.996666133403778,0.3658256232738495,0.1553477495908737,0.0,0.0,0.1660963296890258,0.9617496728897096
-0.1258715689182281,0.7400639653205872,-0.4250911176204681,-0.9989175796508788,0.3715003430843353,0.1134941950440406,0.0,0.0,0.4091008901596069,0.9707156419754028
-0.1301101744174957,0.7173122763633728,-0.4272062182426452,-1.0120580196380615,0.3750413954257965,0.0708212107419967,0.0,0.0,0.8068088293075562,0.9999774694442748
-0.1343382894992828,0.6944677233695984,-0.4241673946380615,-1.015670895576477,0.3764783442020416,0.028738971799612,0.0,0.0,0.7925736904144287,0.9593386650085448
-0.1385848075151443,0.6717092394828796,-0.4241220355033874,-1.0113471746444702,0.3759109377861023,-0.0113483592867851,0.0,0.0,0.8946192264556885,0.998936653137207
-0.1432226151227951,0.6495913863182068,-0.4609499871730804,-0.9822805523872375,0.3729119896888733,-0.0599788315594196,0.0,0.0,0.9063341617584229,0.9891622066497804
-0.1482538282871246,0.6280337572097778,-0.4979605078697204,-0.956780731678009,0.3674505949020386,-0.1092277392745018,0.0,0.0,0.8788025379180908,0.9915575981140136
-0.1534150093793869,0.6066434383392334,-0.5088319778442383,-0.9488264918327332,0.359750896692276,-0.1539940983057022,0.0,0.0,0.9289164543151855,0.568749189376831
-0.1585699021816253,0.5856397747993469,-0.507384717464447,-0.9314855337142944,0.3512100577354431,-0.1708169281482696,0.0,0.0,0.946407437324524,0.6432346105575562
-0.1640099585056305,0.5651844143867493,-0.5342545509338379,-0.906779170036316,0.3409812450408935,-0.2045763731002807,0.0,0.0,0.947439670562744,0.9072592258453368
-0.1693850457668304,0.5449058413505554,-0.5260277986526489,-0.898601233959198,0.3289774656295776,-0.2400753200054168,0.0,0.0,0.8559811115264893,0.698051929473877
-0.1749546974897384,0.5252681374549866,-0.5438821911811829,-0.8698679804801941,0.3153613209724426,-0.2723228931427002,0.0,0.0,0.8468232154846191,0.7689495086669922
-0.1804192513227462,0.5058524012565613,-0.5319896936416626,-0.8598480224609375,0.3003696203231811,-0.2998338341712951,0.0,0.0,0.6360101699829102,0.9683420658111572
-0.1860043555498123,0.486423134803772,-0.5417484045028687,-0.8601570129394531,0.2830889225006103,-0.3456142544746399,0.0,0.0,0.8965613842010498,0.9660403728485109
-0.1916105300188064,0.4677387177944183,-0.541840136051178,-0.8268933892250061,0.2638290822505951,-0.3851965367794037,0.0,0.0,0.9538531303405762,0.7131938934326172
-0.197150707244873,0.4496403038501739,-0.533932089805603,-0.8008859753608704,0.243339717388153,-0.4097872674465179,0.0,0.0,0.4937769174575805,0.9290623664855956
-0.202674001455307,0.4320274293422699,-0.5301471948623657,-0.7792807817459106,0.22083480656147,-0.4500984251499176,0.0,0.0,0.8123071193695068,0.8381669521331787
-0.208357959985733,0.4150143563747406,-0.5440398454666138,-0.752676784992218,0.1962483376264572,-0.4917295575141907,0.0,0.0,0.9676302671432496,0.5850546360015869
-0.2139620780944824,0.3980183601379394,-0.5347244143486023,-0.7521762251853943,0.1704541593790054,-0.5158835649490356,0.0,0.0,0.8061391115188599,0.6863126754760742
-0.2197020500898361,0.3814849555492401,-0.5463173389434814,-0.7318753600120544,0.1427832245826721,-0.5534189343452454,0.0,0.0,0.3733159303665161,0.978316068649292
-0.2252492904663086,0.3649727702140808,-0.5248101949691772,-0.7312824726104736,0.1130074262619018,-0.5955164432525635,0.0,0.0,0.4395585060119629,0.8717799186706543
-0.2307037413120269,0.348618596792221,-0.5134702920913696,-0.7247397899627686,0.0812922939658165,-0.6343034505844116,0.0,0.0,0.5007851123809814,0.8365480899810791
-0.2360503226518631,0.332158625125885,-0.5006929636001587,-0.7300536632537842,0.0476955361664295,-0.6719357967376709,0.0,0.0,-0.0639039278030395,0.0387390851974487
-0.2413320094347,0.3150466382503509,-0.4939165115356445,-0.7597919702529907,0.0138690350577235,-0.6765305995941162,0.0,0.0,0.639479398727417,-0.602331817150116
-0.2465836107730865,0.2985625565052032,-0.4919305741786957,-0.7326435446739197,-0.018935726955533,-0.6560958027839661,0.0,0.0,0.6012749671936035,-0.2310654520988464
-0.2516822218894958,0.2818485498428345,-0.4767892956733703,-0.7435818910598755,-0.0516055673360824,-0.6533973217010498,0.0,0.0,0.724318265914917,-0.9001728296279907
-0.2567048668861389,0.2658294439315796,-0.4708634316921234,-0.7133342623710632,-0.0826664194464683,-0.6212171316146851,0.0,0.0,0.5406453609466553,-0.7814158201217651
-0.2617792189121246,0.2498320490121841,-0.4772792458534241,-0.7129312753677368,-0.1125695034861564,-0.5980618000030518,0.0,0.0,0.7835164070129395,-0.5469215512275696
-0.2668473124504089,0.2342965453863144,-0.4773281216621399,-0.6929534077644348,-0.141908586025238,-0.5867818593978882,0.0,0.0,0.2863627672195434,-0.6138983964920044
-0.2717956900596618,0.2188307791948318,-0.4665126204490661,-0.6903122067451477,-0.1702080816030502,-0.5659902095794678,0.0,0.0,0.4905369281768799,-0.7300066947937012
-0.2767236828804016,0.2038903832435608,-0.4656052589416504,-0.6673633456230164,-0.197501078248024,-0.5458600521087646,0.0,0.0,0.0928961038589477,-0.5452725887298584
-0.2814912796020508,0.1888515502214431,-0.4506543576717376,-0.6720860600471497,-0.223843827843666,-0.5268552899360657,0.0,0.0,0.5547540187835693,-0.5635432600975037
-0.2861789166927337,0.1737153828144073,-0.4436168074607849,-0.6767371892929077,-0.2493737637996673,-0.5105990171432495,0.0,0.0,0.6992878913879395,-0.7952193021774292
-0.2906952798366546,0.1583935320377349,-0.4281238615512848,-0.6851465702056885,-0.2733972668647766,-0.4804700016975403,0.0,0.0,0.95509934425354,-0.8105315566062927
-0.2951285243034363,0.143027201294899,-0.4212446212768554,-0.6872393488883972,-0.2961064875125885,-0.4541842937469482,0.0,0.0,0.9709391593933104,-0.9009673595428468
-0.2992849946022033,0.1284020692110061,-0.3952382206916809,-0.6542971134185791,-0.3172294795513153,-0.4224594533443451,0.0,0.0,0.9877362251281738,-0.8982072472572327
-0.3030221462249756,0.1145069450139999,-0.3551877737045288,-0.6217377185821533,-0.3365409076213836,-0.3862278759479522,0.0,0.0,0.9933652877807616,-0.9228362441062928
-0.3065624237060547,0.1014648303389549,-0.336940050125122,-0.5837391018867493,-0.3544585704803467,-0.358353316783905,0.0,0.0,0.99717116355896,-0.9111593961715698
-0.31011563539505,0.0884415954351425,-0.339584469795227,-0.5827798843383789,-0.3710678815841675,-0.3321862816810608,0.0,0.0,0.9984891414642334,-0.8857343196868896
-0.3132562041282654,0.0761083662509918,-0.3000253438949585,-0.5518561005592346,-0.3859681487083435,-0.2980052828788757,0.0,0.0,0.9991689920425416,-0.9439589381217957
-0.3162492215633392,0.0641975030303001,-0.286739706993103,-0.5328344106674194,-0.3993849754333496,-0.2683367729187011,1.0,0.0,0.9970569610595704,-0.9638103246688844
-0.3188677430152893,0.0535783134400844,-0.2674451470375061,-0.4708202481269836,-0.392107218503952,0.147477701306343,1.0,0.0,0.9999825954437256,-0.9076805710792542
-0.3209553360939026,0.0440417379140853,-0.2360329627990722,-0.416561096906662,-0.3633997738361358,0.5737690925598145,1.0,1.0,0.7285354137420654,0.9898701906204224
-0.3223024904727936,0.035734687000513,-0.1638153493404388,-0.3626619279384613,-0.3363993167877197,0.535835862159729,1.0,1.0,0.8591203689575195,0.9717223644256592
-0.3232174515724182,0.0283420905470848,-0.1150843948125839,-0.3232376277446747,-0.3118380606174469,0.4912061691284179,1.0,1.0,0.851088285446167,0.9544134140014648
-0.323576271533966,0.021890053525567,-0.0578511469066143,-0.2821965515613556,-0.2891310751438141,0.4541322290897369,1.0,1.0,0.9079735279083252,0.9710128307342528
-0.3233028352260589,0.0183146335184574,0.0645232424139976,-0.1309309899806976,-0.3037585914134979,-0.600389838218689,1.0,1.0,0.9079735279083252,0.9710128307342528
