x_pos,y_pos,x_vel,y_vel,angle,ang_vel,leg_1,leg_2,main_booster,lat_booster
-0.0016191483009606,1.4031537771224976,-0.1640428602695465,-0.3451688885688782,0.0019003612687811,0.0374970100820064,0.0,0.0,0.5683164205373146,0.3197956549568032
-0.0032858848571777,1.395596981048584,-0.1688481271266937,-0.33586186170578,0.0040563186630606,0.0431238748133182,0.0,0.0,0.6764235893747763,0.0851874825783125
-0.0049141882918775,1.388184666633606,-0.1657314300537109,-0.3294455111026764,0.0069297552108764,0.0574740096926689,0.0,0.0,-0.3068684328940352,-0.4624400689838455
-0.0066374777816236,1.380301833152771,-0.1753057241439819,-0.3503702282905578,0.0098716998472809,0.0588441379368305,0.0,0.0,-0.0669816034471506,-0.982481561054169
-0.0085162166506052,1.371950626373291,-0.1924637854099273,-0.3712002635002136,0.0144127355888485,0.0908291488885879,0.0,0.0,0.7100074133597065,0.0407850994747596
-0.0103551866486668,1.3639752864837646,-0.1892471015453338,-0.3545184731483459,0.0197032205760478,0.1058194041252136,0.0,0.0,0.308124973032732,0.7018232577946956
-0.0122616766020655,1.3562161922454834,-0.1946242898702621,-0.3449038565158844,0.0236425958573818,0.0787946209311485,0.0,0.0,0.3155990169055427,0.1039115987631353
-0.0141543392091989,1.3487634658813477,-0.1939040720462799,-0.3313116133213043,0.0282227396965026,0.0916114822030067,0.0,0.0,-0.953828844671074,0.5702590789722899
-0.0160958282649517,1.3408483266830444,-0.1977265626192093,-0.3518562018871307,0.0317678116261959,0.0709079727530479,0.0,0.0,-0.0572314785722964,-0.8934234135193497
-0.0181997306644916,1.3324650526046753,-0.2158364057540893,-0.3727124333381653,0.0371595360338687,0.1078442707657814,0.0,0.0,-0.7914118277472859,0.9720699857501393
-0.0203073509037494,1.3236169815063477,-0.2140626907348632,-0.3933307826519012,0.040421787649393,0.0652510002255439,0.0,0.0,0.6472558726309778,0.7360283044707457
-0.0223914142698049,1.3150944709777832,-0.2104686796665191,-0.3788339793682098,0.0424629412591457,0.0408267751336097,0.0,0.0,-0.0760142945870969,0.2767872044352955
-0.0245649330317974,1.3061013221740725,-0.2194993793964386,-0.3997595608234405,0.0445781499147415,0.0423081740736961,0.0,0.0,-0.2067111567120894,-0.96171725618465
-0.0268940925598144,1.2966241836547852,-0.2368327379226684,-0.421324074268341,0.0484578162431716,0.0776001662015914,0.0,0.0,0.3162404108233585,0.1552063277797856
-0.0292305946350097,1.287669062614441,-0.23817178606987,-0.3981642723083496,0.0529389232397079,0.0896302387118339,0.0,0.0,0.3095199172863185,-0.4056699850585457
-0.0315794944763183,1.2786030769348145,-0.2399003803730011,-0.4031153917312622,0.0579003579914569,0.0992378592491149,0.0,0.0,-0.521352360966622,0.8659619063264532
-0.0339304916560649,1.2690839767456057,-0.2380567342042923,-0.4231818914413452,0.0608169808983802,0.0583377704024314,0.0,0.0,-0.2488799847066487,0.640622649156431
-0.0363033302128315,1.2590947151184082,-0.2387104779481887,-0.4440242648124695,0.0622318312525749,0.0282997637987136,0.0,0.0,0.8424915180583008,0.4509136698741774
-0.0387066826224327,1.2499853372573853,-0.2423465996980667,-0.4049488008022308,0.0642221570014953,0.0398104451596736,0.0,0.0,-0.9987604423513778,-0.1217922105357671
-0.0411917679011821,1.2404050827026367,-0.250575840473175,-0.4258790910243988,0.0662782341241836,0.041125152260065,0.0,0.0,-0.8802191690336933,-0.1626468568879741
-0.043756864964962,1.2303543090820312,-0.2586520612239837,-0.4467943608760834,0.0683989822864532,0.0424189269542694,0.0,0.0,0.1322531893062177,0.5740406061040872
-0.0463668815791606,1.2202892303466797,-0.2620655298233032,-0.4473901391029358,0.0694560036063194,0.021142391487956,0.0,0.0,-0.921801948197266,-0.3584678979645761
-0.0490534789860248,1.209753394126892,-0.2697936594486236,-0.4683131575584411,0.070573478937149,0.0223514828830957,0.0,0.0,0.8310096035327736,0.2363916989400796
-0.0517621040344238,1.199272871017456,-0.2724099457263946,-0.4658772647380829,0.0721074789762497,0.0306831188499927,0.0,0.0,-0.5138914049818271,0.4215515797549342
-0.0545434951782226,1.188321590423584,-0.2797442674636841,-0.4868009984493255,0.0736955255270004,0.0317638777196407,0.0,0.0,-0.0837578946711055,0.1338894947444514
-0.0573944076895713,1.1768783330917358,-0.2867543995380401,-0.5086697340011597,0.07533510774374,0.0327916592359542,0.0,0.0,0.7635914310057361,-0.2811882328343033
-0.060367964208126,1.166124939918518,-0.2990792691707611,-0.4780167043209076,0.0770410001277923,0.0341179594397544,0.0,0.0,0.1470599370091461,-0.5598651741439253
-0.0635960549116134,1.1557469367980957,-0.3255147039890289,-0.461381047964096,0.079725906252861,0.0536981597542762,0.0,0.0,0.0720489393891612,-0.7074635054742583
-0.067080020904541,1.1456378698349,-0.3524784445762634,-0.4495201408863067,0.0837709009647369,0.080900028347969,0.0,0.0,0.9108673548924012,-0.3473395836339389
-0.0706958770751953,1.135898232460022,-0.36558997631073,-0.4331036210060119,0.0877380147576332,0.0793422311544418,0.0,0.0,-0.6335286042792074,-0.7282420107879459
-0.0744254142045974,1.1256890296936035,-0.378410279750824,-0.4540676176548004,0.0931382998824119,0.1080053597688674,0.0,0.0,-0.9419564008712769,0.995984435081482
-0.0781409293413162,1.1150134801864624,-0.3752826154232025,-0.474710077047348,0.0968367680907249,0.0739696249365806,0.0,0.0,-0.4783809185028076,0.9996788501739502
-0.0818405151367187,1.103886604309082,-0.3719757795333862,-0.4946605265140533,0.0988321900367736,0.0399086624383926,0.0,0.0,-0.6557726860046387,0.9872269630432128
-0.0855181664228439,1.0922906398773191,-0.368014246225357,-0.5153977870941162,0.0990856066346168,0.0050680814310908,0.0,0.0,-0.5314701795578003,0.99928879737854
-999.0,1.0802379846572876,-0.3623533844947815,-0.5355502367019653,0.0973014235496521,-0.0356838330626487,0.0,0.0,-0.8347365260124207,0.9901986122131348
-0.0927623733878135,1.0677342414855957,-0.3564194142818451,-0.5554827451705933,0.0934847667813301,-0.0763331204652786,0.0,0.0,-0.7880420684814453,0.9831297397613524
-0.0963278785347938,1.0547653436660769,-0.3508133292198181,-0.5760422348976135,0.0877937898039817,-0.113819420337677,0.0,0.0,-0.9053438901901244,0.9712464809417723
-0.0998458862304687,1.0413446426391602,-0.343973308801651,-0.5960310697555542,0.0800351649522781,-0.1551726758480072,0.0,0.0,-0.9091697931289672,0.9719572067260742
-0.1033224090933799,1.0274739265441897,-0.3379696905612945,-0.6159934401512146,0.0704503804445266,-0.1916959881782531,0.0,0.0,-0.941888988018036,0.9816126823425292
-0.1067433357238769,1.0131438970565796,-0.3303190171718597,-0.6363832354545593,0.0587995946407318,-0.2330154627561569,0.0,0.0,-0.9248654842376708,0.992853045463562
-0.1101216301321983,0.9983592629432678,-0.3243624567985534,-0.656622052192688,0.0454959124326705,-0.266073614358902,0.0,0.0,-0.9900563955307008,0.988852858543396
-0.1134228706359863,0.9831108450889589,-0.3142240941524505,-0.6772940158843994,0.0297905802726745,-0.3141068816184997,0.0,0.0,-0.97699373960495,0.9824011325836182
-0.1166467666625976,0.9673888087272644,-0.3041431009769439,-0.6984888911247253,0.0117798512801527,-0.3602147996425628,0.0,0.0,-0.8903001546859741,0.5233018398284912
-0.1198311820626258,0.9512007236480712,-0.2989290058612823,-0.7194327712059021,-0.007486349903047,-0.3853240609169006,0.0,0.0,-0.7150465250015259,0.9157276153564452
-0.1229527443647384,0.9345358610153198,-0.2908704280853271,-0.7409055233001709,-0.0285002123564481,-0.4202775061130523,0.0,0.0,-0.4394687414169311,0.3125264644622803
-0.1260747015476226,0.91740620136261,-0.290863573551178,-0.7618592381477356,-0.0495692789554595,-0.4213813841342926,0.0,0.0,-0.2337656617164611,0.6950654983520508
-0.1291323602199554,0.8998040556907654,-0.2828592658042907,-0.7832332849502563,-0.0722234174609184,-0.4530830979347229,0.0,0.0,0.0862371921539306,0.4766151905059814
-0.1322161704301834,0.8825663924217224,-0.2850895822048187,-0.7674039602279663,-0.0952864289283752,-0.4612605571746826,0.0,0.0,0.3357143402099609,0.0332919359207153
-0.1353338211774826,0.8658320903778076,-0.2879600822925567,-0.7454301714897156,-0.1189184561371803,-0.4726406931877136,0.0,0.0,0.6184084415435791,-0.8302100896835327
-0.1384643614292144,0.8493896722793579,-0.2908626496791839,-0.7326866984367371,-0.1410106867551803,-0.4418444633483886,0.0,0.0,0.4534547328948974,-0.3647454977035522
-0.1413791626691818,0.8332025408744812,-0.2698643207550049,-0.7216126918792725,-0.1626034826040268,-0.4318554997444153,0.0,0.0,0.8562936782836914,-0.7540873885154724
-0.1442639380693435,0.8178123831748962,-0.2681847512722015,-0.6863435506820679,-0.1829281598329544,-0.4064930975437164,0.0,0.0,0.6850686073303223,-0.3159427642822265
-0.146929070353508,0.8025956153869629,-0.2467140406370163,-0.6788603067398071,-0.2028322219848632,-0.3980814218521118,0.0,0.0,0.941981554031372,-0.8192211985588074
-0.1494324654340744,0.7883168458938599,-0.2321749478578567,-0.637216329574585,-0.2211760878562927,-0.3668776750564575,0.0,0.0,0.4476155042648315,-0.9867483973503112
-0.1517382562160492,0.7741695046424866,-0.2144460380077362,-0.6312781572341919,-0.2375288754701614,-0.3270556330680847,0.0,0.0,0.4047795534133911,-0.7181669473648071
-0.1540556848049163,0.7601878046989441,-0.216834619641304,-0.6238858699798584,-0.2526914477348327,-0.3032510578632355,0.0,0.0,-0.87945556640625,-0.978519082069397
-0.1563940942287445,0.7457717061042786,-0.2205216586589813,-0.6430690884590149,-0.2662917971611023,-0.2720071971416473,0.0,0.0,-0.1690316796302795,-0.9906190037727356
-0.1587464362382888,0.7309151291847229,-0.2233643531799316,-0.6625000238418579,-0.2784615159034729,-0.2433942109346389,0.0,0.0,0.8755626678466797,-0.5972027778625488
-0.1607526838779449,0.716925859451294,-0.1900898814201355,-0.6237868070602417,-0.2892956137657165,-0.2166817188262939,0.0,0.0,0.861504316329956,-0.846918523311615
-0.1626105308532714,0.703816831111908,-0.1766523122787475,-0.5844714641571045,-0.2987090051174164,-0.1882680356502533,0.0,0.0,0.5954205989837646,-0.9654913544654846
-0.1643328666687011,0.6907519698143005,-0.1649582684040069,-0.5821733474731445,-0.3062367141246795,-0.1505547612905502,0.0,0.0,0.3013513088226318,-0.9861483573913574
-0.165995791554451,0.6780893206596375,-0.1608128547668457,-0.5639514923095703,-0.3119170367717743,-0.1136064156889915,0.0,0.0,0.784369707107544,-0.9647501707077026
-0.1673626899719238,0.6657182574272156,-0.1331799924373626,-0.5505793690681458,-0.3155584931373596,-0.0728293508291244,0.0,0.0,0.9831149578094482,-0.9700928926467896
-0.1684859246015548,0.6539489030838013,-0.1106498017907142,-0.5234546661376953,-0.317308634519577,-0.0350029617547988,0.0,0.0,0.9489340782165528,-0.9753968119621276
-0.169466882944107,0.6424075365066528,-0.0981876477599144,-0.5129235982894897,-0.317205011844635,0.0020723454654216,0.0,0.0,0.9920334815979004,-0.9175417423248292
-0.1703882217407226,0.6315228939056396,-0.0936076790094375,-0.4834415018558502,-0.3156828582286834,0.0304431803524494,0.0,0.0,0.9672218561172484,-0.9282510280609132
-0.1709702461957931,0.6216525435447693,-0.0614059679210186,-0.4379912614822387,-0.3123561143875122,0.0665351673960685,0.0,0.0,0.8913432359695435,-0.933846116065979
-0.1713577210903167,0.6117655634880066,-0.043802760541439,-0.4383391439914703,-0.307115763425827,0.1048077940940857,0.0,0.0,0.8795521259307861,-0.6115275025367737
-0.1713979691267013,0.6028113961219788,-0.0102358479052782,-0.3966672718524933,-0.3006918430328369,0.1284781843423843,0.0,0.0,0.6262118816375732,-0.7607662081718445
-0.1713873893022537,0.5941240191459656,-0.0063350521959364,-0.3845952749252319,-0.2930678427219391,0.152480199933052,0.0,0.0,-0.3560907244682312,-0.349494457244873
-0.1713074743747711,0.5849674344062805,0.000745408819057,-0.4055204689502716,-0.2856037020683288,0.1492828428745269,0.0,0.0,-0.4156172275543213,-0.6539387702941895
-0.17120361328125,0.5753634572029114,0.0020607761107385,-0.4252351820468902,-0.2770402729511261,0.1712683737277984,0.0,0.0,0.1212912797927856,0.5823071002960205
-0.1709192246198654,0.5661445260047913,0.0215412750840187,-0.4084380865097046,-0.2699669003486633,0.1414674371480941,0.0,0.0,-0.8046926259994507,-0.213839054107666
-0.1705619841814041,0.5564561486244202,0.0289765000343322,-0.4293624758720398,-0.2630584836006164,0.1381676793098449,0.0,0.0,-0.901608109474182,-0.0493631958961486
-0.1701308190822601,0.5462983846664429,0.0365134552121162,-0.4502866864204407,-0.2563164234161377,0.1348414272069931,0.0,0.0,-0.8552393317222595,-0.3238446712493896
-0.1696248948574066,0.5356711745262146,0.0441446043550968,-0.4712105989456177,-0.2497418075799942,0.131492480635643,0.0,0.0,-0.6533932685852051,-0.4865891933441162
-0.1690433472394943,0.524574339389801,0.0518628172576427,-0.4921342730522156,-0.2433355748653412,0.1281245797872543,0.0,0.0,-0.1293712258338928,-0.3467034101486206
-0.168385311961174,0.5130080580711365,0.0596613511443138,-0.5130577683448792,-0.2370985001325607,0.1247414797544479,0.0,0.0,-0.806052565574646,-0.4027843475341797
-0.1676502227783203,0.5009720921516418,0.0675338059663772,-0.5339809060096741,-0.2310311496257782,0.121346965432167,0.0,0.0,-0.7347292304039001,-0.3821176290512085
-0.1668373048305511,0.4884664714336395,0.0754741057753562,-0.5549038052558899,-0.225133866071701,0.1179456859827041,0.0,0.0,0.3145961761474609,-0.2065443992614746
-0.165987491607666,0.475911021232605,0.0797956883907318,-0.557239294052124,-0.2198830693960189,0.1050155907869339,0.0,0.0,0.3974480628967285,-0.6082472801208496
-0.1649224311113357,0.4638733863830566,0.1001926660537719,-0.5340768098831177,-0.2134979814291,0.1277016699314117,0.0,0.0,-0.7042569518089294,-0.5491502285003662
-0.1638273298740387,0.4513823986053467,0.1020748615264892,-0.5541017651557922,-0.2059921771287918,0.1501157283782959,0.0,0.0,-0.7917344570159912,0.1453944444656372
-0.1626521050930023,0.4384218752384186,0.1102312058210372,-0.5750259160995483,-0.1986562013626098,0.1467198431491851,0.0,0.0,0.0683975219726562,-0.6103270053863525
-0.161362737417221,0.4256768226623535,0.120612621307373,-0.5653502345085144,-0.1902725994586944,0.1676723659038543,0.0,0.0,-0.3824730515480041,-0.2599732875823974
-0.1599924117326736,0.4124624729156494,0.1288477480411529,-0.5862753391265869,-0.1820575147867202,0.1643016636371612,0.0,0.0,0.1626850366592407,-0.2100085020065307
-0.1584810316562652,0.3991295099258423,0.1430418193340301,-0.5915979146957397,-0.1739329099655151,0.1624922156333923,0.0,0.0,0.6128852367401123,-0.4453197717666626
-0.1567308455705642,0.3858844935894012,0.1666443943977356,-0.587708592414856,-0.165555939078331,0.1675396263599395,0.0,0.0,0.1112809181213378,-0.79567551612854
-0.1547850668430328,0.3727257251739502,0.1847091615200042,-0.5837662816047668,-0.1556822955608368,0.1974728405475616,0.0,0.0,0.2062712907791137,-0.6684447526931763
-0.1526527404785156,0.3595055043697357,0.2020086497068405,-0.5864290595054626,-0.1444763988256454,0.224118024110794,0.0,0.0,-0.1302693486213684,-0.7407792210578918
-0.1504961997270584,0.345834881067276,0.2030709981918335,-0.6064081788063049,-0.1319346576929092,0.250835120677948,0.0,0.0,0.543960452079773,-0.5265821814537048
-0.1481740921735763,0.3327562808990478,0.2186208665370941,-0.5801222920417786,-0.1184195950627327,0.2703013718128204,0.0,0.0,0.3571071624755859,-0.5868692994117737
-0.1456397026777267,0.320016860961914,0.2385881692171096,-0.5650885701179504,-0.1036593839526176,0.2952041029930115,0.0,0.0,0.0130914449691772,-0.7419172525405884
-0.1429895460605621,0.307098925113678,0.2487577646970749,-0.5730803608894348,-0.0875400304794311,0.3223869204521179,0.0,0.0,0.3203884363174438,0.1011255979537963
-0.1402630805969238,0.2943275272846222,0.2567218542098999,-0.5667583346366882,-0.0717681273818016,0.3154378533363342,0.0,0.0,0.5298980474472046,-0.2882243990898132
-0.1373185217380523,0.2822759747505188,0.2782969772815704,-0.5349279046058655,-0.0557841584086418,0.3196795582771301,0.0,0.0,0.3712048530578613,-0.2495673298835754
-0.1342844069004058,0.2704663872718811,0.2874800264835357,-0.5243565440177917,-0.0400370694696903,0.3149417638778686,0.0,0.0,0.1799185276031494,-0.7239829301834106
-0.1313026398420334,0.259057343006134,0.281025618314743,-0.5066981911659241,-0.0231063198298215,0.3386150300502777,0.0,0.0,0.4344446659088135,0.0428438186645507
-0.1281490325927734,0.248087465763092,0.2980023920536041,-0.4873678386211395,-0.0059666717424988,0.342793345451355,0.0,0.0,0.4535669088363647,-0.1091421246528625
-0.1249563246965408,0.2376414388418197,0.3022701740264892,-0.4642857313156128,0.0108182393014431,0.3356981873512268,0.0,0.0,0.1381725072860717,-0.4915470480918884
-0.1217440590262413,0.2275011837482452,0.3046270906925201,-0.4508770108222961,0.0272066909819841,0.3277689814567566,0.0,0.0,0.0115153789520263,-0.4932783842086792
-0.118473432958126,0.217350348830223,0.3106737732887268,-0.4515242278575897,0.0433961376547813,0.3237892091274261,0.0,0.0,0.0972537994384765,-0.7345940470695496
-0.115285113453865,0.2073224633932113,0.3011665940284729,-0.4462924301624298,0.0608476661145687,0.3490305244922638,0.0,0.0,0.5292609930038452,0.0201088190078735
-0.1121840476989746,0.1975407749414444,0.2932466864585876,-0.4355120360851288,0.0775356143712997,0.3337593376636505,0.0,0.0,0.2815800905227661,0.3325920104980469
-0.1089630126953125,0.1881352216005325,0.3049876987934112,-0.4189958572387695,0.0944893211126327,0.3390738666057586,0.0,0.0,0.1552063226699829,0.5975328683853149
-0.1055907234549522,0.1786560118198394,0.3213828206062317,-0.4223752617835998,0.1102217733860015,0.3146489262580871,0.0,0.0,0.4990657567977905,-0.0515127778053283
-0.1020832061767578,0.1697631627321243,0.3344189822673797,-0.3965224921703338,0.126459464430809,0.3247532844543457,0.0,0.0,0.2805546522140503,-0.1916717290878296
-0.098589040338993,0.1612946093082428,0.3332987427711487,-0.3778230249881744,0.1425173133611679,0.3211573362350464,0.0,0.0,-0.0453256368637084,0.2240101099014282
-0.0950151458382606,0.1523587107658386,0.341396152973175,-0.3987601101398468,0.1584834456443786,0.3193225264549255,0.0,0.0,0.2812854051589966,0.256787896156311
-0.0913745909929275,0.1436351686716079,0.3479229807853699,-0.3895116448402405,0.1746376752853393,0.3230845630168915,0.0,0.0,0.2955496311187744,-0.0869050621986389
-0.0877719894051551,0.1353884786367416,0.3442702889442444,-0.3684767484664917,0.1906866133213043,0.3209784626960754,0.0,0.0,-0.0403706431388855,-0.5252665877342224
-0.0841284766793251,0.1266685873270034,0.347552090883255,-0.3898044526576996,0.2076081782579422,0.3384313583374023,0.0,0.0,0.3002669811248779,-0.0948199033737182
-0.0804196372628212,0.1180307939648628,0.3539189100265503,-0.3863737881183624,0.224757432937622,0.342985063791275,0.0,0.0,0.5887696743011475,-0.041438341140747
-0.076880931854248,0.1097560748457908,0.3375669121742248,-0.3703363835811615,0.2413040995597839,0.3309333920478821,0.0,0.0,0.4207836389541626,-0.3198810815811157
-0.0734785050153732,0.1016192510724067,0.3245332241058349,-0.3642935156822204,0.2572889626026153,0.3196974396705627,0.0,0.0,0.1914279460906982,-0.3984165787696838
-0.0701188072562217,0.0935987308621406,0.3204482197761535,-0.359271228313446,0.2731581926345825,0.3173852264881134,0.0,0.0,0.153631329536438,-0.3125203847885132
-0.0667670220136642,0.0856560319662094,0.3196799159049988,-0.3559845983982086,0.28907510638237,0.318339079618454,0.0,0.0,0.3399773836135864,-0.2583417296409607
-0.0633224472403526,0.0777105391025543,0.3285802602767944,-0.3563653826713562,0.3054535090923309,0.3275679051876068,0.0,0.0,0.7234437465667725,0.1279014348983764
-0.0599220283329486,0.0703640803694725,0.323828637599945,-0.3300083875656128,0.3222815692424774,0.3365609645843506,0.0,0.0,0.4892030954360962,-0.050370454788208
-0.0566577911376953,0.0635957568883895,0.3102112710475921,-0.304515391588211,0.3392014503479004,0.338397741317749,0.0,0.0,0.300052285194397,0.0514987707138061
-0.0533562675118446,0.0567327365279197,0.3138225674629211,-0.3089620172977447,0.3563485145568847,0.3429415225982666,0.0,0.0,0.3389084339141845,0.1826614141464233
