x_pos,y_pos,x_vel,y_vel,angle,ang_vel,leg_1,leg_2,main_booster,lat_booster
-0.0016180991660803,1.4033188819885254,-0.1639144569635391,-0.3378389775753021,0.0018817315576598,0.0371276624500751,0.0,0.0,-0.3133275508880615,0.7132807970046997
-0.0032708167564123,1.395431637763977,-0.1656211167573928,-0.3505445718765259,0.0022318223491311,0.0070033022202551,0.0,0.0,-0.0780370235443115,0.849258542060852
-0.004937267396599,1.3872321844100952,-0.1649783253669738,-0.3644154369831085,0.0005792399169877,-0.0330547653138637,0.0,0.0,-0.0940280556678772,0.6148546934127808
-0.0066604614257812,1.3787250518798828,-0.1697038412094116,-0.3780946731567383,-0.0019998482894152,-0.0515866167843341,0.0,0.0,-0.4160507321357727,0.8106586933135986
-0.0084017757326364,1.3699147701263428,-0.1696031540632248,-0.391583651304245,-0.0064752269536256,-0.089516282081604,0.0,0.0,0.101976990699768,0.7045822143554688
-0.0100767137482762,1.361339807510376,-0.1617354601621627,-0.3811431527137756,-0.012172432616353,-0.1139545664191246,0.0,0.0,-0.2958323955535888,0.431422472000122
-0.0118474010378122,1.35245943069458,-0.1713579893112182,-0.3947381973266601,-0.0178172104060649,-0.1129056215286254,0.0,0.0,-0.2299795150756836,0.6747627258300781
-0.013647461310029,1.3432741165161133,-0.1726762354373932,-0.40833780169487,-0.0250756926834583,-0.1451831310987472,0.0,0.0,-0.1853948831558227,0.142155647277832
-0.0155434608459472,1.3337838649749756,-0.1823128163814544,-0.4219297170639038,-0.0322790369391441,-0.1440802067518234,0.0,0.0,0.0180002450942993,0.7139127254486084
-0.0174651145935058,1.3246614933013916,-0.1835070103406906,-0.4056514799594879,-0.0408421754837036,-0.1712786257266998,0.0,0.0,-0.7934942841529846,0.7435810565948486
-0.0194156654179096,1.3152307271957395,-0.1847587823867797,-0.4194557964801788,-0.0510330013930797,-0.2038352191448211,0.0,0.0,-0.492719292640686,0.676593542098999
-0.0214025489985942,1.3054897785186768,-0.1869454383850097,-0.4333657324314117,-0.0626655593514442,-0.232672169804573,0.0,0.0,-0.4860352277755737,0.392095685005188
-0.0234852787107229,1.2954449653625488,-0.1965924948453903,-0.446964681148529,-0.0742394104599952,-0.2314978390932083,0.0,0.0,-0.0018829703330993,-0.0082749724388122
-0.0256637576967477,1.285096287727356,-0.2062425166368484,-0.4605641067028045,-0.0857543423771858,-0.2303197085857391,0.0,0.0,-0.5295144319534302,-0.3473222255706787
-0.0279380790889263,1.2744433879852295,-0.2158942967653274,-0.4741633236408233,-0.0972093567252159,-0.2291212081909179,0.0,0.0,-0.4319701790809631,0.6105680465698242
-0.0302520748227834,1.263471245765686,-0.2184827625751495,-0.4885426163673401,-0.1100414097309112,-0.2566644251346588,0.0,0.0,-0.7375283241271973,0.6197855472564697
-0.0326014533638954,1.2521930932998655,-0.2205821275711059,-0.5023780465126038,-0.1243242993950843,-0.2856839001178741,0.0,0.0,-0.730461061000824,0.7436144351959229
-0.0349748618900775,1.2405920028686523,-0.2212392836809158,-0.5170164108276367,-0.1403793692588806,-0.3211309313774109,0.0,0.0,-0.5534083843231201,-0.737655758857727
-0.0374913215637207,1.2287055253982544,-0.2368810921907425,-0.5297499299049377,-0.1551320850849151,-0.2950812578201294,0.0,0.0,-0.1950181722640991,-0.5257323384284973
-0.0401496887207031,0.0,-0.2523559927940368,-0.5427632927894592,-0.1686307042837143,-0.2699965238571167,0.0,0.0,-0.0944483280181884,0.6591577529907227
-0.0428405776619911,1.2040324211120603,-0.2541252970695495,-0.5570449829101562,-0.1836608201265335,-0.3006297945976257,0.0,0.0,-0.3221461772918701,-0.9401574730873108
-0.0456989295780658,1.1912500858306885,-0.272800475358963,-0.569774329662323,-0.1967806369066238,-0.2624195516109466,0.0,0.0,-0.7140822410583496,0.4878702163696289
-0.048652458935976,1.178164005279541,-0.282417744398117,-0.583380401134491,-0.2098361849784851,-0.2611345648765564,0.0,0.0,0.5108282566070557,-0.3235814571380615
-0.0515790954232215,1.165172815322876,-0.2801217138767242,-0.5792188048362732,-0.2225289344787597,-0.2538775205612182,0.0,0.0,0.5458183288574219,0.4299050569534302
-0.0545973777770996,1.152802586555481,-0.2887817025184631,-0.5518090724945068,-0.2357717156410217,-0.264879047870636,0.0,0.0,-0.1832853555679321,-0.8098772764205933
-0.0577904693782329,1.1401392221450806,-0.3083453774452209,-0.5646041631698608,-0.2469157576560974,-0.2228801995515823,0.0,0.0,-0.1463738679885864,-0.2942253351211548
-0.0610785484313964,1.1271716356277466,-0.3179455101490021,-0.5781996250152588,-0.2579950988292694,-0.221587061882019,0.0,0.0,0.6964852809906006,-0.5908310413360596
-0.0644288063049316,1.1152076721191406,-0.3250728547573089,-0.5335146188735962,-0.2681709229946136,-0.2035159617662429,0.0,0.0,-0.5652945041656494,-0.1650388240814209
-0.0678737610578537,1.1029391288757324,-0.3346351981163025,-0.5471082925796509,-0.2782826423645019,-0.2022338360548019,0.0,0.0,-0.5034902095794678,-0.8250918388366699
-0.0714786499738693,1.090390682220459,-0.3523885607719421,-0.5592811703681946,-0.2866016924381256,-0.1663808822631836,0.0,0.0,0.4117740392684936,-0.3218333721160888
-0.0749579444527626,1.078571081161499,-0.3399880826473236,-0.5268959999084473,-0.2947832942008972,-0.1636321544647216,0.0,0.0,-0.7224079370498657,-0.6181010603904724
-0.07858457416296,1.0664668083190918,-0.3561809659004211,-0.5392968654632568,-0.3014864325523376,-0.1340626180171966,0.0,0.0,-0.2476105690002441,-0.3095420598983764
-0.0823051482439041,1.054057240486145,-0.3656391501426697,-0.5528854131698608,-0.3081266283988952,-0.1328039616346359,0.0,0.0,-0.0563910007476806,-0.5559321641921997
-0.0861663818359375,1.041359305381775,-0.380986750125885,-0.5654529929161072,-0.3134572505950928,-0.1066122204065322,0.0,0.0,-0.3294832706451416,0.2487703561782837
-0.0901208892464637,1.028355836868286,-0.3903760612010956,-0.5790402889251709,-0.3187255561351776,-0.1053660362958908,0.0,0.0,-0.7953051924705505,0.0939037799835205
-0.0941681861877441,1.0150467157363892,-0.3997261226177215,-0.5926274657249451,-0.323931872844696,-0.1041261330246925,0.0,0.0,-0.2132462263107299,0.5188932418823242
-0.0982714667916297,1.001410961151123,-0.4044142365455627,-0.6073729395866394,-0.3300928175449371,-0.1232188940048217,0.0,0.0,0.2288758754730224,0.0084666013717651
-0.1022562980651855,0.988259255886078,-0.3927676081657409,-0.5858364105224609,-0.3360615968704223,-0.1193757206201553,0.0,0.0,0.160520315170288,0.5829763412475586
-0.1061214432120323,0.9756388664245604,-0.3796895742416382,-0.5625127553939819,-0.343204915523529,-0.1428666561841964,0.0,0.0,-0.5312604904174805,0.4919593334197998
-0.1100772842764854,0.9627131819725036,-0.3888414204120636,-0.5761017203330994,-0.3502879440784454,-0.1416606605052948,0.0,0.0,0.3365478515625,0.8012847900390625
-0.1139380484819412,0.950393795967102,-0.3777393698692322,-0.5495813488960266,-0.359054684638977,-0.1753349155187606,0.0,0.0,-0.8530115485191345,0.8208761215209961
-0.1178157776594162,0.93772691488266,-0.3776020407676697,-0.565552294254303,-0.3697955906391144,-0.214818999171257,0.0,0.0,-0.4638081192970276,0.2024359703063964
-0.1217819228768348,0.9247552752494812,-0.3865513801574707,-0.5791462063789368,-0.3804779648780823,-0.2136477530002594,0.0,0.0,-0.632576584815979,0.4232265949249267
-0.12583589553833,0.9114792943000792,-0.3954189121723175,-0.5927398800849915,-0.391102522611618,-0.2124912738800048,0.0,0.0,-0.0812982320785522,0.4557595252990722
-0.1299766600131988,0.8978986144065857,-0.4041968286037445,-0.6063334941864014,-0.4016700387001037,-0.2113506346940994,0.0,0.0,0.6559445858001709,0.6143529415130615
-0.133983701467514,0.8844128847122192,-0.3898550570011139,-0.6024896502494812,-0.4133446216583252,-0.2334919422864914,0.0,0.0,-0.3955345153808594,0.0624552965164184
-0.1380755454301834,0.8706225752830505,-0.3984289765357971,-0.6160849332809448,-0.4249639213085174,-0.2323862612247467,0.0,0.0,0.2430458068847656,0.4574949741363525
-0.1420692503452301,0.8574377298355103,-0.3883633315563202,-0.5893633961677551,-0.436920166015625,-0.2391248047351837,0.0,0.0,0.679802417755127,0.4569274187088012
-0.1459281891584396,0.845123291015625,-0.3744309544563293,-0.5509284138679504,-0.4494472146034241,-0.2505411803722381,0.0,0.0,0.9128997325897216,-0.2912049293518066
-0.1496340781450271,0.8333162665367126,-0.359136700630188,-0.5284872651100159,-0.4620355665683746,-0.251767098903656,0.0,0.0,0.2261707782745361,-0.5189579725265503
-0.1531626731157302,0.8217234015464783,-0.3427205383777618,-0.5186455249786377,-0.4732533991336822,-0.2243566215038299,0.0,0.0,0.0572596788406372,0.2537711858749389
-0.1565869301557541,0.8104807734489441,-0.3322282433509826,-0.5031980872154236,-0.4845921397209167,-0.2267749309539795,0.0,0.0,0.6247873306274414,-0.6254286766052246
-0.159824937582016,0.7994635105133057,-0.3150936961174011,-0.4927401840686798,-0.4943143129348755,-0.1944432407617569,0.0,0.0,0.752880334854126,-0.4765584468841553
-0.1627324074506759,0.7892563939094543,-0.2821462750434875,-0.4567670524120331,-0.5039741396903992,-0.1931966543197631,0.0,0.0,-0.0657256245613098,-0.8260584473609924
-0.1657553613185882,0.7787767648696899,-0.2949385344982147,-0.4684897065162658,-0.512281060218811,-0.1661391705274582,0.0,0.0,0.726768970489502,-0.6265479326248169
-0.1687438935041427,0.7687484622001648,-0.2925248742103576,-0.4481010138988495,-0.5194754004478455,-0.1438861638307571,0.0,0.0,0.9415591955184937,-0.8003442883491516
-0.1712822914123535,0.7595974802970886,-0.2492701262235641,-0.4084650576114654,-0.5246747136116028,-0.1039860844612121,0.0,0.0,0.931233286857605,-0.7954808473587036
-0.1733912527561187,0.751081645488739,-0.2081653177738189,-0.3795379102230072,-0.5277823209762573,-0.0621524453163147,0.0,0.0,0.9653278589248656,-0.6494948267936707
-0.1750280410051345,0.7435010671615601,-0.1624200046062469,-0.3374027907848358,-0.5292227864265442,-0.0288088768720626,0.0,0.0,0.9680652618408204,-0.6920903325080872
-0.176379770040512,0.7369462847709656,-0.1350417733192443,-0.2913699150085449,-0.529382050037384,-0.0031853765249252,0.0,0.0,0.9499868154525756,-0.8517837524414062
-0.1775693893432617,0.7306455969810486,-0.1205314770340919,-0.2794191241264343,-0.5275846123695374,0.0359487496316432,0.0,0.0,0.9592740535736084,-0.8846068978309631
-0.1785630285739898,0.7252716422080994,-0.1024017930030822,-0.2376652806997299,-0.5241079926490784,0.0695322602987289,0.0,0.0,0.9402254819869996,-0.8446251749992371
-0.1792213469743728,0.720309317111969,-0.0707577243447303,-0.21866375207901,-0.5185099840164185,0.1119596138596534,0.0,0.0,0.7062935829162598,-0.6759518980979919
-0.1796327531337738,0.7158867716789246,-0.0474212653934955,-0.1941901594400406,-0.5113943815231323,0.1423116028308868,0.0,0.0,0.1171647310256958,-0.9301963448524476
-0.1800119429826736,0.7115564346313477,-0.0459620878100395,-0.1894740611314773,-0.5022979974746704,0.1819279044866562,0.0,0.0,0.0586639642715454,-0.8977676033973694
-0.1803875863552093,0.7075380086898804,-0.047398455440998,-0.1750358790159225,-0.4912604987621307,0.2207498550415039,0.0,0.0,-0.1668462753295898,-0.9523954391479492
-0.1808537542819976,0.7032759189605713,-0.0582775548100471,-0.1853225529193878,-0.4782520532608032,0.2601691782474518,0.0,0.0,-0.0285838842391967,-0.8085276484489441
-0.1813976317644119,0.6987396478652954,-0.067441701889038,-0.1971722394227981,-0.4637738466262817,0.2895638346672058,0.0,0.0,0.0584001541137695,-0.6244997978210449
-0.1817418038845062,0.694659948348999,-0.048809926956892,-0.1766023784875869,-0.4479416310787201,0.3166441619396209,0.0,0.0,0.0529400110244751,0.0984913110733032
-0.1820254325866699,0.6907244920730591,-0.042618665844202,-0.1704293042421341,-0.4323752820491791,0.3113268911838531,0.0,0.0,-0.2951072454452514,-0.0868420600891113
-0.1823200285434723,0.686486005783081,-0.043831568211317,-0.1840340048074722,-0.4168004691600799,0.3114964365959167,0.0,0.0,-0.3853514790534973,0.012561559677124
-0.1826206147670745,0.6819448471069336,-0.0445275381207466,-0.1976389735937118,-0.4012203514575958,0.3116015791893005,0.0,0.0,-0.014626145362854,0.1688418388366699
-0.1829218864440918,0.6771008372306824,-0.0447023436427116,-0.2112441658973693,-0.3856382966041565,0.3116409182548523,0.0,0.0,0.1130599975585937,0.38899827003479
-0.1830265969038009,0.6724671721458435,-0.0253477338701486,-0.2020013630390167,-0.3698287010192871,0.3161922097206116,0.0,0.0,-0.4132221937179565,0.5845409631729126
-0.1830824911594391,0.6675028204917908,-0.0194762293249368,-0.2171184718608856,-0.3551646769046783,0.2932798862457275,0.0,0.0,-0.8831613659858704,0.4438761472702026
-0.1831239759922027,0.6622355580329895,-0.0180920623242855,-0.2307221740484237,-0.3405087888240814,0.2931179702281952,0.0,0.0,-0.9174770712852478,0.7573351860046387
-0.1830944120883941,0.6566295027732849,-0.009646575897932,-0.2462303936481475,-0.3273420929908752,0.2633340060710907,0.0,0.0,-0.8881449103355408,0.1455340385437011
-0.1830405294895172,0.6507202386856079,-0.0072575816884636,-0.2598311305046081,-0.3141901195049286,0.2630394697189331,0.0,0.0,-0.9827480316162108,-0.0640835165977478
-0.182957649230957,0.6445073485374451,-0.0043859221041202,-0.2734319269657135,-0.3010561466217041,0.2626796364784241,0.0,0.0,-0.7986626029014587,0.7302439212799072
-0.182794764637947,0.6379770636558533,0.0047351331450045,-0.2878881692886352,-0.289144903421402,0.2382247745990753,0.0,0.0,-0.9590634107589722,0.6822302341461182
-0.1825549155473709,0.6311182379722595,0.01349245198071,-0.3027984201908111,-0.2783530056476593,0.2158385217189788,0.0,0.0,-0.5607520341873169,-0.2985092401504516
-0.1822727173566818,0.6239549517631531,0.0177132077515125,-0.3163950741291046,-0.2675882577896118,0.2152949273586273,0.0,0.0,-0.4507288336753845,0.3773505687713623
-0.1819442808628082,0.6164879202842712,0.0223442278802394,-0.3299916982650757,-0.2568535506725311,0.2146940976381302,0.0,0.0,-0.8918378353118896,0.6168502569198608
-0.1815224587917328,0.6087021231651306,0.0327956117689609,-0.3444201052188873,-0.2472833842039108,0.1914033591747284,0.0,0.0,-0.7551218271255493,0.7193825244903564
-0.1809923201799392,0.6005948781967163,0.0450352653861045,-0.358999639749527,-0.2391698211431503,0.1622713655233383,0.0,0.0,-0.871438205242157,0.2328006029129028
-0.1804050505161285,0.5921829342842102,0.0507708117365837,-0.3725923299789428,-0.2310940325260162,0.1615158021450042,0.0,0.0,-0.9875205755233764,0.4579010009765625
-0.1797574013471603,0.5834662318229675,0.0568307638168334,-0.3861850202083587,-0.2230583578348159,0.1607139408588409,0.0,0.0,-0.9848905801773072,0.8517413139343262
-0.1789717674255371,0.5744128227233887,0.0726243034005165,-0.4014881253242492,-0.2170497924089431,0.1201709136366844,0.0,0.0,-0.9968146681785583,-0.1295253038406372
-0.1781200468540191,0.5650543570518494,0.0792705714702606,-0.4150784611701965,-0.2110855281352996,0.1192851886153221,0.0,0.0,-0.981178879737854,-0.3264719843864441
-0.1771995574235916,0.5553906559944153,0.0861791595816612,-0.4286687970161438,-0.2051674574613571,0.1183614283800125,0.0,0.0,-0.911833643913269,-0.3708047270774841
-0.1762080192565918,0.5454218983650208,0.0933308154344558,-0.4422590434551239,-0.1992973536252975,0.1174020543694496,0.0,0.0,-0.9935327768325806,-0.0910924077033996
-0.175143152475357,0.5351480841636658,0.1007071956992149,-0.4558493196964264,-0.1934768706560135,0.1164095625281333,0.0,0.0,-0.987396478652954,0.0178687572479248
-0.1740028411149978,0.5245689749717712,0.1082909256219863,-0.4694395363330841,-0.1877075582742691,0.1153861433267593,0.0,0.0,-0.993680775165558,-0.3788084983825683
-0.1727852821350097,0.513684868812561,0.1160656362771987,-0.4830297231674194,-0.181990846991539,0.1143339648842811,0.0,0.0,-0.9889959096908568,-0.1927734017372131
-0.1714886724948883,0.5024956464767456,0.1240159720182418,-0.4966198205947876,-0.176328107714653,0.1132550612092018,0.0,0.0,-0.9883145093917848,-0.0966200828552246
-0.1701113730669021,0.4910011887550354,0.132127583026886,-0.510209858417511,-0.1707205325365066,0.1121513694524765,0.0,0.0,-0.9873330593109132,-0.2191129922866821
-0.168652057647705,0.4792016148567199,0.1403871327638626,-0.5237998366355896,-0.1651692986488342,0.1110246777534484,0.0,0.0,-0.9959794282913208,-0.5494324564933777
-0.1671603173017501,0.4671148061752319,0.1423424929380417,-0.5364479422569275,-0.1583447754383087,0.1364908367395401,0.0,0.0,-0.9514395594596864,0.1702792644500732
-0.165583997964859,0.454723060131073,0.1508613675832748,-0.5500392317771912,-0.1515785902738571,0.1353235095739364,0.0,0.0,-0.8908665776252747,-0.6894033551216125
-0.1639800071716308,0.4420448541641235,0.1521742343902588,-0.5626606345176697,-0.1433673202991485,0.1642253696918487,0.0,0.0,-0.9093235731124878,0.0473420619964599
-0.1622890532016754,0.4290619790554046,0.1609101146459579,-0.5762535929679871,-0.1352162957191467,0.1630206853151321,0.0,0.0,-0.9322101473808287,-0.4869896173477173
-0.1605103462934494,0.4157743155956268,0.1697409003973007,-0.5898464322090149,-0.1271263211965561,0.1617997586727142,0.0,0.0,-0.7802484035491943,-0.624862551689148
-0.1587015092372894,0.4021939039230346,0.1713161766529083,-0.6027853488922119,-0.1176082640886306,0.190360814332962,0.0,0.0,0.1302398443222046,-0.4075746536254883
-0.1568634063005447,0.3888608813285827,0.1747737377882003,-0.5918908715248108,-0.1086289063096046,0.1795871257781982,0.0,0.0,-0.0121089816093444,-0.1905804872512817
-0.1549351662397384,0.375223308801651,0.1838425397872924,-0.6054847836494446,-0.0997127145528793,0.1783238351345062,0.0,0.0,0.5726785659790039,-0.2192827463150024
-0.1528229713439941,0.3617967367172241,0.2020133435726165,-0.5961489081382751,-0.0905902162194252,0.1824502944946289,0.0,0.0,0.5078588724136353,-0.5899021029472351
-0.1504595726728439,0.3490973711013794,0.2256753891706466,-0.5638036131858826,-0.0800258889794349,0.2112866342067718,0.0,0.0,-0.3028669953346252,-0.7301754355430603
-0.1480637490749359,0.3361073434352875,0.2274554222822189,-0.5767298340797424,-0.0680150240659713,0.2402171194553375,0.0,0.0,0.0744814872741699,-0.2161862254142761
-0.1454450637102127,0.3236357867717743,0.2493582218885421,-0.5537664294242859,-0.0556403957307338,0.2474926710128784,0.0,0.0,0.0500283241271972,0.2363965511322021
-0.1426645219326019,0.3114084005355835,0.2653678059577942,-0.5430170893669128,-0.0431073680520057,0.2506605982780456,0.0,0.0,-0.3057334423065185,-0.6715902090072632
-0.1398443281650543,0.2988878488540649,0.268031895160675,-0.5561246275901794,-0.029287464916706,0.2763980031013489,0.0,0.0,0.2437607049942016,0.1613121032714843
-0.1368674337863922,0.2869510948657989,0.28354611992836,-0.5303027629852295,-0.0153230587020516,0.2792882323265075,0.0,0.0,0.1350501775741577,-0.3597930669784546
-0.1337363272905349,0.2751825749874115,0.2987650036811828,-0.5229630470275879,-0.0011696696747094,0.2830678820610046,0.0,0.0,-0.0864718556404113,-0.3596044182777405
-0.1305110901594162,0.2631109058856964,0.3082562088966369,-0.5365664958953857,0.0129163982346653,0.281721293926239,0.0,0.0,0.5187981128692627,-0.3568549156188965
-0.1273154318332672,0.2514435052871704,0.305919885635376,-0.5187212228775024,0.0263890493661165,0.2694531977176666,0.0,0.0,0.4235831499099731,-0.2791368961334228
-0.1240564361214637,0.240200474858284,0.312417596578598,-0.4999825358390808,0.0397080816328525,0.2663803696632385,0.0,0.0,0.5767934322357178,-0.4596790075302124
-0.1206978783011436,0.2294186502695083,0.322327971458435,-0.4796065986156463,0.0530737154185771,0.2673127055168152,0.0,0.0,0.1019601821899414,-0.3961726427078247
-0.1171699538826942,0.2186996042728424,0.3389380276203155,-0.4769468903541565,0.0667740628123283,0.2740067541599273,0.0,0.0,0.3653527498245239,-0.377293586730957
-0.1135040298104286,0.2085311710834503,0.352439820766449,-0.4526189565658569,0.0807786062359809,0.2800908982753753,0.0,0.0,0.5182127952575684,-0.5004369616508484
-0.1098176017403602,0.1991710513830185,0.3535037338733673,-0.4168910384178161,0.0957751423120498,0.2999306321144104,0.0,0.0,0.1631275415420532,-0.4573512077331543
