x_pos,y_pos,x_vel,y_vel,angle,ang_vel,leg_1,leg_2,main_booster,lat_booster
-0.0016376494895666,1.403164625167847,-0.1659250557422638,-0.3446823358535766,0.0019397290889173,0.0382758155465126,0.0,0.0,-0.1672532558441162,0.5559079647064209
-0.00334253301844,1.394970178604126,-0.1712902188301086,-0.364199161529541,0.0027291572187095,0.015790807083249,0.0,0.0,0.4032196998596191,0.7938970327377319
-0.0049732206389307,1.3868252038955688,-0.1625720262527465,-0.3619985282421112,0.0022388058714568,-0.0098079377785325,0.0,0.0,0.0623735189437866,0.6710424423217773
-0.006753253750503,1.3787000179290771,-0.1761458218097686,-0.3611192107200622,0.0004091653972864,-0.0365963093936443,0.0,0.0,-0.6498517990112305,0.8739368915557861
-0.0085638044402003,1.3701179027557373,-0.1771848499774933,-0.3814287185668945,-0.0034239825326949,-0.076670154929161,0.0,0.0,0.4713989496231079,-0.3204954266548157
-0.0103642465546727,1.361801266670227,-0.1768613010644912,-0.3696396946907043,-0.0065769744105637,-0.0630654767155647,0.0,0.0,0.160535454750061,0.89363694190979
-0.0122237205505371,1.3536330461502075,-0.1810615360736847,-0.3630657494068146,-0.0114136254414916,-0.0967418402433395,0.0,0.0,-0.6983272433280945,0.7348992824554443
-0.0141242984682321,1.3450063467025757,-0.1834177672863006,-0.3834749460220337,-0.0179678238928318,-0.1310962587594986,0.0,0.0,-0.4398545622825622,0.504103422164917
-0.016098404303193,1.3359251022338867,-0.1898994743824005,-0.4037220776081085,-0.0254023168236017,-0.1487032175064087,0.0,0.0,-0.5874243974685669,0.6720530986785889
-0.018131922930479,1.3263869285583496,-0.1945829540491104,-0.4240837097167969,-0.0340681187808513,-0.1733321845531463,0.0,0.0,-0.3844913244247436,0.7931931018829346
-0.0202055927366018,1.316387414932251,-0.1968920528888702,-0.4446994662284851,-0.0444316416978836,-0.2072898149490356,0.0,0.0,-0.1227924227714538,0.576141357421875
-0.0223396308720111,1.305924892425537,-0.20174041390419,-0.4653806090354919,-0.0559720024466514,-0.2308285236358642,0.0,0.0,-0.6458806991577148,0.7916579246520996
-0.0245079044252634,1.295002579689026,-0.2033554017543792,-0.4859982430934906,-0.0693217292428016,-0.2670186758041382,0.0,0.0,-0.3416993618011474,0.8276001214981079
-0.026713466271758,1.283607840538025,-0.2053470313549041,-0.5072079300880432,-0.0844039246439933,-0.3016715943813324,0.0,0.0,-0.3504009246826172,0.3968781232833862
-0.0290276519954204,1.271756291389465,-0.2163243740797042,-0.5276581645011902,-0.0993850976228714,-0.2996509671211242,0.0,0.0,-0.4137159585952759,0.5250980854034424
-0.0314012542366981,1.259434700012207,-0.2211441099643707,-0.5487874746322632,-0.1155027076601982,-0.3223814666271209,0.0,0.0,-0.0118005275726318,0.2732850313186645
-0.0338815674185752,1.2466564178466797,-0.2319388687610626,-0.5692412257194519,-0.1315191090106964,-0.3203576207160949,0.0,0.0,-0.2867493629455566,0.0061365365982055
-0.0364673621952533,1.2334215641021729,-0.2426320314407348,-0.589695394039154,-0.1474353671073913,-0.3183540105819702,0.0,0.0,0.7193737030029297,-0.5270135402679443
-0.0389689430594444,1.2209599018096924,-0.2356989383697509,-0.5553556084632874,-0.1618932634592056,-0.2891844511032104,0.0,0.0,-0.1791968345642089,-0.0979701876640319
-0.0415738113224506,1.208040475845337,-0.2461663037538528,-0.5758168697357178,-0.1762526929378509,-0.2872141599655151,0.0,0.0,0.2617326974868774,-0.3003892302513122
-0.0440840721130371,0.0,-0.2372891157865524,-0.5596609115600586,-0.1900586038827896,-0.2761431634426117,0.0,0.0,0.0585747957229614,-0.7328064441680908
-0.0466902740299701,1.182901382446289,-0.2484774887561798,-0.5609315037727356,-0.2022937685251236,-0.2447257936000824,0.0,0.0,-0.5735899209976196,-0.6140395998954773
-0.0494329445064067,1.16986882686615,-0.2632167637348175,-0.5807750225067139,-0.2134657502174377,-0.2234594523906707,0.0,0.0,0.7150193452835083,0.460547924041748
-0.0521337501704692,1.1568297147750854,-0.259478747844696,-0.5810816287994385,-0.2242055982351303,-0.2148159444332122,0.0,0.0,0.5461138486862183,0.1985975503921508
-0.0549261085689067,1.1442573070526123,-0.2681475281715393,-0.5605040192604065,-0.2354673445224762,-0.2252544611692428,0.0,0.0,0.256824254989624,-0.3341042995452881
-0.0577987655997276,1.1320254802703855,-0.275777518749237,-0.5455125570297241,-0.2471493035554886,-0.2336387932300567,0.0,0.0,-0.2296041250228881,-0.885217010974884
-0.0608300194144248,1.11936616897583,-0.293503999710083,-0.5642887353897095,-0.2569601833820343,-0.1962172538042068,0.0,0.0,0.5046637058258057,-0.3377411961555481
-0.0638754814863205,1.1073839664459229,-0.29449662566185,-0.5343400239944458,-0.2672342658042907,-0.205481931567192,0.0,0.0,-0.8651303052902222,-0.3760799169540405
-0.0670088753104209,1.0949430465698242,-0.3033898174762726,-0.5547767281532288,-0.2774233222007751,-0.2037812918424606,0.0,0.0,0.5115946531295776,-0.4580105543136596
-0.070123866200447,1.0826950073242188,-0.3015773296356201,-0.5462759733200073,-0.2876187264919281,-0.2039079368114471,0.0,0.0,0.6100234985351562,-0.8854559063911438
-0.0731328949332237,1.071205496788025,-0.2928704619407654,-0.5122597217559814,-0.2958976626396179,-0.1655788719654083,0.0,0.0,0.1522659063339233,-0.8270933628082275
-0.0762560814619064,1.059746503829956,-0.3059713244438171,-0.5105990171432495,-0.302456259727478,-0.1311718523502349,0.0,0.0,0.2166427373886108,-0.6029890179634094
-0.0793889984488487,1.0487298965454102,-0.3081089556217193,-0.4907187521457672,-0.3078204095363617,-0.107282817363739,0.0,0.0,-0.7015355825424194,-0.4997589588165283
-0.082596018910408,1.0372536182403564,-0.3155916631221771,-0.5111491680145264,-0.3131130039691925,-0.1058519929647445,0.0,0.0,-0.5672900676727295,0.367866039276123
-0.0858737006783485,1.025317668914795,-0.3227397501468658,-0.5315796136856079,-0.3183371424674988,-0.104482963681221,0.0,0.0,0.648728609085083,0.0974479913711547
-0.0889652222394943,1.0139888525009155,-0.304265558719635,-0.5045807361602783,-0.3234121799468994,-0.1015006154775619,0.0,0.0,0.1440353393554687,0.4575520753860473
-0.0920372009277343,1.0026575326919556,-0.3023092150688171,-0.5047154426574707,-0.3285094499588012,-0.1019448861479759,0.0,0.0,0.3425884246826172,-0.2818096876144409
-0.0949399918317794,0.9917298555374146,-0.2855895161628723,-0.4867471158504486,-0.3334052860736847,-0.097916655242443,0.0,0.0,0.491011381149292,0.1487305164337158
-0.0976830497384071,0.9814380407333374,-0.269519031047821,-0.4585360288619995,-0.3384107947349548,-0.1001095548272132,0.0,0.0,0.2538654804229736,-0.4244998693466186
-0.1003040298819542,0.9713284373283386,-0.2574624717235565,-0.4504079818725586,-0.3432662189006805,-0.0971085950732231,0.0,0.0,0.6378545761108398,-0.1193899512290954
-0.1028117164969444,0.9619030952453612,-0.2457212507724762,-0.4201179146766662,-0.3485644459724426,-0.1059637293219566,0.0,0.0,-0.4111230373382568,-0.4189026355743408
-0.1053616553544998,0.9520182609558104,-0.2499933540821075,-0.4405488669872284,-0.353819727897644,-0.1051062494516372,0.0,0.0,-0.2753728628158569,-0.4768044352531433
-0.1079490631818771,0.9416738152503968,-0.253779798746109,-0.4609798789024353,-0.3590363264083862,-0.1043328270316124,0.0,0.0,0.4561386108398437,-0.1870481371879577
-0.1103230491280555,0.9314781427383424,-0.2328823357820511,-0.4542849361896515,-0.3638138473033905,-0.0955505818128585,0.0,0.0,0.7195723056793213,-0.8442756533622742
-0.1127235442399978,0.9213033318519592,-0.2371139526367187,-0.4529543220996856,-0.3669170439243316,-0.0620632097125053,0.0,0.0,0.9514355659484864,0.0732976198196411
-0.114953801035881,0.9111925959587096,-0.2203568965196609,-0.4500605165958404,-0.3697438240051269,-0.0565353818237781,0.0,0.0,0.991074562072754,-0.4660944938659668
-0.1169376373291015,0.9013354182243348,-0.1960431188344955,-0.4387008845806122,-0.3722097277641296,-0.0493182614445686,0.0,0.0,0.957378387451172,-0.6398507952690125
-0.1187509521842002,0.8925101161003113,-0.1799278855323791,-0.3925947248935699,-0.3737045228481293,-0.0298956632614135,0.0,0.0,0.9887131452560424,-0.7157042622566223
-0.1204344779253006,0.8846811056137085,-0.1679482161998748,-0.3480646908283233,-0.3741209208965301,-0.0083281900733709,0.0,0.0,0.9775863885879515,-0.6403926610946655
-0.1219675987958908,0.8772829174995422,-0.1541037559509277,-0.3285970389842987,-0.3732854723930359,0.0167091600596904,0.0,0.0,0.6344476938247681,-0.7022225856781006
-0.1231957450509071,0.870159387588501,-0.1252627670764923,-0.3159624934196472,-0.3706908524036407,0.0518922694027423,0.0,0.0,0.8954565525054932,-0.620400071144104
-0.1242161765694618,0.8638268113136292,-0.105526402592659,-0.280551016330719,-0.3670012354850769,0.073792427778244,0.0,0.0,0.9521884918212892,-0.7154734134674072
-0.1249537467956543,0.8577218055725098,-0.0789445340633392,-0.2700125873088836,-0.3615227043628692,0.1095705479383468,0.0,0.0,0.3016915321350097,-0.7938116788864136
-0.1254994422197342,0.8520780205726624,-0.0613087117671966,-0.2491567432880401,-0.3544144332408905,0.1421654969453811,0.0,0.0,0.5611363649368286,-0.5665773153305054
-0.1257557868957519,0.8465655446052551,-0.0338301360607147,-0.2429997324943542,-0.3458000719547272,0.1722870171070099,0.0,0.0,-0.4894894361495971,-0.1896587014198303
-0.1259772330522537,0.840594470500946,-0.0303334239870309,-0.2634361982345581,-0.3372080326080322,0.1718403398990631,0.0,0.0,-0.8767976760864258,0.0205726623535156
-0.1261580437421798,0.8341648578643799,-0.0262729823589324,-0.2838727533817291,-0.3286430835723877,0.1712987869977951,0.0,0.0,-0.9163345694541932,0.4210677146911621
-0.1262927949428558,0.8272765278816223,-0.0216596256941556,-0.3043093681335449,-0.320109874010086,0.1706638187170028,0.0,0.0,-0.9636239409446716,0.259937047958374
-0.126376062631607,0.8199297189712524,-0.01650614105165,-0.3247460722923279,-0.311612993478775,0.1699371933937072,0.0,0.0,-0.9190157055854796,0.5149679183959961
-0.1263680458068847,0.8121120929718018,-0.0064813131466507,-0.345906138420105,-0.3040690124034881,0.1508795768022537,0.0,0.0,-0.9922052025794984,-0.1350839138031005
-0.1262984275817871,0.8038355708122253,-0.000292315671686,-0.3663417994976043,-0.2965701818466186,0.149976447224617,0.0,0.0,-0.9672345519065856,0.1253442764282226
-0.1261623352766037,0.7951004505157471,0.0063885599374771,-0.3867774605751037,-0.2891207337379455,0.1489888876676559,0.0,0.0,-0.9859046339988708,-0.3427435159683227
-0.1259550154209137,0.7859065532684326,0.013542691245675,-0.4072131514549255,-0.281724750995636,0.147919625043869,0.0,0.0,-0.9482489824295044,0.3189675807952881
-0.1256719529628753,0.776253879070282,0.0211505703628063,-0.4276488423347473,-0.2743861675262451,0.1467716246843338,0.0,0.0,-0.9971945881843568,0.4341368675231933
-0.1253089904785156,0.7661423087120056,0.0291920397430658,-0.4480845034122467,-0.2671087682247162,0.1455479562282562,0.0,0.0,-0.986238956451416,0.3149898052215576
-0.1248620003461837,0.7555720210075378,0.0376465171575546,-0.4685202240943908,-0.2598961591720581,0.1442518979310989,0.0,0.0,-0.9918356537818908,0.3470852375030517
-0.1243269890546798,0.7445430159568787,0.0464932061731815,-0.4889558851718902,-0.2527518272399902,0.1428865790367126,0.0,0.0,-0.9796923398971558,-0.151071548461914
-0.1237004250288009,0.7330551743507385,0.0557112768292427,-0.5093914866447449,-0.2456790655851364,0.1414553374052047,0.0,0.0,-0.9810820817947388,-0.2587878704071045
-0.1229788810014724,0.7211085557937622,0.0652800723910331,-0.5298269987106323,-0.2386809885501861,0.1399615108966827,0.0,0.0,-0.9392508864402772,-0.5215118527412415
-0.122205451130867,0.7087178826332092,0.0693236738443374,-0.5494168400764465,-0.230545625090599,0.1627076864242553,0.0,0.0,-0.9716086983680724,-0.0689712166786193
-0.1213305443525314,0.695868730545044,0.0795327648520469,-0.5698539018630981,-0.2224907428026199,0.1610976606607437,0.0,0.0,-0.989138662815094,0.2166574001312255
-0.1203514114022255,0.6825609803199768,0.0900329947471618,-0.5902907848358154,-0.2145190238952636,0.1594343185424804,0.0,0.0,-0.92343932390213,-0.6887214183807373
-0.119328498840332,0.6688233613967896,0.0928008407354354,-0.6092144250869751,-0.2049447894096374,0.1914847642183303,0.0,0.0,-0.9824615120887756,-0.5718575716018677
-0.1182348281145095,0.6546396613121033,0.0989448875188827,-0.6289768815040588,-0.1944493353366851,0.2099091708660125,0.0,0.0,-0.8827962279319763,0.0616899728775024
-0.1170292869210243,0.6399979591369629,0.1102080568671226,-0.649417519569397,-0.1840442568063736,0.2081018686294555,0.0,0.0,-0.8631477952003479,-0.1621147990226745
-0.115709587931633,0.6248981952667236,0.1216921955347061,-0.6698578596115112,-0.1737316399812698,0.2062523066997528,0.0,0.0,-0.6662470698356628,-0.0087665915489196
-0.1142736449837684,0.609340488910675,0.1333817094564438,-0.6902979612350464,-0.1635134816169738,0.2043632715940475,0.0,0.0,-0.5291104912757874,0.3793399333953857
-0.1127198189496994,0.5933245420455933,0.1452619135379791,-0.7107378840446472,-0.1533916145563125,0.2024374902248382,0.0,0.0,-0.646483302116394,-0.4197795987129211
-0.1110462173819542,0.576850414276123,0.1573189198970794,-0.731177568435669,-0.143367737531662,0.2004774808883667,0.0,0.0,-0.6080079078674316,-0.3639981746673584
-0.1092511191964149,0.5599181652069092,0.1695397198200225,-0.7516171336174011,-0.1334434449672699,0.198485642671585,0.0,0.0,-0.5526816248893738,-0.2283565998077392
-0.1073333770036697,0.5425277352333069,0.1819120347499847,-0.7720564007759094,-0.1236202344298362,0.196464329957962,0.0,0.0,-0.1996415853500366,-0.8708223700523376
-0.105354405939579,0.5246987342834473,0.1864814013242721,-0.7914894819259644,-0.1122739166021347,0.2269264012575149,0.0,0.0,0.0549871921539306,-0.1995468139648437
-0.1032730117440223,0.5069706439971924,0.197112962603569,-0.7871249914169312,-0.1013306379318237,0.2188654243946075,0.0,0.0,0.4620158672332763,-0.7675029635429382
-0.1011181846261024,0.4897004961967468,0.2030927389860153,-0.7667680382728577,-0.0890459343791008,0.2456941604614257,0.0,0.0,0.310855507850647,-0.6370002627372742
-0.0988466292619705,0.4728133082389831,0.2135922014713287,-0.7497900128364563,-0.0756156519055366,0.268605887889862,0.0,0.0,0.4339141845703125,0.1799489259719848
-0.0963327437639236,0.4562156498432159,0.2375736981630325,-0.7370316982269287,-0.061942383646965,0.2734651267528534,0.0,0.0,0.0912244319915771,0.0884678363800048
-0.0936594977974891,0.4394979178905487,0.25352942943573,-0.7424957752227783,-0.0483047105371952,0.2727534472942352,0.0,0.0,0.6946587562561035,-0.2062746882438659
-0.0907407775521278,0.4229350984096527,0.2777365148067474,-0.7357320189476013,-0.034335721284151,0.2793797850608825,0.0,0.0,0.7080583572387695,-0.3677326440811157
-0.0875184088945388,0.4067924916744232,0.3074866533279419,-0.717175304889679,-0.0197727531194686,0.2912592887878418,0.0,0.0,0.4132511615753174,-0.2723077535629272
-0.0840382575988769,0.390695571899414,0.3328236043453216,-0.7152864336967468,-0.0047684567980468,0.3000857234001159,0.0,0.0,0.8438286781311035,-0.8610286712646484
-0.0804964080452919,0.3754067718982696,0.3373680710792541,-0.6795325875282288,0.0118240527808666,0.3318502902984619,0.0,0.0,0.4784669876098633,-0.6341933608055115
-0.0768494606018066,0.3606848120689392,0.3466644287109375,-0.6545467972755432,0.029629323631525,0.356105238199234,0.0,0.0,0.6366168260574341,-0.1483655571937561
-0.0729649513959884,0.3465036451816559,0.3699544668197632,-0.6307365894317627,0.0478932857513427,0.3652796149253845,0.0,0.0,0.5559955835342407,-0.7011529803276062
-0.0689121261239051,0.3323244154453277,0.3853048682212829,-0.6309450268745422,0.067647099494934,0.3950761258602142,0.0,0.0,0.8562684059143066,0.0264868736267089
-0.0648222938179969,0.3185408115386963,0.389417827129364,-0.6136038303375244,0.0870152190327644,0.3873627185821533,0.0,0.0,0.7517250776290894,-0.2566353678703308
-0.060587503015995,0.3056810796260834,0.4036290645599365,-0.5728132724761963,0.1066856980323791,0.3934096992015838,0.0,0.0,0.6608521938323975,-0.7874189615249634
-0.0563661567866802,0.2932060062885284,0.4009212851524353,-0.5560961365699768,0.127766340970993,0.4216129183769226,0.0,0.0,0.7277143001556396,-0.4696159958839416
-0.0522444732487201,0.281489610671997,0.3917377591133117,-0.5226074457168579,0.1481321603059768,0.4073165953159332,0.0,0.0,0.7528076171875,-0.0258582830429077
-0.0480048172175884,0.2704377174377441,0.4032677710056305,-0.4933866262435913,0.1688123196363449,0.4136029779911041,0.0,0.0,0.7481808662414551,0.0534752607345581
-0.0438184738159179,0.2600910365581512,0.3983901143074035,-0.4622813761234283,0.1891178488731384,0.4061105251312256,0.0,0.0,0.5610055923461914,0.2867869138717651
-0.0397056564688682,0.2503099143505096,0.3915829658508301,-0.4373519122600555,0.2089494913816452,0.3966328203678131,0.0,0.0,0.5377514362335205,-0.1929534077644348
-0.0355751030147075,0.24074687063694,0.3936447203159332,-0.4278896450996399,0.2285620719194412,0.3922518789768219,0.0,0.0,0.5525804758071899,0.0411169528961181
-0.0315427780151367,0.2315169125795364,0.3845193088054657,-0.4132295250892639,0.247556060552597,0.3798796534538269,0.0,0.0,0.6640151739120483,0.0511736869812011
-0.027649974450469,0.2225428968667984,0.3714651465415954,-0.4019503891468048,0.2657380104064941,0.3636387288570404,0.0,0.0,0.2129005193710327,0.041658878326416
-0.023683737963438,0.213907316327095,0.3786565661430359,-0.3871702551841736,0.2841691076755523,0.3686220347881317,0.0,0.0,0.1670116186141967,0.0608340501785278
-0.0196118354797363,0.2052095979452133,0.3892240822315216,-0.3901743590831756,0.3026906847953796,0.3704310655593872,0.0,0.0,0.6203703880310059,-0.0497077703475952
-0.0154900550842285,0.1971912980079651,0.3937881886959076,-0.3603181838989258,0.3217608630657196,0.3814033269882202,0.0,0.0,0.8033509254455566,-0.1240386962890625
-0.0115224840119481,0.1899108439683914,0.3786816596984863,-0.3277035057544708,0.3406067788600921,0.3769185245037079,0.0,0.0,0.592336893081665,-0.5784324407577515
-0.0075976373627781,0.1833972334861755,0.3731901049613952,-0.2941832542419433,0.3608767092227936,0.4053990244865417,0.0,0.0,0.5172295570373535,-0.5033859610557556
-0.003690528916195,0.177194744348526,0.3705130517482757,-0.2808966934680938,0.382266491651535,0.4277955889701843,0.0,0.0,0.742048978805542,-0.2382766008377075
2.536773718020413e-05,0.1717316210269928,0.3516945838928222,-0.2482872605323791,0.4035147726535797,0.4249656200408935,0.0,0.0,0.1460206508636474,-0.318554162979126
0.0037023543845862,0.1665921509265899,0.3479042649269104,-0.2342030107975006,0.4248523712158203,0.4267528653144836,0.0,0.0,0.0138018131256103,-0.4797863960266113
0.0074453353881835,0.1614131331443786,0.3545760810375213,-0.2362806051969528,0.4463145136833191,0.4292426109313965,0.0,0.0,-0.127881646156311,-0.0210189223289489
0.011325073428452,0.1557793468236923,0.3685517609119415,-0.2567419111728668,0.4676736295223236,0.4271821975708008,0.0,0.0,0.3400640487670898,0.5455846786499023
0.0150909423828125,0.1502004265785217,0.3587006330490112,-0.2541122734546661,0.4875518977642059,0.3975654244422912,0.0,0.0,-0.0206300616264343,0.7307623624801636
0.019042681902647,0.1442038565874099,0.3788746893405914,-0.2723958790302276,0.5058477520942688,0.365916907787323,0.0,0.0,0.6317605972290039,0.2444000244140625
0.0228986740112304,0.1384607851505279,0.3694480061531067,-0.2613305747509002,0.5241631269454956,0.3663069009780884,0.0,0.0,0.7088700532913208,0.5013889074325562
0.0268653873354196,0.1328772902488708,0.3813431859016418,-0.2541689574718475,0.5417188405990601,0.3511134684085846,0.0,0.0,0.4254581928253174,-0.1790478229522705
0.030737018212676,0.1276603490114212,0.3717418313026428,-0.2381617426872253,0.559566855430603,0.3569608628749847,0.0,0.0,0.3787946701049804,0.2983871698379516
0.0344058983027935,0.1228591278195381,0.3516387343406677,-0.2198700159788131,0.5774164199829102,0.3569908440113067,0.0,0.0,0.2489532232284546,0.4734988212585449
0.0381231307983398,0.1179368793964386,0.3565377593040466,-0.2254750281572342,0.5953946709632874,0.3595660030841827,0.0,0.0,0.477466344833374,0.3408534526824951
