x_pos,y_pos,x_vel,y_vel,angle,ang_vel,leg_1,leg_2,main_booster,lat_booster
-0.0015281677478924,1.403200387954712,-0.1541069746017456,-0.3430937826633453,0.0011510599870234,0.0226603839546442,0.0,0.0,-0.6324319731715797,-0.7109861522172253
-0.0031112669967114,1.3950763940811155,-0.1601185053586959,-0.3610679507255554,0.002936034463346,0.0357035547494888,0.0,0.0,0.2471881248361616,-0.8041822731031772
-0.0046465871855616,1.3869798183441162,-0.1564516872167587,-0.3598563373088836,0.0058248960413038,0.0577827915549278,0.0,0.0,-0.4659208415741009,-0.7151923963694662
-0.0062513351440429,1.3784563541412354,-0.164475604891777,-0.3788433969020843,0.0097908787429332,0.0793264359235763,0.0,0.0,0.6340287655633601,-0.8483306552383286
-0.007788467220962,1.370480179786682,-0.1590508222579956,-0.3545359671115875,0.0150732323527336,0.1056568771600723,0.0,0.0,-0.01803321469679,-0.7296729733594265
-0.0093703269958496,1.3620781898498535,-0.1640385687351226,-0.3734911978244781,0.0208591576665639,0.1157290190458297,0.0,0.0,-0.4748221889524737,-0.9826251521438316
-0.0110321044921875,1.35325026512146,-0.1734499633312225,-0.3924719393253326,0.0280542150139808,0.1439143419265747,0.0,0.0,0.4946223571263315,-0.7258142070014306
-0.0126171112060546,1.3448824882507324,-0.1669033467769622,-0.3720802962779999,0.0363679490983486,0.1662901192903518,0.0,0.0,0.2485146817438186,-0.7916431801478537
-0.0142962457612156,1.3370437622070312,-0.1772739589214325,-0.3486348688602447,0.0456333644688129,0.1853251904249191,0.0,0.0,-0.2906727186391478,-0.9709120035803034
-0.016049575060606,1.3287829160690308,-0.1860358119010925,-0.3675104975700378,0.0562251135706901,0.211854413151741,0.0,0.0,0.9990179114462824,0.9677695684418332
-0.0176491737365722,1.321192741394043,-0.1683321446180343,-0.3376676738262176,0.0645217150449752,0.1659472286701202,0.0,0.0,-0.7087991470203123,-0.8894525054740288
-0.0193064697086811,1.313171148300171,-0.1750874668359756,-0.3569381535053253,0.0737868249416351,0.1853192597627639,0.0,0.0,-0.9169099809414564,-0.8699485184618672
-0.0210133548825979,1.3047250509262085,-0.18079774081707,-0.3759161233901977,0.0838177129626274,0.2006362676620483,0.0,0.0,0.3395496797627353,-0.6189542814194204
-0.0227261539548635,1.296281814575195,-0.1821718364953994,-0.3758957982063293,0.0946222320199012,0.2161099463701248,0.0,0.0,0.7702544019325614,0.7103795772941568
-0.0242980010807514,1.2887728214263916,-0.1664459407329559,-0.3343448936939239,0.1038178652524948,0.1839295029640197,0.0,0.0,-0.0682037336053686,0.6347469072309275
-0.025804329663515,1.28084135055542,-0.1578057706356048,-0.3530174791812897,0.1109555140137672,0.142766073346138,0.0,0.0,-0.9774278350211144,0.9317995964365664
-0.0272148139774799,1.2725114822387695,-0.1453643292188644,-0.3705398738384247,0.1152486205101013,0.0858697071671485,0.0,0.0,-0.5155759447724253,0.8144054660002038
-0.0285383220762014,1.2637639045715332,-0.1340966373682022,-0.3889219462871551,0.1169859543442726,0.0347501710057258,0.0,0.0,-0.4713940886511876,0.929619692012138
-0.0297698974609375,1.254615068435669,-0.1221853867173194,-0.4065410494804382,0.1160237714648246,-0.0192453376948833,0.0,0.0,0.2329891176994416,0.8099697230711905
-0.0310462955385446,1.2456694841384888,-0.124458335340023,-0.3973326086997986,0.1128465384244918,-0.063550479710102,0.0,0.0,0.5474524247685622,0.9094892091263526
-0.0321881286799907,1.2373905181884766,-0.1088189333677291,-0.367556482553482,0.1075015589594841,-0.1069090366363525,0.0,0.0,0.0398593036218082,0.8205030086809006
-0.0332769379019737,1.2291098833084106,-0.1013411656022071,-0.3675050437450409,0.1000097543001174,-0.1498493254184723,0.0,0.0,-0.7693362233190433,0.9677906927965436
-0.0342629440128803,1.220418095588684,-0.0881987735629081,-0.3856291770935058,0.089670181274414,-0.2068100869655609,0.0,0.0,0.1805379425259887,0.9229116178872648
-0.0351270660758018,1.2116445302963257,-0.0736579820513725,-0.3892236053943634,0.0770220756530761,-0.2529848217964172,0.0,0.0,0.1545297251950406,0.9763496344249324
-0.0360551849007606,1.2031195163726809,-0.0775888785719871,-0.3781691491603851,0.0619479678571224,-0.3015095591545105,0.0,0.0,-0.4826249368774866,0.6817665547104289
-0.036930464208126,1.1941596269607544,-0.0707727596163749,-0.3976083397865295,0.0453775823116302,-0.3314075469970703,0.0,0.0,0.1767326681397527,-0.6170194807895402
-0.0378639213740825,1.1855549812316897,-0.0773555263876915,-0.3820175230503082,0.0295856818556785,-0.315837949514389,0.0,0.0,0.0437086359910585,0.6547210252804395
-0.0388431549072265,1.177316665649414,-0.0800729244947433,-0.3658891916275024,0.0119535671547055,-0.3526422679424286,0.0,0.0,0.2215203748157466,-0.7940022897571863
-0.0399903282523155,1.169520616531372,-0.0979200154542923,-0.3464371263980865,-0.0046254550106823,-0.3315806984901428,0.0,0.0,-0.6622276463840688,-0.7220596939961315
-0.0411843284964561,1.161301851272583,-0.1037005558609962,-0.3653999269008636,-0.0201227217912673,-0.3099456429481506,0.0,0.0,0.5910254775581003,0.7112003008665101
-0.0422731414437294,1.1538912057876587,-0.0914000645279884,-0.3296830058097839,-0.0373802110552787,-0.3451498746871948,0.0,0.0,0.0781164915754979,-0.6780970453590054
-0.0434495918452739,1.1464914083480835,-0.1011165529489517,-0.3293647766113281,-0.0537162385880947,-0.3267204761505127,0.0,0.0,0.7525546927019588,0.6413036050811971
-0.0446106903254985,1.1399552822113037,-0.0977138951420784,-0.2912528812885284,-0.0719035118818283,-0.363745629787445,0.0,0.0,0.2865806505320714,0.7529237319284976
-0.0457345955073833,1.133413553237915,-0.0921147018671035,-0.2918446362018585,-0.0919874459505081,-0.4016788601875305,0.0,0.0,-0.3076682802451778,-0.7010963099212182
-0.0468983650207519,1.1264621019363403,-0.0971865877509117,-0.3102427124977112,-0.1110137775540351,-0.380526602268219,0.0,0.0,0.5242406756555433,-0.7351251403740426
-0.0480092987418174,1.1201438903808594,-0.0931968688964843,-0.2822358906269073,-0.1288174539804458,-0.3560739457607269,0.0,0.0,0.9116618290296434,0.9098743728988922
-0.0490005500614643,1.1141786575317385,-0.0791066586971283,-0.2669735848903656,-0.1487574279308319,-0.3987998068332672,0.0,0.0,0.2354159056230174,0.9376055544598464
-0.0497855171561241,1.1086232662200928,-0.056470550596714,-0.2492524981498718,-0.1707867085933685,-0.4405855238437652,0.0,0.0,0.4824950778719039,-0.9538640958786512
-0.0505395904183387,1.1038076877593994,-0.0551166757941246,-0.2164762467145919,-0.191142201423645,-0.4071094393730163,0.0,0.0,0.6247729393247339,-0.7640301087366252
-0.0511938109993934,1.0994638204574585,-0.0466096363961696,-0.1956044733524322,-0.2100864201784134,-0.378884345293045,0.0,0.0,-0.5695973376722856,-0.7784168438640044
-0.0519023910164833,1.0947296619415283,-0.0537958815693855,-0.2129275202751159,-0.2273360937833786,-0.3449934720993042,0.0,0.0,-0.9995805621147156,-0.9482321739196776
-0.0526537895202636,1.089593529701233,-0.0595096722245216,-0.2307636737823486,-0.2431952655315399,-0.3171834945678711,0.0,0.0,-0.997358739376068,-0.988710641860962
-0.0534548759460449,1.0840497016906738,-0.0660779923200607,-0.2487773150205612,-0.2574897408485412,-0.2858894467353821,0.0,0.0,-0.9911320209503174,-0.8236482739448547
-0.0542930588126182,1.0781036615371704,-0.0711285546422004,-0.2665495574474334,-0.2704677283763885,-0.2595590353012085,0.0,0.0,-0.6139026284217834,-0.8517882227897644
-0.0551865585148334,1.071754813194275,-0.0784431770443916,-0.2842296659946441,-0.2816590368747711,-0.2238259613513946,0.0,0.0,-0.9530070424079896,-0.8697937726974487
-0.0561269745230674,1.0650012493133545,-0.0847230106592178,-0.3019815981388092,-0.2912478744983673,-0.1917764842510223,0.0,0.0,-0.8760662078857422,-0.8059389591217041
-0.0571073517203331,1.0578452348709106,-0.0901686772704124,-0.3196407556533813,-0.299361914396286,-0.1622805595397949,0.0,0.0,-0.0888128280639648,-0.2162948250770568
-0.0580720901489257,1.0502660274505615,-0.0886592492461204,-0.3384867906570434,-0.3074419200420379,-0.1616009622812271,0.0,0.0,-0.96006578207016,-0.804612934589386
-0.0590933784842491,1.0423049926757812,-0.0963292866945266,-0.3550629019737243,-0.3134547173976898,-0.1202558279037475,0.0,0.0,-0.7141532301902771,-0.6708298325538635
-0.0601515769958496,1.0339435338974,-0.101470910012722,-0.3725687861442566,-0.3179683685302734,-0.0902728661894798,0.0,0.0,-0.8201188445091248,0.2401784658432006
-0.061194323003292,1.0251579284667969,-0.1000360697507858,-0.3914090692996979,-0.3223713338375091,-0.0880598574876785,0.0,0.0,-0.0776439905166626,-0.8144763112068176
-0.0622870437800884,1.0159863233566284,-0.1069249957799911,-0.4081467390060425,-0.3248118460178375,-0.0488103739917278,0.0,0.0,-0.1045260429382324,-0.7435455322265625
-0.0634107589721679,1.0064092874526978,-0.1113656982779502,-0.425872653722763,-0.3258555233478546,-0.02087346278131,0.0,0.0,-0.649181604385376,-0.9477040767669678
-0.0645874962210655,0.9964513778686525,-0.1187070459127426,-0.442342072725296,-0.3247827887535095,0.0214549675583839,0.0,0.0,-0.5199397802352905,-0.6183454990386963
-0.0657843574881553,0.9860840439796448,-0.1218238845467567,-0.4602928459644317,-0.3225587606430053,0.0444804206490516,0.0,0.0,-0.2044198513031005,-0.9388940334320068
-0.0670482665300369,0.9753287434577942,-0.1308826506137848,-0.4770209491252899,-0.3178938031196594,0.0932994335889816,0.0,0.0,-0.0678582191467285,-0.7766774296760559
-0.0683448761701583,0.964179754257202,-0.1356750279664993,-0.494199126958847,-0.311639130115509,0.1250937581062317,0.0,0.0,-0.4206335544586181,-0.8928104043006897
-0.0696773529052734,0.9526349902153016,-0.1409007161855697,-0.511485755443573,-0.3037136197090149,0.1585104912519455,0.0,0.0,-0.1340043544769287,-0.7068272829055786
-0.0710401535034179,0.9406947493553162,-0.145454928278923,-0.5287898182868958,-0.2942373156547546,0.1895260065793991,0.0,0.0,-0.4163985252380371,-0.1563078761100769
-0.0723884552717208,0.9283307194709778,-0.1443228125572204,-0.5476312637329102,-0.2844603955745697,0.1955385357141494,0.0,0.0,-0.4817004203796386,0.0455317497253418
-0.0737224593758583,0.9155427813529968,-0.1432297378778457,-0.5664730072021484,-0.2743660807609558,0.2018860876560211,0.0,0.0,-0.4407951831817627,-0.0485556721687316
-0.0750423446297645,0.9023310542106628,-0.1421765983104705,-0.5853152871131897,-0.2639384865760803,0.2085511684417724,0.0,0.0,-0.5262460112571716,0.4125689268112182
-0.0763484984636306,0.8886955380439758,-0.1411642134189605,-0.6041580438613892,-0.2531626224517822,0.2155167162418365,0.0,0.0,-0.7953196167945862,0.4923410415649414
-0.0776410102844238,0.8746363520622253,-0.1401933580636978,-0.6230013370513916,-0.2420243322849273,0.2227660417556762,0.0,0.0,-0.610934317111969,0.877680778503418
-0.0788533240556716,0.8601219058036804,-0.1307933777570724,-0.6435369849205017,-0.2323105484247207,0.1942755430936813,0.0,0.0,-0.7134649753570557,0.7936549186706543
-0.0800043120980262,0.8451669216156006,-0.1238045543432235,-0.6633206009864807,-0.2234793454408645,0.1766240894794464,0.0,0.0,-0.7124556303024292,0.6144907474517822
-0.0810925513505935,0.8297778964042664,-0.1166906133294105,-0.6827843189239502,-0.2155241519212722,0.1591034233570099,0.0,0.0,-0.3348937630653381,0.6117336750030518
-0.0821160301566124,0.8139398694038391,-0.1092481389641761,-0.7029253244400024,-0.2085620164871215,0.1392429023981094,0.0,0.0,-0.5961177349090576,0.0927917957305908
-0.0831276923418045,0.797677218914032,-0.1084904670715332,-0.7217634916305542,-0.2011778801679611,0.1476826220750808,0.0,0.0,-0.6822595596313477,-0.1654987931251526
-0.0841278061270713,0.7809903025627136,-0.1077771782875061,-0.7406023144721985,-0.1933619976043701,0.1563180238008499,0.0,0.0,-0.2709832787513733,0.6462678909301758
-0.0850739479064941,0.7638694047927856,-0.101735234260559,-0.7600210905075073,-0.1862031817436218,0.1431760340929031,0.0,0.0,-0.1794816851615905,0.8192354440689087
-0.085942268371582,0.7463065981864929,-0.0926872119307518,-0.7798480987548828,-0.1803217828273773,0.1176280975341796,0.0,0.0,0.4618078470230102,0.4286339282989502
-0.0867781639099121,0.7294524312019348,-0.0893907994031906,-0.7483786940574646,-0.1745100617408752,0.1162344813346862,0.0,0.0,-0.1743825078010559,0.6558139324188232
-0.0875467285513877,0.7121585607528687,-0.081657662987709,-0.7680622339248657,-0.1697083711624145,0.0960340574383735,0.0,0.0,0.254442811012268,0.5105199813842773
-0.088243767619133,0.6948718428611755,-0.073881447315216,-0.7678258419036865,-0.1655212044715881,0.0837434381246566,0.0,0.0,0.3472483158111572,0.4267655611038208
-0.0888330489397049,0.6775388717651367,-0.0638518184423446,-0.7698125839233398,-0.1605992019176483,0.0984399616718292,0.0,0.0,0.389092206954956,0.3043830394744873
-0.0893939957022667,0.6602102518081665,-0.0613828487694263,-0.7695988416671753,-0.1553157716989517,0.1056687086820602,0.0,0.0,0.7488844394683838,-0.3325545191764831
-0.0898252502083778,0.6437035799026489,-0.0488646551966667,-0.7330471277236938,-0.1495834439992904,0.1146464198827743,0.0,0.0,-0.4328328371047973,-0.1482782363891601
-0.090248204767704,0.6267723441123962,-0.0485464259982109,-0.7518852353096008,-0.1433561593294143,0.1245458573102951,0.0,0.0,0.591494083404541,0.2287259101867675
-0.0906579047441482,0.6106088161468506,-0.047217097133398,-0.7177923917770386,-0.1371291279792785,0.1245404034852981,0.0,0.0,0.1433438062667846,0.5699965953826904
-0.0910830497741699,0.5943667888641357,-0.0479528978466987,-0.7213796377182007,-0.1317094564437866,0.1083934679627418,0.0,0.0,-0.2262747287750244,-0.1457889080047607
-0.0915010422468185,0.5777003169059753,-0.0477582775056362,-0.7402181029319763,-0.1257817447185516,0.118554376065731,0.0,0.0,0.280577540397644,0.5000662803649902
-0.0919016823172569,0.5612818598747253,-0.045334905385971,-0.7292748093605042,-0.1205361485481262,0.104911483824253,0.0,0.0,0.5468039512634277,0.1056431531906127
-0.0922705680131912,0.5453932285308838,-0.0424418598413467,-0.7057215571403503,-0.1150129288434982,0.1104646548628807,0.0,0.0,0.7532640695571899,0.217319369316101
-0.0925607681274414,0.5301883220672607,-0.0350462049245834,-0.6753236651420593,-0.1090303659439086,0.119651161134243,0.0,0.0,0.0017253160476684,0.7758513689041138
-0.0926845520734787,0.5150651931762695,-0.0173853375017642,-0.6717852354049683,-0.1040542796254158,0.0995217189192771,0.0,0.0,0.5036146640777588,0.5262894630432129
-0.0927063971757888,0.4999670684337616,-0.0067287385463714,-0.6707156896591187,-0.0995480492711067,0.0901242494583129,0.0,0.0,0.3438148498535156,0.6063776016235352
-0.0925607681274414,0.4849095642566681,0.0105432067066431,-0.6689624786376953,-0.0955643579363823,0.079674057662487,0.0,0.0,0.629664421081543,-0.5167504549026489
-0.0922430008649826,0.4702523350715637,0.0257702860981225,-0.6510600447654724,-0.0896038711071014,0.1192096322774887,0.0,0.0,0.3390624523162842,0.2249526977539062
-0.0917795151472091,0.4556335210800171,0.0392683446407318,-0.6493180990219116,-0.0825920179486274,0.1402372568845749,0.0,0.0,0.0321345329284668,0.4658066034317016
-0.0912766456604003,0.4412929117679596,0.042686503380537,-0.6369592547416687,-0.0750663802027702,0.1505127847194671,0.0,0.0,-0.2838378548622131,0.8989250659942627
-0.0906948074698448,0.426526814699173,0.0519325025379657,-0.6559692025184631,-0.0688899308443069,0.1235289946198463,0.0,0.0,0.6035792827606201,0.1285459995269775
-0.0899442657828331,0.4122934341430664,0.0677128583192825,-0.6322777271270752,-0.061622180044651,0.1453547924757003,0.0,0.0,-0.0412444472312927,0.5132272243499756
-0.089143082499504,0.3976264894008636,0.0734319761395454,-0.6516047120094299,-0.0550155900418758,0.1321318447589874,0.0,0.0,0.556373119354248,0.2143813371658325
-0.0883617401123046,0.3832583427429199,0.071140319108963,-0.6383415460586548,-0.0481047257781028,0.138217344880104,0.0,0.0,0.7571002244949341,0.5978400707244873
-0.087389275431633,0.369838148355484,0.0906703174114227,-0.5962575078010559,-0.0415996685624122,0.1301009953022003,0.0,0.0,0.5361665487289429,0.8077117204666138
-0.0863521546125412,0.3567845225334167,0.0982506722211837,-0.580021321773529,-0.0362063311040401,0.1078666895627975,0.0,0.0,-0.2398664951324463,0.3697700500488281
-0.0853124633431434,0.3433071076869964,0.0979732722043991,-0.5988637208938599,-0.0302799250930547,0.118528127670288,0.0,0.0,0.6415975093841553,0.4804924726486206
-0.0841628089547157,0.330441802740097,0.1080216318368911,-0.5716680884361267,-0.0234208907932043,0.137180745601654,0.0,0.0,0.4817889928817749,0.6767077445983887
-0.0829941779375076,0.3181668519973755,0.1108466163277626,-0.5454704761505127,-0.0174779389053583,0.1188589707016944,0.0,0.0,0.0001056194305419,0.7661044597625732
-0.0818130522966384,0.3061535060405731,0.1131180748343467,-0.5338769555091858,-0.0125496536493301,0.0985656753182411,0.0,0.0,-0.1030954718589782,0.7261731624603271
-0.0805747061967849,0.2937129139900207,0.1197018399834632,-0.5528853535652161,-0.0084762014448642,0.0814692378044128,0.0,0.0,0.4048382043838501,0.6271190643310547
-0.079389289021492,0.2816169261932373,0.1153692007064819,-0.5375840663909912,-0.0053386446088552,0.0627508014440536,0.0,0.0,0.3447717428207397,0.171566367149353
-0.0783220306038856,0.2697376012802124,0.1035848408937454,-0.5279642343521118,-0.0022408221848309,0.0619565919041633,0.0,0.0,0.6080048084259033,0.4707452058792114
-0.0771482437849044,0.2584832906723022,0.1132282167673111,-0.5001932978630066,0.0018588223028928,0.0819928497076034,0.0,0.0,0.0657553672790527,0.6642520427703857
-0.0758754760026931,0.2471566349267959,0.1238822340965271,-0.5034127831459045,0.0052089211530983,0.0670019015669822,0.0,0.0,-0.1157963871955871,0.2556540966033935
-0.0746008902788162,0.2354063391685485,0.1235404387116432,-0.522255539894104,0.0090795932337641,0.07741329818964,0.0,0.0,0.5265140533447266,-0.0879685282707214
-0.0733520537614822,0.2243075668811798,0.1205387264490127,-0.4933116734027862,0.0133705167099833,0.0858184248208999,0.0,0.0,0.603071928024292,-0.2647494077682495
-0.0719738975167274,0.2140316367149353,0.1322953999042511,-0.4567675292491913,0.0188170615583658,0.1089307218790054,0.0,0.0,-0.4699498414993286,-0.3013856410980224
-0.0705938339233398,0.2033323347568512,0.1319706588983535,-0.4756123721599579,0.0247757863253355,0.1191744208335876,0.0,0.0,0.3475089073181152,-0.090576171875
-0.06923408806324,0.1932081133127212,0.129448190331459,-0.4500854909420013,0.0312162414193153,0.1288090646266937,0.0,0.0,-0.2731648683547973,-0.0623495578765869
-0.067872330546379,0.1826608031988144,0.1291460394859314,-0.4689317941665649,0.0381620340049266,0.138915866613388,0.0,0.0,0.7491188049316406,0.4034690856933594
-0.0664416328072547,0.1724229902029037,0.1351330876350402,-0.45523601770401,0.0460039265453815,0.1568377315998077,0.0,0.0,0.7325210571289062,0.3840482234954834
-0.0651665702462196,0.1627250462770462,0.1196702867746353,-0.4312790036201477,0.0537499971687793,0.1549213975667953,0.0,0.0,0.0678805112838745,-0.2345976829528808
-0.0639897361397743,0.1530960649251938,0.1097357645630836,-0.4282614588737488,0.0616054013371467,0.1571083664894104,0.0,0.0,0.4230523109436035,0.1847614049911499
-0.0628587752580642,0.143769696354866,0.1047534570097923,-0.4148739576339721,0.0698634982109069,0.1651618182659149,0.0,0.0,0.3223854303359985,-0.3381147980690002
-0.0617340095341205,0.13466177880764,0.1035445109009742,-0.405236154794693,0.0787012800574302,0.1767554581165313,0.0,0.0,0.0906882286071777,0.4347162246704101
-0.0605390556156635,0.1254967004060745,0.1096911579370498,-0.4078793525695801,0.088416188955307,0.1942980587482452,0.0,0.0,0.4837414026260376,0.9220625162124634
-0.0592236518859863,0.1168539151549339,0.1230029463768005,-0.3846541047096252,0.0968726873397827,0.1691301316022873,0.0,0.0,0.4762477874755859,0.9565026760101318
-0.0578744895756244,0.1088883951306343,0.127825990319252,-0.3544978201389313,0.1039104610681533,0.1407555788755417,0.0,0.0,-0.1935498714447021,-0.1389012336730957
-0.0565216057002544,0.1005003750324249,0.1277371942996978,-0.3733475506305694,0.1114092692732811,0.1499759703874588,0.0,0.0,0.7674236297607422,0.5295240879058838
