x_pos,y_pos,x_vel,y_vel,angle,ang_vel,leg_1,leg_2,main_booster,lat_booster
-0.0015361786354333,1.4029943943023682,-0.1555761694908142,-0.3522556722164154,0.0017500666435807,0.034520749002695,0.0,0.0,-0.4395819902420044,0.2469673156738281
-0.0030840872786939,1.394461750984192,-0.1564917266368866,-0.3792331516742706,0.0034260598476976,0.0335241109132766,0.0,0.0,0.0825945138931274,0.9451860189437866
-0.0044651986099779,1.3856894969940186,-0.1378919184207916,-0.3898736238479614,0.0032103199046105,-0.0043151178397238,0.0,0.0,0.3502495288848877,0.6053047180175781
-0.0059161186218261,1.3768974542617798,-0.143396645784378,-0.3907603919506073,0.0015390899498015,-0.0334277227520942,0.0,0.0,-0.2452352046966552,0.8204445838928223
-0.0072966576553881,1.3674780130386353,-0.1343557834625244,-0.4186449348926544,-0.0021287391427904,-0.073363184928894,0.0,0.0,0.1220564842224121,0.1393541097640991
-0.0085901264101266,1.357981562614441,-0.126067578792572,-0.4220707714557647,-0.0053764898329973,-0.0649608820676803,0.0,0.0,0.5019823312759399,0.6570652723312378
-0.0098572727292776,1.3486424684524536,-0.1220404133200645,-0.4150972962379455,-0.0100003611296415,-0.0924859568476677,0.0,0.0,-0.2060822248458862,0.328692078590393
-0.0111289024353027,1.3386733531951904,-0.1224644556641578,-0.4431083500385284,-0.0146477194502949,-0.0929554998874664,0.0,0.0,0.1382880210876464,0.6933321952819824
-0.0123500823974609,1.328945875167847,-0.1159972995519638,-0.4324022531509399,-0.0207039788365364,-0.1211363300681114,0.0,0.0,-0.3180841207504272,-0.0274266004562377
-0.0135733606293797,1.3185888528823853,-0.1161801218986511,-0.4604170024394989,-0.0267822388559579,-0.1215761452913284,0.0,0.0,-0.2403098940849304,0.4733757972717285
-0.0147974016144871,1.307602047920227,-0.1162447780370712,-0.4884223341941833,-0.0328827500343322,-0.1220213323831558,0.0,0.0,-0.2762706279754638,0.1832211017608642
-0.0160212516784667,1.2959856986999512,-0.116191878914833,-0.5164298415184021,-0.039004523307085,-0.1224466934800148,0.0,0.0,0.1870481967926025,-0.1272928714752197
-0.0171303749084472,1.2844877243041992,-0.1051534190773963,-0.5111904144287109,-0.0447044149041175,-0.1140085235238075,0.0,0.0,0.2584586143493652,-0.4024096131324768
-0.018172264099121,1.272761583328247,-0.0986573919653892,-0.5213372111320496,-0.0501764938235282,-0.1094512939453125,0.0,0.0,-0.3360663056373596,-0.5394684672355652
-0.0192426685243845,1.260413646697998,-0.1023296862840652,-0.548961341381073,-0.0548467934131622,-0.0934144705533981,0.0,0.0,0.7813010215759277,-0.6175141334533691
-0.0202128402888774,1.247902274131775,-0.0938495844602584,-0.5561831593513489,-0.0579786375164985,-0.062642678618431,0.0,0.0,-0.2303316593170166,-0.8485041260719299
-0.0212283134460449,1.234775185585022,-0.0996787995100021,-0.583504319190979,-0.0598277114331722,-0.0369842313230037,0.0,0.0,-0.3616479635238647,-0.553433895111084
-0.0222703926265239,1.2210160493850708,-0.1031719073653221,-0.6115505695343018,-0.0608563534915447,-0.0205747000873088,0.0,0.0,0.4181236028671264,-0.7990742921829224
-0.0232319831848144,1.2076634168624878,-0.096846729516983,-0.5934240221977234,-0.0601789429783821,0.0135495038703084,0.0,0.0,-0.7184882164001465,-0.2165621519088745
-0.0241847988218069,1.1936804056167605,-0.0959519669413566,-0.6214379072189331,-0.059519674628973,0.0131864650174975,0.0,0.0,-0.4331647753715515,-0.6648454070091248
-0.0251689907163381,1.1790759563446045,-0.1001292094588279,-0.6490181684494019,-0.0578339286148548,0.0337180644273757,0.0,0.0,-0.1691237688064575,-0.0628595352172851
-0.0261425971984863,1.1638413667678833,-0.0990527421236038,-0.6770237684249878,-0.0561651960015296,0.033378105610609,0.0,0.0,0.2591246366500854,-0.3947869539260864
-0.0269826892763376,1.1485899686813354,-0.086146056652069,-0.6777627468109131,-0.0540522746741771,0.0422622486948967,0.0,0.0,-0.1516250371932983,0.4310023784637451
-0.0278105735778808,1.1327083110809326,-0.0849027335643768,-0.705773115158081,-0.0519554242491722,0.0419409647583961,0.0,0.0,-0.6284186244010925,-0.350675106048584
-0.0286252982914447,1.1161967515945437,-0.0835800468921661,-0.733778178691864,-0.04987358674407,0.0416406951844692,0.0,0.0,-0.252543568611145,-0.4092057943344116
-0.0294268615543842,1.0990335941314695,-0.0822538584470748,-0.7627367377281189,-0.0478063039481639,0.0413456931710243,0.0,0.0,0.2458417415618896,-0.6871177554130554
-0.0302387233823537,1.0820691585540771,-0.0846444219350814,-0.7538645267486572,-0.0443804748356342,0.0685161873698234,0.0,0.0,-0.4389767646789551,0.025456428527832
-0.0310352332890033,1.0644750595092771,-0.0831037610769271,-0.7818691730499268,-0.0409681312739849,0.0682470723986625,0.0,0.0,0.2013214826583862,0.1149954795837402
-0.0318875312805175,1.0471007823944092,-0.0882278531789779,-0.77210932970047,-0.0380077175796031,0.0592085905373096,0.0,0.0,0.4599347114562988,-0.3338890671730041
-0.0327254310250282,1.0297435522079468,-0.0866934061050415,-0.7713658213615417,-0.0351456739008426,0.0572409257292747,0.0,0.0,0.496778130531311,0.4461926221847534
-0.0335023887455463,1.012905240058899,-0.0806612744927406,-0.7483047842979431,-0.0322173051536083,0.0585674755275249,0.0,0.0,0.3731731176376343,0.0561530590057373
-0.0343146324157714,0.9959860444068908,-0.0838740020990371,-0.7519066333770752,-0.0295996610075235,0.0523526445031166,0.0,0.0,-0.0501734614372253,0.1167364120483398
-0.0351087562739849,0.9784369468688964,-0.0820515900850296,-0.7799107432365417,-0.0269932094961404,0.0521289519965648,0.0,0.0,0.4731398820877075,0.5956929922103882
-0.0358903892338275,0.9607352614402772,-0.0794519335031509,-0.7867209315299988,-0.0257204081863164,0.0254559572786092,0.0,0.0,0.8937485218048096,0.5242538452148438
-0.0365732200443744,0.9434802532196044,-0.0685651078820228,-0.7668840289115906,-0.0254425797611475,0.0055563622154295,0.0,0.0,0.2514761686325073,-0.3628392219543457
-0.0372082702815532,0.9264537692070008,-0.0638399645686149,-0.7567273378372192,-0.0251111593097448,0.0066284672357141,0.0,0.0,0.4032100439071655,0.2560741901397705
-0.0378360748291015,0.9093779921531676,-0.0630001202225685,-0.7589231729507446,-0.0248926319181919,0.0043704900890588,0.0,0.0,0.4393837451934814,0.1908724308013916
-0.0383940711617469,0.8926653265953064,-0.0561604425311088,-0.7427809834480286,-0.0245302207767963,0.0072480612434446,0.0,0.0,0.1700086593627929,0.2376307249069214
-0.0389447212219238,0.876218318939209,-0.0552904307842254,-0.7309722900390625,-0.0243060030043125,0.004484293051064,0.0,0.0,-0.0251017212867736,0.1617610454559326
-0.0394744873046875,0.8591412901878357,-0.0531998947262764,-0.7589758038520813,-0.0240908097475767,0.0043040332384407,0.0,0.0,0.0787497758865356,-0.1778568625450134
-0.0400405898690223,0.8421990275382996,-0.0564978197216987,-0.7529894113540649,-0.0242069661617279,-0.0023229974322021,0.0,0.0,0.268669843673706,-0.4121242761611938
-0.040480900555849,0.8252260088920593,-0.0443473905324935,-0.7543469667434692,-0.0238933656364679,0.0062721618451178,0.0,0.0,-0.0472806692123413,-0.5925425887107849
-0.0409390442073345,0.8076178431510925,-0.047121025621891,-0.7825630307197571,-0.0226005390286445,0.0258565004914999,0.0,0.0,0.3169294595718384,0.4064048528671264
-0.0412865653634071,0.7900088429450989,-0.0364339090883731,-0.782596230506897,-0.0209500733762979,0.0330093726515769,0.0,0.0,0.3984106779098511,0.2799873352050781
-0.0416413322091102,0.7721447348594666,-0.0369766727089881,-0.793940007686615,-0.0194671470671892,0.0296587944030761,0.0,0.0,0.2069023847579956,0.2604964971542358
-0.0419355407357215,0.7540157437324524,-0.0310710314661264,-0.8057148456573486,-0.0178373139351606,0.0325965732336044,0.0,0.0,0.3504294157028198,0.5326113700866699
-0.0421045310795307,0.7357988953590393,-0.0175976119935512,-0.8096257448196411,-0.0171519238501787,0.0137079851701855,0.0,0.0,-0.4681395292282104,0.61441969871521
-0.0422114357352256,0.7169576287269592,-0.0103640342131257,-0.8373928070068359,-0.0174684002995491,-0.0063295317813754,0.0,0.0,0.3389348983764648,-0.5719478130340576
-0.042446993291378,0.6984535455703735,-0.0241378154605627,-0.8223962187767029,-0.0169024839997291,0.0113182887434959,0.0,0.0,0.5410642623901367,0.1485028266906738
-0.0426715835928916,0.680031418800354,-0.0229244828224182,-0.8187538385391235,-0.016436468809843,0.0093202386051416,0.0,0.0,0.4321143627166748,0.1674702167510986
-0.0427406318485736,0.6617185473442078,-0.007956949993968,-0.8138916492462158,-0.0154040344059467,0.0206490643322467,0.0,0.0,0.4766436815261841,0.2914607524871826
-0.04282808303833,0.6437644958496094,-0.0095327291637659,-0.7979537844657898,-0.0146185420453548,0.015709638595581,0.0,0.0,-0.0349835157394409,0.4171872138977051
-0.0428922660648822,0.6251803040504456,-0.0072116591036319,-0.8259574174880981,-0.0138421701267361,0.0155274122953414,0.0,0.0,0.2975283861160278,-0.0074542164802551
-0.0429222099483013,0.6069056391716003,-0.0037746771704405,-0.8122020959854126,-0.013063533231616,0.0155727295204997,0.0,0.0,0.8070292472839355,0.2239260673522949
-0.0427588447928428,0.5887975096702576,0.0147909168154001,-0.8047917485237122,-0.0115406606346368,0.0304574966430664,0.0,0.0,0.4270360469818115,-0.1802867650985717
-0.042650032788515,0.5706712603569031,0.0097357165068387,-0.8056034445762634,-0.0104095311835408,0.0226225201040506,0.0,0.0,0.3871750831604004,0.3743047714233398
-0.042431928217411,0.5529173612594604,0.0203019957989454,-0.7890502214431763,-0.0089235715568065,0.0297195464372634,0.0,0.0,0.5611950159072876,0.0744228363037109
-0.0420543663203716,0.5354876518249512,0.0356489494442939,-0.7746418118476868,-0.0068450276739895,0.0415711253881454,0.0,0.0,0.1653584241867065,-0.0253269076347351
-0.0415967926383018,0.5182985663414001,0.0434202775359153,-0.7639527916908264,-0.0045337425544857,0.0462255105376243,0.0,0.0,0.6973761320114136,-0.0817592740058898
-0.0411903373897075,0.5016908049583435,0.0386801324784755,-0.7381142973899841,-0.002595983678475,0.0387554243206977,0.0,0.0,0.0865364074707031,0.0929590463638305
-0.0407262817025184,0.4848183095455169,0.0443020202219486,-0.7498878240585327,-0.0005144367460161,0.0416307188570499,0.0,0.0,0.7101480960845947,0.033750295639038
-0.0403422340750694,0.4684049785137176,0.0367959961295127,-0.7294844388961792,0.0010744491592049,0.0317776128649711,0.0,0.0,0.6843500137329102,-0.4205807447433471
-0.039809513837099,0.4521526396274566,0.0510881468653678,-0.7223289012908936,0.0032328243833035,0.0431675985455513,0.0,0.0,0.762514591217041,-0.1620436310768127
-0.0392303466796875,0.4362512826919555,0.0556168667972087,-0.7067345976829529,0.0054939561523497,0.0452226959168911,0.0,0.0,0.6383249759674072,-0.1422442197799682
-0.0386224761605262,0.4203161895275116,0.0584763512015342,-0.7082360982894897,0.0077768792398273,0.0456583835184574,0.0,0.0,0.855354905128479,-0.3835094571113586
-0.0381355285644531,0.4047449827194214,0.0470440573990345,-0.6920620203018188,0.0094019882380962,0.0325023718178272,0.0,0.0,0.9446730613708496,-0.387699544429779
-0.0376097671687603,0.3900550603866577,0.0508341081440448,-0.6528976559638977,0.0111286733299493,0.0345336161553859,0.0,0.0,0.4080692529678345,0.2701655626296997
-0.0369936935603618,0.3751100897789001,0.0595431812107563,-0.6642367243766785,0.0131630469113588,0.0406874045729637,0.0,0.0,0.6999368667602539,0.5511963367462158
-0.036292839795351,0.3608604073524475,0.0690630227327346,-0.6333298087120056,0.0141637874767184,0.0200149361044168,0.0,0.0,0.8320443630218506,-0.2808035612106323
-0.0356810577213764,0.3467656373977661,0.0606755204498767,-0.6264373064041138,0.0146645456552505,0.0100152436643838,0.0,0.0,0.9304602146148682,-0.1765345335006714
-0.0351654067635536,0.3332251310348511,0.0515813753008842,-0.6018003821372986,0.0146510070189833,-0.0002706755767576,0.0,0.0,0.8378304243087769,0.4764695167541504
-0.0346030220389366,0.3200936913490295,0.0561084039509296,-0.583623468875885,0.014777104370296,0.002521836431697,0.0,0.0,0.6646366119384766,0.2880470752716064
-0.0341606140136718,0.3076054751873016,0.0447486750781536,-0.5550267696380615,0.0142834419384598,-0.0098735028877854,0.0,0.0,0.8444454669952393,0.3057912588119507
-0.0336229316890239,0.2954559326171875,0.0538990497589111,-0.5399806499481201,0.0141491228714585,-0.0026862083468586,0.0,0.0,0.0796570777893066,0.0760746002197265
-0.033088780939579,0.2830591201782226,0.0536745302379131,-0.5509673357009888,0.0138920806348323,-0.0051408284343779,0.0,0.0,0.8412823677062988,-0.0813271403312683
-0.0324619300663471,0.2705771028995514,0.0626154989004135,-0.5547541975975037,0.0139640877023339,0.0014400798827409,0.0,0.0,0.6127767562866211,-0.2753669023513794
-0.0318487174808979,0.2579614222049713,0.0614169724285602,-0.5606974959373474,0.0138710821047425,-0.0018599178874865,0.0,0.0,0.832077145576477,-0.5182875990867615
-0.0312768928706646,0.2460385411977768,0.0562786646187305,-0.5299158692359924,0.0147568238899111,0.0177146811038255,0.0,0.0,0.8666796684265137,-0.1315875053405761
-0.0306068416684865,0.234869971871376,0.0657054111361503,-0.4963940680027008,0.0160370990633964,0.0256053712218999,0.0,0.0,0.5907437801361084,-0.5745161771774292
-0.0300902370363473,0.2242534905672073,0.0495204664766788,-0.471866101026535,0.0181480348110198,0.0422191359102726,0.0,0.0,0.0266152620315551,0.3784767389297485
-0.0296367648988962,0.2133135199546814,0.0436081066727638,-0.4862435460090637,0.0198618210852146,0.0342758260667324,0.0,0.0,0.4834423065185547,0.6635817289352417
-0.029084587469697,0.2028166353702545,0.0547734424471855,-0.4665355980396271,0.0203086342662572,0.0089358855038881,0.0,0.0,0.6617112159729004,-0.6636626124382019
-0.0286868102848529,0.1925527155399322,0.0382660217583179,-0.4561955630779266,0.02179916203022,0.0298105478286743,0.0,0.0,0.3396905660629272,0.384824275970459
-0.0283252708613872,0.1824815571308136,0.0348831340670585,-0.4476273655891418,0.0230566281825304,0.0251493789255619,0.0,0.0,0.6773393154144287,-0.1610991954803466
-0.0279722213745117,0.1728444844484329,0.0341138988733291,-0.4283320605754852,0.024229796603322,0.0234633553773164,0.0,0.0,0.6497135162353516,-0.5524803400039673
-0.0275639537721872,0.1634504646062851,0.0383090376853942,-0.4175542891025543,0.0267165564000606,0.0497353039681911,0.0,0.0,0.757972240447998,0.2322753667831421
-0.0271208770573139,0.1539736837148666,0.0417049750685691,-0.4212419390678406,0.029290510341525,0.0514790639281272,0.0,0.0,0.8494608402252197,0.3759857416152954
-0.0265681259334087,0.1445471793413162,0.0522141456604003,-0.4190164506435394,0.0323147140443325,0.0604839622974395,0.0,0.0,0.6455819606781006,-0.8824471831321716
-0.0259212497621774,0.1353479176759719,0.0596233904361724,-0.4089739918708801,0.0373123958706855,0.0999538749456405,0.0,0.0,0.7714183330535889,-0.5197843909263611
-0.025153923779726,0.1261555254459381,0.0701986700296402,-0.4087294042110443,0.0437652803957462,0.1290575861930847,0.0,0.0,0.7964432239532471,0.0139057636260986
-0.0244105346500873,0.1175572946667671,0.0678745731711387,-0.3823464512825012,0.0501576475799083,0.1278476417064666,0.0,0.0,0.7063254117965698,-0.5222921371459961
-0.0236960407346487,0.1095066666603088,0.0638632327318191,-0.3580767512321472,0.0576504357159137,0.1498558819293975,0.0,0.0,0.3627946376800537,-0.3151397705078125
-0.0228935237973928,0.1016596630215644,0.0722312480211258,-0.3490866124629974,0.0655853524804115,0.1586984694004058,0.0,0.0,0.4082242250442505,0.2389001846313476
-0.022006606683135,0.0936083197593689,0.0803077593445777,-0.358227401971817,0.0738843604922294,0.1659801751375198,0.0,0.0,0.6809861660003662,-0.2906010150909424
-0.0211946479976177,0.0856969431042671,0.0730864629149437,-0.3520392775535583,0.0819019749760627,0.1603524982929229,0.0,0.0,0.7957966327667236,0.4571542739868164
-0.0203517917543649,0.0785695612430572,0.0757995769381523,-0.3172586262226105,0.0903106704354286,0.1681738793849945,0.0,0.0,0.1850203275680542,-0.6665418744087219
-0.0196013450622558,0.0714131444692611,0.0652876570820808,-0.3186833262443542,0.0999868512153625,0.1935232728719711,0.0,0.0,0.7036237716674805,0.7169919013977051
-0.0190009120851755,0.0648459494113922,0.0520690269768238,-0.2924289405345917,0.1078975573182106,0.1582143902778625,0.0,0.0,0.6947436332702637,0.6641552448272705
-0.0183146484196186,0.0587443932890892,0.0618189089000225,-0.2716906666755676,0.1146680936217308,0.1354106664657592,0.0,0.0,0.287495493888855,0.4532639980316162
-0.0177223198115825,0.0528772920370101,0.0526503324508667,-0.2612780928611755,0.1212096661329269,0.1308315992355346,0.0,0.0,0.6910223960876465,0.8082046508789062
-0.0172386169433593,0.0475221015512943,0.0436243191361427,-0.2384013384580612,0.1259290128946304,0.094386801123619,0.0,0.0,0.5397297143936157,0.0004180669784545
-0.0168228149414062,0.0422232709825038,0.0369819998741149,-0.2358966618776321,0.1305046677589416,0.0915130078792572,0.0,0.0,0.8887209892272949,0.9549953937530518
-0.0165554992854595,0.0373038873076438,0.024336390197277,-0.2188534140586853,0.1328881978988647,0.0476705394685268,0.0,0.0,0.7943136692047119,0.9229795932769777
-0.0164586063474416,0.0325763337314128,0.0094764921814203,-0.2101296037435531,0.1330966502428054,0.004169400781393,0.0,0.0,0.848633885383606,0.814812421798706
-0.0162643436342477,0.0284576751291751,0.0206272564828395,-0.1829473376274109,0.1318998485803604,-0.0239359140396118,0.0,0.0,0.5595712661743164,0.8298380374908447
-0.0159747116267681,0.0242453198879957,0.0317678228020668,-0.1869712322950363,0.1291106194257736,-0.0557844750583171,0.0,0.0,0.7591185569763184,0.4801326990127563
-0.0156254768371582,0.0206410028040409,0.0370443873107433,-0.1600069552659988,0.1269986182451248,-0.0422400943934917,0.0,0.0,0.3678653240203857,0.4516024589538574
-0.015365982428193,0.017359122633934,0.028202349320054,-0.1456743776798248,0.1247617453336715,-0.0447376035153865,0.0,0.0,0.2913315296173095,0.6237947940826416
-0.0150090213865041,0.0144805768504738,0.039018876850605,-0.1276607513427734,0.1214595884084701,-0.0660432800650596,0.0,0.0,-0.1211605072021484,0.4647524356842041
-0.0147300716489553,0.0117241237312555,0.049787513911724,-0.1208689138293266,0.0997188091278076,-0.4348095059394836,0.0,1.0,0.7264535427093506,0.0176588296890258
-0.0145462034270167,0.0096193049103021,0.0404821559786796,-0.0922214165329933,0.0778183192014694,-0.4380099773406982,0.0,1.0,0.3468539714813232,-0.0462444424629211
-0.0143632888793945,0.0078565934672951,0.0401979610323905,-0.0773470550775528,0.056147675961256,-0.4334129691123962,0.0,0.0,-0.4339889287948608,-0.6895477771759033
-0.0142186162993311,0.0054623819887638,0.035227820277214,-0.1057639643549919,0.0356299020349979,-0.4103558957576751,0.0,0.0,0.3709287643432617,-0.3975815773010254
-0.0141852376982569,0.003207430941984,0.0246204808354377,-0.0998494699597358,0.0146062299609184,-0.4204732775688171,0.0,0.0,0.4712855815887451,-0.4604266285896301
-0.0142650604248046,0.0010134911863133,0.0138935940340161,-0.0974382981657981,-0.0069824336096644,-0.4317734241485595,0.0,0.0,0.5520159006118774,-0.7745996117591858
-0.014417266473174,-0.0010099672945216,0.0051561165601015,-0.090151160955429,-0.0271052680909633,-0.4024567604064941,1.0,0.0,0.4579935073852539,-0.0506132245063781
-0.0144865037873387,-0.0025239849928766,0.0026396415196359,-0.0677486583590507,-0.035464771091938,-0.1658166944980621,1.0,0.0,0.2945766448974609,-0.1921592950820922
-0.0143353464081883,-0.003720429027453,0.0075641414150595,-0.0530254282057285,-0.0279688220471143,0.1499689817428589,1.0,0.0,0.2192251682281494,0.2535020112991333
-0.0140221593901515,-0.004383435472846,0.011524929665029,-0.0292202644050121,-0.0084035387262701,0.3913367092609405,1.0,1.0,0.5145548582077026,0.9579801559448242
-0.0136804580688476,-0.0040616057813167,0.0206896997988224,0.0141901616007089,0.0043400237336754,0.2541628777980804,1.0,1.0,-0.1096560955047607,0.974501132965088
-0.0133951185271143,-0.0038247490301728,0.0261844843626022,0.0105114988982677,0.0066555789671838,0.0463039577007293,1.0,1.0,-0.3266253471374511,0.2141962051391601
