x_pos,y_pos,x_vel,y_vel,angle,ang_vel,leg_1,leg_2,main_booster,lat_booster
-0.0015652657020837,1.4030649662017822,-0.1582423746585846,-0.349122554063797,0.0015388503670692,0.0303387437015771,0.0,0.0,-0.3239152172031256,-0.3060366510644261
-0.0031724930740892,1.3946731090545654,-0.1619929373264312,-0.3729668855667114,0.0027840903494507,0.0249078888446092,0.0,0.0,-0.5007234722681189,0.3369305609118999
-0.00482177734375,1.3857213258743286,-0.1659420430660247,-0.3978622257709503,0.0037809601053595,0.0199395976960659,0.0,0.0,-0.7498809465033016,0.9414253446862056
-0.0064538000151515,1.3762071132659912,-0.1624471545219421,-0.4228558242321014,0.003041876014322,-0.0147831831127405,0.0,0.0,-0.6774450697620404,0.2657643678184067
-0.0081277843564748,1.3661333322525024,-0.1664129793643951,-0.4477277100086212,0.0020692599937319,-0.0194542817771434,0.0,0.0,-0.5259562557861732,0.044046106806762
-0.0098438262939453,1.3554998636245728,-0.1703882217407226,-0.4725996851921081,0.0008690699469298,-0.0240061245858669,0.0,0.0,0.6028616249894418,-0.2955108353958502
-0.0116243362426757,1.3451471328735352,-0.1765048205852508,-0.4601223766803741,-0.00065584218828,-0.0305012464523315,0.0,0.0,0.4372525359793171,0.1345120528336055
-0.0133164403960108,1.3350787162780762,-0.1680831611156463,-0.4474855661392212,-0.0017740514595061,-0.0223666373640298,0.0,0.0,-0.0637330485237022,0.8777514636746587
-0.0149828912690281,1.3244600296020508,-0.1635822057723999,-0.4719476401805877,-0.0048018647357821,-0.0605618059635162,0.0,0.0,0.4567220545162269,-0.624061902028633
-0.0167381279170513,1.3142468929290771,-0.1735116094350814,-0.453926682472229,-0.0067916396073997,-0.0397989898920059,0.0,0.0,0.4134473054850593,0.1275755435168013
-0.0184581764042377,1.3042361736297607,-0.1701496541500091,-0.4449338316917419,-0.0086225271224975,-0.0366213545203208,0.0,0.0,0.7634295535748363,0.7951716143550663
-0.0200696941465139,1.2945079803466797,-0.1577023118734359,-0.4323860704898834,-0.0120391743257641,-0.0683393105864524,0.0,0.0,0.4130643427416123,0.1830329703163794
-0.0216043479740619,1.2851157188415527,-0.1503779739141464,-0.4174668192863464,-0.0151025047525763,-0.0612717866897583,0.0,0.0,0.0887203626953849,0.923074307598155
-0.0230507850646972,1.275503396987915,-0.1395349949598312,-0.4272716641426086,-0.0201583355665206,-0.1011258214712143,0.0,0.0,0.7530411689072285,-0.0911144719430265
-0.0243716239929199,1.266639232635498,-0.1275238543748855,-0.394032746553421,-0.024665605276823,-0.0901537388563156,0.0,0.0,0.597242366105672,-0.1988127152200538
-0.0256210323423147,1.25764262676239,-0.1207343190908432,-0.3999287486076355,-0.0288247521966695,-0.083190307021141,0.0,0.0,-0.2245534406427665,0.6341841213716758
-0.0268502235412597,1.248091459274292,-0.117019698023796,-0.4246212244033813,-0.0346710495650768,-0.1169364675879478,0.0,0.0,0.4312952740651794,0.1593016318639025
-0.0279863364994525,1.2384612560272217,-0.108150877058506,-0.4281400740146637,-0.0400706976652145,-0.1080024614930152,0.0,0.0,0.0279255053934233,-0.4959883893572168
-0.029083251953125,1.229016900062561,-0.1044028997421264,-0.4199031889438629,-0.0453128330409526,-0.104851983487606,0.0,0.0,0.945726726044426,0.5076988721972495
-0.03025140799582,1.2200160026550293,-0.1100744009017944,-0.4002602398395538,-0.051988948136568,-0.1335346102714538,0.0,0.0,0.9416126544569764,0.1719309448234849
-0.031264878809452,1.2117679119110107,-0.0952099412679672,-0.3668082356452942,-0.0580724477767944,-0.1216807588934898,0.0,0.0,0.4267860429359089,0.1055680899785455
-0.0322871208190918,1.2035319805145264,-0.096024677157402,-0.3662969470024109,-0.0642094612121582,-0.1227512583136558,0.0,0.0,0.6597949329360169,-0.6286383270863561
-0.0332238189876079,1.1955457925796509,-0.0889868959784507,-0.3551426827907562,-0.0688503682613372,-0.0928263366222381,0.0,0.0,-0.2162215637384059,0.7812651035230656
-0.0341328606009483,1.186984896659851,-0.0843840092420578,-0.3808041512966156,-0.0753132924437522,-0.1292699873447418,0.0,0.0,-0.0338765660014204,-0.634023588113493
-0.0351441390812397,1.177873611450195,-0.0961071252822876,-0.4052104651927948,-0.080289714038372,-0.0995374321937561,0.0,0.0,0.4296556942457497,-0.7179145341366053
-0.0363439545035362,1.169119954109192,-0.1160954609513282,-0.3892649412155151,-0.0841412395238876,-0.0770301595330238,0.0,0.0,-0.6424934635657022,0.2566339446775503
-0.0375842079520225,1.1598069667816162,-0.1200741156935691,-0.4141370058059692,-0.0880537182092666,-0.0782497525215148,0.0,0.0,0.2069871069922964,0.3719686389360978
-0.0389066711068153,1.1508480310440063,-0.1278035938739776,-0.3984363675117492,-0.0924615114927291,-0.0881558954715728,0.0,0.0,-0.8276665583044331,-0.7898535153099405
-0.0403444282710552,1.141347050666809,-0.1412239223718643,-0.4224327206611633,-0.0949983969330787,-0.0507377460598945,0.0,0.0,0.9780269585758912,-0.0350418149374612
-0.0417918190360069,1.1321617364883425,-0.1420172154903412,-0.408410906791687,-0.0976911261677742,-0.0538547337055206,0.0,0.0,0.5955209644057444,-0.1197904529110323
-0.0431810393929481,1.1236348152160645,-0.1362592130899429,-0.3791460990905761,-0.1003330051898956,-0.0528376586735248,0.0,0.0,-0.9227737188339232,0.8465116024017334
-0.0445520393550396,1.1145349740982056,-0.1329275667667389,-0.4047245979309082,-0.1044725477695465,-0.0827910453081131,0.0,0.0,-0.6093436479568481,0.9149329662322998
-0.0458994880318641,1.104874610900879,-0.1289743483066558,-0.4297617971897125,-0.1102030947804451,-0.1146109104156494,0.0,0.0,-0.7244407534599304,-0.0723156929016113
-0.0472858436405658,1.094655156135559,-0.1328610777854919,-0.4546350538730621,-0.11594720184803,-0.1148820668458938,0.0,0.0,-0.853701651096344,0.7294583320617676
-0.0486520752310752,1.0838679075241089,-0.1293279230594635,-0.4800149202346802,-0.1231933981180191,-0.1449236124753952,0.0,0.0,0.3077840805053711,0.1095280647277832
-0.0499687194824218,1.0734102725982666,-0.1244560331106185,-0.4653914868831634,-0.1303750127553939,-0.1436325907707214,0.0,0.0,-0.0127913951873779,0.9472806453704834
-0.0512530319392681,1.062375545501709,-0.1194036453962326,-0.4912596940994262,-0.1393652558326721,-0.1798048466444015,0.0,0.0,0.8508548736572266,-0.4480620622634887
-0.0524145141243934,1.0520397424697876,-0.107333704829216,-0.4602141380310058,-0.1481497883796692,-0.1756909638643264,0.0,0.0,-0.8423939347267151,0.2845336198806762
-0.0536135658621788,1.0411455631256104,-0.1111125499010086,-0.48509082198143,-0.1569210737943649,-0.1754261255264282,0.0,0.0,-0.6889591813087463,-0.7130600214004517
-0.0549026504158973,1.0297060012817385,-0.1215209513902664,-0.5092244744300842,-0.1643140614032745,-0.1478600054979324,0.0,0.0,0.7942901849746704,-0.7105331420898438
-0.0562693588435649,1.0190092325210571,-0.1304429173469543,-0.4761103987693786,-0.1705429404973983,-0.124577485024929,0.0,0.0,-0.1371144652366638,-0.3366096615791321
-0.0576725974678993,1.0077533721923828,-0.1341337263584137,-0.5009836554527283,-0.1767461448907852,-0.1240636482834816,0.0,0.0,-0.7963733077049255,-0.0697463750839233
-0.059111975133419,0.9959384202957152,-0.1377911269664764,-0.5258567929267883,-0.1829201281070709,-0.1234797239303588,0.0,0.0,0.1674952507019043,-0.9766884446144104
-0.0605139732360839,0.9841116666793824,-0.1360301673412323,-0.526157796382904,-0.1871023923158645,-0.083645261824131,0.0,0.0,-0.2609504461288452,0.2966082096099853
-0.0619512572884559,0.9717254042625428,-0.1396131366491317,-0.5510291457176208,-0.1912494748830795,-0.0829416140913963,0.0,0.0,-0.953089714050293,-0.562909722328186
-0.0634648352861404,0.958785593509674,-0.1482975780963897,-0.57549649477005,-0.1943189799785614,-0.0613900497555732,0.0,0.0,-0.9825375080108644,-0.3255374431610107
-0.0650128349661827,0.9452862739562988,-0.1517961621284485,-0.60036700963974,-0.1973487734794616,-0.0605956241488456,0.0,0.0,-0.8881473541259766,-0.6587426066398621
-0.066654585301876,0.931252419948578,-0.1627694070339203,-0.623914361000061,-0.1987619996070861,-0.0282648205757141,0.0,0.0,-0.3354402780532837,-0.5025544762611389
-0.0683767348527908,0.9166776537895204,-0.1720853745937347,-0.6477891802787781,-0.1988973021507263,-0.0027056594844907,0.0,0.0,-0.7810848951339722,-0.7534652352333069
-0.0701927170157432,0.9015591144561768,-0.1830582320690155,-0.6717333197593689,-0.1974234133958816,0.0294777210801839,0.0,0.0,-0.860550045967102,0.2256557941436767
-0.0720412284135818,0.8858811259269714,-0.1863539516925811,-0.6966031789779663,-0.1959051638841629,0.0303651336580514,0.0,0.0,-0.894127368927002,0.2731425762176513
-0.0739215835928917,0.8696432709693909,-0.189591184258461,-0.721472978591919,-0.1943423449993133,0.0312566012144088,0.0,0.0,-0.1760184168815612,0.0876011848449707
-0.075833223760128,0.8528459072113037,-0.1927666366100311,-0.7463428974151611,-0.1927351355552673,0.0321441367268562,0.0,0.0,-0.1501197814941406,-0.5765995383262634
-0.0778193473815918,0.8355070948600769,-0.2014000862836837,-0.7702533602714539,-0.1899290084838867,0.0561225712299346,0.0,0.0,-0.2698769569396972,-0.6621713042259216
-0.0798743218183517,0.8176175951957703,-0.2093332707881927,-0.7946098446846008,-0.1860815286636352,0.07694973051548,0.0,0.0,0.8739528656005859,-0.6896243691444397
-0.0820286720991134,0.8000009655952454,-0.2204017341136932,-0.7823466658592224,-0.1810927242040634,0.0997757762670517,0.0,0.0,0.6950831413269043,0.4311370849609375
-0.083969309926033,0.7830054759979248,-0.199522316455841,-0.7547004222869873,-0.1756181418895721,0.1094916686415672,0.0,0.0,0.5374770164489746,0.6133706569671631
-0.0856426209211349,0.7663307189941406,-0.1719151139259338,-0.7405630350112915,-0.171021968126297,0.0919234827160835,0.0,0.0,-0.6869153380393982,0.1859601736068725
-0.0873428359627723,0.7490968108177185,-0.174647107720375,-0.7654346823692322,-0.1663910746574401,0.0926181077957153,0.0,0.0,0.4556120634078979,0.7607375383377075
-0.0889680832624435,0.732337474822998,-0.165549635887146,-0.7445210218429565,-0.1633660495281219,0.0605005249381065,0.0,0.0,-0.4709844589233398,-0.0668942928314209
-0.09061861038208,0.7150186896324158,-0.1681046932935714,-0.7693918347358704,-0.1603127717971801,0.0610654354095459,0.0,0.0,0.2612665891647339,0.4552938938140869
-0.0922835320234298,0.6979515552520752,-0.1692195832729339,-0.7582454085350037,-0.1575892269611358,0.0544707961380481,0.0,0.0,-0.1948797106742859,0.0447664260864257
-0.0939719229936599,0.6803249716758728,-0.1715839356184005,-0.7831162214279175,-0.1548455506563186,0.0548732206225395,0.0,0.0,0.54216468334198,0.4777108430862427
-0.0955728515982627,0.6629815697669983,-0.1629503667354583,-0.7705160975456238,-0.1519846618175506,0.0572176277637481,0.0,0.0,0.8147530555725098,0.535873293876648
-0.0970780402421951,0.6457160115242004,-0.1523444950580597,-0.7671728134155273,-0.1501618027687072,0.0364570580422878,0.0,0.0,0.7757771015167236,-0.111916184425354
-0.0986401587724685,0.6288628578186035,-0.1574323624372482,-0.7489051222801208,-0.1489495038986206,0.0242456067353487,0.0,0.0,0.3760610818862915,0.7622511386871338
-0.1000357642769813,0.61249840259552,-0.1392702162265777,-0.7273356914520264,-0.1492297351360321,-0.0056045744568109,0.0,0.0,-0.1380966305732727,-0.3738995790481567
-0.1014496833086013,0.5955744385719299,-0.1411021798849105,-0.7522062063217163,-0.1495171189308166,-0.0057476451620459,0.0,0.0,0.938169240951538,0.0087478160858154
-0.1027003303170204,0.5795692205429077,-0.1249094828963279,-0.7113569378852844,-0.1496715545654297,-0.0030891569331288,0.0,0.0,0.4932864904403686,-0.4611261487007141
-0.1039875000715255,0.5636581778526306,-0.1281458586454391,-0.7072177529335022,-0.1502402275800705,-0.0113730588927865,0.0,0.0,0.6083133220672607,-0.66402667760849
-0.1053389534354209,0.5482015013694763,-0.1356707662343979,-0.6869093775749207,-0.1497181951999664,0.0104406895115971,0.0,0.0,0.8359761238098145,0.3531959056854248
-0.1065673828125,0.5332034826278687,-0.1234925389289856,-0.6665132641792297,-0.1490737199783325,0.01288952678442,0.0,0.0,0.52207350730896,0.0966178178787231
-0.1078104972839355,0.5188264846801758,-0.1243611797690391,-0.6389699578285217,-0.1490219086408615,0.0010361860040575,0.0,0.0,-0.3962652683258056,-0.512580394744873
-0.1091004386544227,0.503898024559021,-0.1298988312482834,-0.6633986234664917,-0.1481219977140426,0.0179981924593448,0.0,0.0,0.6839754581451416,0.2738962173461914
-0.110376164317131,0.489009141921997,-0.128249317407608,-0.6616634726524353,-0.1474416553974151,0.0136067997664213,0.0,0.0,0.7032194137573242,0.0156261920928955
-0.1115427017211914,0.4740424752235412,-0.1175872534513473,-0.6650906801223755,-0.1465065330266952,0.0187024120241403,0.0,0.0,0.8885935544967651,-0.0679137110710144
-0.1126964539289474,0.4591001272201538,-0.1160761713981628,-0.6640370488166809,-0.145817220211029,0.0137867536395788,0.0,0.0,0.8987042903900146,-0.0785847306251525
-0.1137345284223556,0.4449533224105835,-0.104360207915306,-0.6286935806274414,-0.1452604830265045,0.011134685948491,0.0,0.0,0.9095648527145386,0.2792279720306396
-0.1145503968000412,0.4316264390945434,-0.0824871882796287,-0.5922195911407471,-0.1443735957145691,0.0177377127110958,0.0,0.0,0.0728089809417724,0.4761369228363037
-0.1153670325875282,0.4185436964035034,-0.082104705274105,-0.5814113020896912,-0.1439314633607864,0.0088429860770702,0.0,0.0,-0.3584834337234497,-0.5915817618370056
-0.1162442192435264,0.4049078524112701,-0.0894879251718521,-0.6058692336082458,-0.1421733200550079,0.0351630486547946,0.0,0.0,0.697716236114502,-0.0072186589241027
-0.116967961192131,0.3919100761413574,-0.0742076486349105,-0.5775074362754822,-0.1403513997793197,0.0364382714033126,0.0,0.0,0.7797306776046753,-0.3623472452163696
-0.1177147850394249,0.3792966306209564,-0.0758618265390396,-0.5604857206344604,-0.1391728073358535,0.0235718600451946,0.0,0.0,0.5841104984283447,-0.5914179682731628
-0.1184743866324424,0.3671133816242218,-0.0780411213636398,-0.5412845015525818,-0.1370954811573028,0.0415463745594024,0.0,0.0,0.0131927728652954,0.9056403636932372
-0.1191122084856033,0.3549998104572296,-0.0638981014490127,-0.5383723974227905,-0.1369833946228027,0.0022416389547288,0.0,0.0,-0.2542020082473755,0.7353472709655762
-0.1196826919913292,0.3423134088516235,-0.0553066320717334,-0.5640000700950623,-0.1387239694595337,-0.0348116233944892,0.0,0.0,0.5465941429138184,-0.9391894936561584
-0.1202561408281326,0.3295448720455169,-0.0573234036564827,-0.5674922466278076,-0.1387446224689483,-0.0004130057932343,0.0,0.0,0.91473126411438,-0.7191334366798401
-0.1207035034894943,0.3168927729129791,-0.0462321564555168,-0.5621742010116577,-0.1372468918561935,0.0299547277390956,0.0,0.0,0.826137900352478,-0.7442505955696106
-0.1209431663155555,0.304595023393631,-0.0271550361067056,-0.5462769865989685,-0.1340761929750442,0.0634141787886619,0.0,0.0,0.8580405712127686,0.4983702898025512
-0.1209631934762001,0.2923661470413208,-0.0056993113830685,-0.5431782603263855,-0.1303942799568176,0.0736383348703384,0.0,0.0,0.7454804182052612,0.5649431943893433
-0.1208358779549598,0.2807552814483642,0.0104136914014816,-0.5158385634422302,-0.1280808299779892,0.0462685897946357,0.0,0.0,0.888070821762085,0.0178695917129516
-0.1205559745430946,0.2698680758476257,0.0257329493761062,-0.483680784702301,-0.1258395761251449,0.0448251590132713,0.0,0.0,0.6707231998443604,-0.4994066953659057
-0.1200591102242469,0.2594020366668701,0.0470987781882286,-0.4649428129196167,-0.1232622638344764,0.0515464730560779,0.0,0.0,0.3421144485473633,-0.3958747386932373
-0.1194400787353515,0.2487565875053405,0.0591815300285816,-0.4729119539260864,-0.1205631867051124,0.0539814829826355,0.0,0.0,0.7256402969360352,-0.5340431928634644
-0.118848517537117,0.2383607774972915,0.0558026917278766,-0.4617692530155182,-0.1172274500131607,0.0667143911123275,0.0,0.0,0.3745465278625488,-0.1624642014503479
-0.1180934906005859,0.2284629195928573,0.0720944255590438,-0.4396406412124634,-0.1138443127274513,0.0676629394292831,0.0,0.0,0.0812282562255859,-0.799069881439209
-0.1173665076494216,0.2185747176408767,0.0679921060800552,-0.4391225576400757,-0.1091644391417503,0.0935972481966018,0.0,0.0,0.1619794368743896,-0.1237443089485168
-0.1166547760367393,0.2089762091636657,0.0671675875782966,-0.4263140261173248,-0.1051882952451706,0.0795230269432067,0.0,0.0,0.3405816555023193,-0.6563055515289307
-0.1158460602164268,0.1996625810861587,0.0757244080305099,-0.413581907749176,-0.1000733971595764,0.1022981777787208,0.0,0.0,0.1044142246246337,-0.1968713998794555
-0.1150109320878982,0.1905440688133239,0.078841246664524,-0.4049614667892456,-0.0954427346587181,0.0926131755113601,0.0,0.0,0.2495110034942627,-0.3945456743240356
-0.1141718849539756,0.1817212402820587,0.0798608213663101,-0.3918750882148742,-0.0914298221468925,0.0802584215998649,0.0,0.0,-0.2874577045440674,-0.681708037853241
-0.1133760437369346,0.1723448783159256,0.0744406729936599,-0.416420966386795,-0.0863407179713249,0.1017820984125137,0.0,0.0,-0.0097183585166931,-0.6567196846008301
-0.1126289367675781,0.1624184995889663,0.0683540031313896,-0.4408194422721863,-0.0800364017486572,0.1260862648487091,0.0,0.0,0.8254706859588623,0.6976184844970703
-0.1119464859366417,0.1528118997812271,0.0640709847211837,-0.4267408549785614,-0.0758998915553093,0.0827298834919929,0.0,0.0,0.7755721807479858,0.5076735019683838
-0.111030675470829,0.1437860876321792,0.0884344205260276,-0.4009914398193359,-0.0727894678711891,0.0622086897492408,0.0,0.0,0.4061809778213501,-0.9230837225914
-0.1100915893912315,0.1346644908189773,0.0892355144023895,-0.405183732509613,-0.0681617259979248,0.0925548449158668,0.0,0.0,0.6768525838851929,-0.70223069190979
-0.10898008197546,0.1261375695466995,0.1050964221358299,-0.3787105977535248,-0.0621714740991592,0.1198049634695053,0.0,0.0,0.0983058214187622,-0.8116722702980042
-0.1079031005501747,0.1178386807441711,0.1004116386175155,-0.3685541749000549,-0.0549621395766735,0.1441867351531982,0.0,0.0,0.2819747924804687,-0.12673020362854
-0.1066639870405197,0.1099651455879211,0.1165031343698501,-0.349680632352829,-0.0476373471319675,0.1464958190917968,0.0,0.0,0.1288111209869384,-0.5515957474708557
-0.105376623570919,0.1021255105733871,0.1205154061317443,-0.3481898009777069,-0.0395170487463474,0.1624059677124023,0.0,0.0,0.454946756362915,0.3997831344604492
-0.1040515899658203,0.0948054417967796,0.1247207298874855,-0.3251535594463348,-0.0318372659385204,0.1535955220460891,0.0,0.0,-0.2115964889526367,0.8805142641067505
-0.1026341468095779,0.0869305431842804,0.136348009109497,-0.3498898446559906,-0.0265024360269308,0.106696531176567,0.0,0.0,0.7374536991119385,-0.5338837504386902
-0.1011399254202842,0.0792150795459747,0.1431194692850113,-0.3428108394145965,-0.0202805679291486,0.1244372501969337,0.0,0.0,0.494498610496521,-0.489154577255249
-0.0997289642691612,0.0717827156186103,0.1357438415288925,-0.3302627801895141,-0.0150011610239744,0.1055883765220642,0.0,0.0,0.9154422283172609,0.0614114999771118
-0.0984418839216232,0.0646896660327911,0.1245060786604881,-0.3152119815349579,-0.0108467107638716,0.0830889493227005,0.0,0.0,0.6131083965301514,-0.1203905344009399
-0.0971536636352539,0.0578631982207298,0.1251628249883651,-0.303378015756607,-0.0072317356243729,0.072299413383007,0.0,0.0,0.6699726581573486,0.5227407217025757
-0.0957758873701095,0.0512843467295169,0.1355432569980621,-0.2923846244812011,-0.0050273276865482,0.0440881215035915,0.0,0.0,0.7341861724853516,0.3778901100158691
-0.0942429527640342,0.0447111465036869,0.1508816629648208,-0.2921360731124878,-0.0026414899621158,0.0477165766060352,0.0,0.0,0.8593862056732178,-0.5735806822776794
-0.0926199927926063,0.0387350432574749,0.1588577330112457,-0.265600323677063,0.000750204490032,0.0678339451551437,0.0,0.0,0.9402415752410888,-0.6260075569152832
-0.0909996032714843,0.0336265414953231,0.1577289402484893,-0.2270527184009552,0.0050089741125702,0.0851752683520317,0.0,0.0,0.6591219902038574,-0.8102781772613525
