x_pos,y_pos,x_vel,y_vel,angle,ang_vel,leg_1,leg_2,main_booster,lat_booster
-0.0015505790943279,1.4034454822540283,-0.1570644080638885,-0.3322016298770904,0.0017976239323616,0.0354623757302761,0.0,0.0,-0.3803461194038391,0.9534353017807008
-0.0030476569663733,1.395810842514038,-0.1494153589010238,-0.3393194377422333,0.0015091060195118,-0.00576997641474,0.0,0.0,-0.4219787120819092,-0.2056277990341186
-0.0045729638077318,1.3879966735839844,-0.1522445231676101,-0.3472943007946014,0.0012265098048374,-0.0056526446714997,0.0,0.0,-0.0514426827430725,0.1507431268692016
-0.0061270715668797,1.380003571510315,-0.1551317274570465,-0.3552497625350952,0.0009484406909905,-0.0055619524791836,0.0,0.0,-0.2157807350158691,0.5725131034851074
-0.0076559064909815,1.3718334436416626,-0.1512189209461212,-0.3631170690059662,-0.0007000199402682,-0.0329721681773662,0.0,0.0,-0.170314073562622,0.7520509958267212
-0.0091420169919729,1.363483428955078,-0.1451009511947631,-0.3711210489273071,-0.004170489963144,-0.0694158002734184,0.0,0.0,0.2664294242858886,0.637528657913208
-0.010625553317368,1.3556184768676758,-0.1435422301292419,-0.3495748341083526,-0.0089340191334486,-0.0952790826559066,0.0,0.0,-0.5413708686828613,0.06976318359375
-0.0121399881318211,1.3475748300552368,-0.1466259658336639,-0.3575333058834076,-0.0136934416368603,-0.0951970517635345,0.0,0.0,0.0583982467651367,-0.4268397688865661
-0.0136859891936182,1.3401567935943604,-0.1497584730386734,-0.329740971326828,-0.0184863116592168,-0.0958661437034607,0.0,0.0,-0.575764000415802,0.0163795948028564
-0.0152636524289846,1.3325599431991575,-0.1529349535703659,-0.3377005159854889,-0.0232754722237586,-0.0957917943596839,0.0,0.0,-0.1389664411544799,-0.2254490852355957
-0.016873549669981,1.324784755706787,-0.1561545729637146,-0.3456511795520782,-0.0280609503388404,-0.095718428492546,0.0,0.0,-0.6911468505859375,0.5038068294525146
-0.0184718128293752,1.3168280124664309,-0.153853952884674,-0.3537548780441284,-0.0339585617184639,-0.1179629415273666,0.0,0.0,-0.5428972840309143,-0.0166420936584472
-0.0201027877628803,1.3086928129196167,-0.157150536775589,-0.361709326505661,-0.039851427078247,-0.1178680881857872,0.0,0.0,-0.0783645510673523,0.2542650699615478
-0.0217671394348144,1.3003792762756348,-0.1604846566915512,-0.3696636855602264,-0.0457399114966392,-0.117780290544033,0.0,0.0,-0.2989056706428528,-0.0413364768028259
-0.0234650615602731,1.2918871641159058,-0.1638544201850891,-0.3776181042194366,-0.0516233704984188,-0.1176797971129417,0.0,0.0,-0.5017663836479187,0.6758952140808105
-0.0251343734562397,1.2832039594650269,-0.1593872010707855,-0.3861971497535705,-0.0590885691344738,-0.149317592382431,0.0,0.0,-0.3569908142089844,0.7204755544662476
-0.0267678257077932,1.274344801902771,-0.1540337651968002,-0.3941263556480407,-0.068303033709526,-0.1843061745166778,0.0,0.0,-0.1758817434310913,0.3186205625534057
-0.0284356120973825,1.2653080224990845,-0.1574889123439788,-0.4020855724811554,-0.0775095969438552,-0.1841480582952499,0.0,0.0,-0.6625421047210693,0.6826918125152588
-0.0300753600895404,0.0,-0.1531078368425369,-0.4101647436618805,-0.0882828012108802,-0.2154840975999832,0.0,0.0,-0.6616424322128296,0.0924333333969116
-0.0317498221993446,1.2466999292373655,-0.1566129773855209,-0.4181273281574249,-0.0990459024906158,-0.2152812778949737,0.0,0.0,-0.5138989090919495,0.2184354066848755
-0.0334593765437603,1.237129807472229,-0.1601433008909225,-0.4260899722576141,-0.109798826277256,-0.2150775641202926,0.0,0.0,-0.9210599660873412,0.1076197624206543
-0.0352043136954307,1.2273823022842407,-0.1636966913938522,-0.4340525865554809,-0.1205402165651321,-0.2148470133543014,0.0,0.0,-0.8231378793716431,0.354562759399414
-0.036984633654356,1.217457294464111,-0.1672715097665786,-0.4420156180858612,-0.1312688738107681,-0.2145925015211105,0.0,0.0,-0.6940275430679321,0.0827435255050659
-0.0388007164001464,1.2073546648025513,-0.1708661615848541,-0.4499789476394653,-0.141983613371849,-0.2143134772777557,0.0,0.0,-0.6247740983963013,0.681816816329956
-0.0406116470694541,1.1970678567886353,-0.1693411022424698,-0.4583478271961212,-0.1537236124277115,-0.2348210513591766,0.0,0.0,-0.3144261837005615,0.1826869249343872
-0.0424607284367084,1.1865828037261963,-0.1731867492198944,-0.4672566056251526,-0.1654476225376129,-0.2344802618026733,0.0,0.0,-0.2293378710746765,-0.3628674745559692
-0.044346235692501,1.1759206056594849,-0.1768615096807479,-0.4752174317836761,-0.1771553605794906,-0.234154611825943,0.0,0.0,-0.6940664649009705,0.2710041999816894
-0.0462681762874126,1.1650813817977903,-0.1805496960878372,-0.4831781089305877,-0.188845545053482,-0.2338039129972458,0.0,0.0,-0.0369037985801696,0.2433151006698608
-0.0482266433537006,1.1540650129318235,-0.1842497885227203,-0.4911386668682098,-0.2005168944597244,-0.2334268391132354,0.0,0.0,-0.3543081283569336,-0.7080172896385193
-0.0502789504826068,1.14288592338562,-0.195126861333847,-0.4982491433620453,-0.2106976062059402,-0.2036142796278,0.0,0.0,-0.488055944442749,-0.8501805067062378
-0.0524301528930664,1.131558895111084,-0.2067132890224456,-0.5046493411064148,-0.2191926091909408,-0.1698996871709823,0.0,0.0,0.6270334720611572,-0.1698049306869506
-0.0545992851257324,1.1207107305526731,-0.2081806361675262,-0.4834627211093902,-0.2280188351869583,-0.1765247285366058,0.0,0.0,-0.6381705403327942,-0.0515567064285278
-0.0568053238093853,1.1096848249435425,-0.211911916732788,-0.4914182424545288,-0.2368203103542328,-0.1760298907756805,0.0,0.0,-0.5898073315620422,-0.4440323114395141
-0.0590481758117675,1.0984805822372437,-0.2156476229429245,-0.4993736445903778,-0.2455954402685165,-0.1755025386810302,0.0,0.0,-0.0004305839538574,-0.098459243774414
-0.0613279342651367,1.0870985984802246,-0.2193862944841385,-0.507328987121582,-0.2543425261974334,-0.174941748380661,0.0,0.0,-0.2808102965354919,-0.8085668683052063
-0.0637033432722091,1.0755674839019775,-0.230564072728157,-0.5137169361114502,-0.261469155550003,-0.1425323337316513,0.0,0.0,-0.4951908588409424,-0.6276557445526123
-0.0661662071943283,1.0638749599456787,-0.2406439483165741,-0.5206867456436157,-0.2672416567802429,-0.1154501289129257,0.0,0.0,0.937903642654419,0.0005080699920654
-0.0683871284127235,1.053277850151062,-0.2166956961154937,-0.4719767272472381,-0.2727743089199066,-0.1106528863310813,0.0,0.0,-0.5099690556526184,-0.7500499486923218
-0.0707041770219802,1.0425355434417725,-0.2279253453016281,-0.4781456291675567,-0.2766445279121399,-0.0774042978882789,0.0,0.0,0.4255540370941162,0.2872518301010132
-0.0728913322091102,1.0323612689971924,-0.2150909602642059,-0.4528816938400268,-0.2803648710250854,-0.0744068473577499,0.0,0.0,0.4524641036987304,0.0617662668228149
-0.0750160217285156,1.0230337381362915,-0.2084681093692779,-0.4153285324573517,-0.2844804525375366,-0.0823115557432174,0.0,0.0,-0.1059315204620361,0.1817390918731689
-0.0771774277091026,1.013527512550354,-0.2121827900409698,-0.4232786297798157,-0.2885550558567047,-0.0814922526478767,0.0,0.0,-0.1334556341171264,0.6299664974212646
-0.0793215781450271,1.003811240196228,-0.209051176905632,-0.4329043924808502,-0.2940796315670013,-0.1104915514588356,0.0,0.0,0.0001330375671386,-0.4360122680664062
-0.0813518539071083,0.9943496584892272,-0.1979858428239822,-0.4215447008609772,-0.2992812991142273,-0.1040330752730369,0.0,0.0,-0.7859728336334229,-0.2726331949234009
-0.0834182724356651,0.9847093224525452,-0.2016666829586029,-0.4294953942298889,-0.3044360876083374,-0.1030956134200096,0.0,0.0,-0.814041793346405,-0.7271654009819031
-0.0855730026960372,0.9749067425727844,-0.211846262216568,-0.4364269971847534,-0.3081822991371155,-0.0749241411685943,0.0,0.0,0.8533780574798584,-0.4705351591110229
-0.0875463485717773,0.9656108617782592,-0.1940709352493286,-0.413848876953125,-0.3115611374378204,-0.067576989531517,0.0,0.0,0.6514357328414917,-0.8673660159111023
-0.0894819274544715,0.9574236273765564,-0.1918862909078598,-0.3642394244670868,-0.3132995367050171,-0.0347686186432838,0.0,0.0,0.6038730144500732,0.4394052028656006
-0.0913398712873458,0.9502086639404296,-0.1835890263319015,-0.3211410641670227,-0.3155789971351623,-0.0455893911421299,0.0,0.0,-0.4638085961341858,0.4232449531555176
-0.09323301166296,0.9428146481513976,-0.1871730089187622,-0.3290896713733673,-0.3178017437458038,-0.0444551408290863,0.0,0.0,0.2092682123184204,0.3691016435623169
-0.0949307456612587,0.9357879757881165,-0.1681626886129379,-0.3126535415649414,-0.3194802105426788,-0.0335694178938865,0.0,0.0,-0.0868112444877624,0.2857916355133056
-0.0966632813215255,0.9285821914672852,-0.171692281961441,-0.3206018209457397,-0.321098119020462,-0.03235874325037,0.0,0.0,0.7113931179046631,-0.0748634934425354
-0.0981773361563682,0.9217991232872008,-0.1504131406545639,-0.3016893565654754,-0.3221298456192016,-0.0206346902996301,0.0,0.0,0.5460747480392456,0.1192090511322021
-0.0994862541556358,0.9158977270126344,-0.129972442984581,-0.2624924778938293,-0.3230835795402527,-0.019074922427535,0.0,0.0,0.6847219467163086,0.1398837566375732
-0.1005268096923828,0.910451889038086,-0.1038805991411209,-0.2420752346515655,-0.3232685029506683,-0.0036984868347644,0.0,0.0,0.3169585466384887,0.2894914150238037
-0.1015536338090896,0.9053974747657776,-0.1022197380661964,-0.2247426360845565,-0.3237380087375641,-0.0093903727829456,0.0,0.0,0.4053128957748413,-0.1667013168334961
-0.1023216247558593,0.9010897874832152,-0.0767708197236061,-0.19146029651165,-0.3237682282924652,-0.0006044344045221,0.0,0.0,0.754375696182251,-0.6606473922729492
-0.1027924567461013,0.8975731730461121,-0.0487808063626289,-0.1559201627969741,-0.3220069110393524,0.0352262891829013,0.0,0.0,0.5538578033447266,-0.517097532749176
-0.1030159965157508,0.8949676156044006,-0.0253243800252676,-0.1151372119784355,-0.3189176917076111,0.061784666031599,0.0,0.0,-0.3162179589271545,-0.4296574592590332
-0.1032707244157791,0.8921831250190735,-0.0285196863114833,-0.1230856701731681,-0.3157543540000915,0.0632665008306503,0.0,0.0,0.3630961179733276,-0.832762598991394
-0.103479579091072,0.8896568417549133,-0.0256869159638881,-0.1112446784973144,-0.3107740581035614,0.0996060967445373,0.0,0.0,0.0975894927978515,-0.7190396785736084
-0.1037013977766037,0.8876817226409912,-0.0284156166017055,-0.0864652916789054,-0.3043119609355926,0.1292415559291839,0.0,0.0,-0.3735816478729248,0.0224984884262084
-0.1039523109793663,0.8855279684066772,-0.0314255990087986,-0.0944163128733635,-0.2977717518806457,0.1308041661977768,0.0,0.0,0.0657893419265747,-0.2783958315849304
-0.1041012778878212,0.8837556838989258,-0.0213768854737281,-0.0774504691362381,-0.2910819351673126,0.1337964236736297,0.0,0.0,-0.2092282772064209,-0.3323608636856079
-0.104277990758419,0.881804883480072,-0.02423956990242,-0.0854017734527587,-0.2843117117881775,0.1354044675827026,0.0,0.0,-0.7964507341384888,0.5111446380615234
-0.104450799524784,0.879662275314331,-0.023143220692873,-0.0940952226519584,-0.2782841324806213,0.1205513700842857,0.0,0.0,-0.8310179114341736,0.729110598564148
-0.1045907959342002,0.8773247003555298,-0.0184696763753891,-0.1030561849474906,-0.2736977338790893,0.0917277112603187,0.0,0.0,-0.6079698801040649,0.2451981306076049
-0.104755975306034,0.8748080134391785,-0.0210715625435113,-0.1110056489706039,-0.2690283060073852,0.0933887884020805,0.0,0.0,-0.6837900876998901,0.539812445640564
-0.1049012169241905,0.8721005916595459,-0.0180636160075664,-0.1196802929043769,-0.2654120326042175,0.0723262280225753,0.0,0.0,0.4290595054626465,0.6459825038909912
-0.1049999222159385,0.8698193430900574,-0.0120334392413496,-0.1009999588131904,-0.2631941735744476,0.0443571619689464,0.0,0.0,-0.3893061280250549,-0.7555691003799438
-0.1051863655447959,0.8673887848854065,-0.0226212348788976,-0.1073124557733535,-0.2591262459754944,0.0813586860895156,0.0,0.0,-0.5922815203666687,0.7270177602767944
-0.1053351387381553,0.8647574782371521,-0.017434537410736,-0.1164996176958084,-0.2565181255340576,0.0521626584231853,0.0,0.0,-0.6159865856170654,0.1486498117446899
-0.1055035591125488,0.8619470000267029,-0.0194863192737102,-0.1244479939341545,-0.2538248300552368,0.0538656935095787,0.0,0.0,-0.5382744669914246,-0.3935760259628296
-0.1056903824210167,0.8589576482772827,-0.0214095208793878,-0.1323964297771453,-0.2510463297367096,0.055569838732481,0.0,0.0,-0.4776076674461365,0.5019335746765137
-0.1058587059378624,0.8557713031768799,-0.0187029000371694,-0.1412932872772216,-0.2491437494754791,0.0380514599382877,0.0,0.0,-0.7006428837776184,-0.626872718334198
-0.1060863509774208,0.8524157404899597,-0.0258113741874694,-0.1486191898584365,-0.246038407087326,0.0621066465973854,0.0,0.0,-0.9488521814346312,-0.2418676614761352
-0.1063282042741775,0.8488812446594238,-0.0273111015558242,-0.1565678715705871,-0.2428484410047531,0.0637989565730094,0.0,0.0,-0.8740918040275574,-0.4272141456604004
-0.1065825447440147,0.8451678156852722,-0.0286574251949787,-0.1645166277885437,-0.2395743280649185,0.0654823184013366,0.0,0.0,-0.909105122089386,-0.676885724067688
-0.1068917289376258,0.8412982821464539,-0.0354015454649925,-0.1712513715028762,-0.235026553273201,0.0909557044506073,0.0,0.0,-0.9639690518379213,0.0413839817047119
-0.1072103530168533,0.8372500538825989,-0.0364242941141128,-0.1792011111974716,-0.2303958684206009,0.092613399028778,0.0,0.0,-0.9914795756340028,0.8617746829986572
-0.1074860543012619,0.8329958319664001,-0.0308683924376964,-0.1885590404272079,-0.2270543873310089,0.0668297559022903,0.0,0.0,-0.9905751943588256,0.5191822052001953
-0.1077243834733963,0.8285525441169739,-0.0261161085218191,-0.1971330791711807,-0.224744513630867,0.0461976900696754,0.0,0.0,-0.9160996079444884,0.1346164941787719
-0.1079668998718261,0.8239301443099976,-0.0266156457364559,-0.2050816714763641,-0.2223546206951141,0.0477982386946678,0.0,0.0,-0.9978625774383544,-0.4634163379669189
-0.108211800456047,0.8191286325454712,-0.0269330944865942,-0.2130303233861923,-0.2198858857154846,0.0493748486042022,0.0,0.0,-0.9992436766624452,0.2221912145614624
-0.1084572821855545,0.8141483068466187,-0.0270655639469623,-0.2209790349006652,-0.2173396497964859,0.050925076007843,0.0,0.0,-0.9993324279785156,-0.709704577922821
-0.1087481528520584,0.8090044856071472,-0.0328954756259918,-0.2280556857585907,-0.2134955078363418,0.0768831074237823,0.0,0.0,-0.9951428771018982,-0.2827463150024414
-0.1090358719229698,0.8036819696426392,-0.0326523669064044,-0.2360052019357681,-0.2095768004655838,0.0783738270401954,0.0,0.0,-0.9995198845863342,0.6348876953125
-0.1092626601457595,0.7981578707695007,-0.0251657906919717,-0.2451664060354232,-0.2070623487234115,0.050289113074541,0.0,0.0,-0.9968187212944032,-0.5473129749298096
-0.1095144301652908,0.7924647331237793,-0.0285660270601511,-0.2525587677955627,-0.203645259141922,0.0683419033885002,0.0,0.0,-0.9999598860740662,0.3284385204315185
-0.1097573265433311,0.7865927815437317,-0.0277560707181692,-0.2605081796646118,-0.2001588642597198,0.0697274953126907,0.0,0.0,-0.9996272921562196,0.8239624500274658
-0.1099256500601768,0.7805282473564148,-0.0187353603541851,-0.2692708075046539,-0.198241040110588,0.038356564939022,0.0,0.0,-0.9997512102127076,-0.2918570637702942
-0.1100815758109092,0.7742849588394165,-0.0175545308738946,-0.2772196531295776,-0.196257933974266,0.0396622195839881,0.0,0.0,-0.9996289014816284,-0.482573926448822
-0.1102230995893478,0.7678626775741577,-0.0161927994340658,-0.2851685881614685,-0.1942116767168045,0.0409250371158123,0.0,0.0,-0.9980132579803468,-0.7757700681686401
-0.1103998199105262,0.761268138885498,-0.0210521835833787,-0.2926482856273651,-0.1908132135868072,0.0679696500301361,0.0,0.0,-0.9999052286148072,-0.2100905179977417
-0.1105587929487228,0.754494845867157,-0.019341068342328,-0.3005979657173157,-0.1873561292886734,0.0691415667533874,0.0,0.0,-0.9994360208511353,0.5371675491333008
-0.1106500625610351,0.7475354075431824,-0.0114046018570661,-0.3090228140354156,-0.1850681453943252,0.0457597039639949,0.0,0.0,-0.9988075494766236,-0.0361488461494445
-0.1107204407453537,0.7403969764709473,-0.0093638859689235,-0.3169719874858856,-0.1827264428138733,0.0468338429927825,0.0,0.0,-0.9992926716804504,-0.4762498736381531
-0.1107683181762695,0.7330796122550964,-0.0071671470068395,-0.3249213099479675,-0.1803336143493652,0.0478565320372581,0.0,0.0,-0.9998446702957152,0.1912287473678589
-0.1107921600341796,0.7255834937095642,-0.0048206420615315,-0.3328706920146942,-0.1778923124074936,0.0488261878490448,0.0,0.0,-0.9996511936187744,-0.7404795289039612
-0.1108526214957237,0.7179306745529175,-0.010149298235774,-0.3396409451961517,-0.1737852990627288,0.0821404606103897,0.0,0.0,-0.995163917541504,0.4148610830307007
-0.1108864769339561,0.7100990414619446,-0.0075231753289699,-0.3475913405418396,-0.1696353703737259,0.082998588681221,0.0,0.0,-0.9998000860214232,0.6185097694396973
-0.110846422612667,0.7020748853683472,0.0010143369436264,-0.3562949001789093,-0.1666347682476043,0.0600124709308147,0.0,0.0,-0.998058557510376,-0.8132290840148926
-0.1108526214957237,0.6938919425010681,-0.0056048515252768,-0.3631429970264435,-0.1616522371768951,0.0996501892805099,0.0,0.0,-0.9998638033866882,0.7120053768157959
-0.1107870116829872,0.6855182647705078,0.0026083788834512,-0.3717337250709533,-0.1577061414718628,0.078921802341938,0.0,0.0,-0.9993472695350648,-0.0471763014793396
-0.1106901168823242,0.6769659519195557,0.0057132286019623,-0.3796842694282532,-0.1537293493747711,0.0795357748866081,0.0,0.0,-0.9995040893554688,0.1555308103561401
-0.1105608940124511,0.6682350039482117,0.0089210988953709,-0.3876348435878753,-0.1497251391410827,0.0800840780138969,0.0,0.0,-0.999575674533844,-0.0332512259483337
-0.1103981956839561,0.6593253016471863,0.0122256148606538,-0.3955855071544647,-0.1456969082355499,0.0805647522211074,0.0,0.0,-0.9998536109924316,0.1574277877807617
-0.1102014556527137,0.6502370238304138,0.0156206060200929,-0.4035362303256988,-0.1416481137275695,0.0809758454561233,0.0,0.0,-0.999968945980072,0.106450080871582
-0.1099696159362793,0.64096999168396,0.0191001296043396,-0.4114870429039001,-0.1375823616981506,0.0813154056668281,0.0,0.0,-0.999763250350952,0.7933330535888672
-0.1096321120858192,0.6315096020698547,0.0314520597457885,-0.4202463924884796,-0.1352896094322204,0.0458553247153759,0.0,0.0,-0.9990355372428894,-0.7354284524917603
-0.1093156784772872,0.6218898296356201,0.0278269052505493,-0.4272074699401855,-0.1314967572689056,0.0758569464087486,0.0,0.0,-0.998721718788147,0.8760936260223389
-0.1088860481977462,0.6120838522911072,0.0410883501172065,-0.4356555044651031,-0.1296210885047912,0.0375133380293846,0.0,0.0,-0.9969274997711182,-0.5029014945030212
-0.1084530800580978,0.6021032333374023,0.0405410826206207,-0.4433432221412658,-0.1268748939037323,0.0549240224063396,0.0,0.0,-0.9986547827720642,-0.1245445609092712
-0.1079817786812782,0.5919438600540161,0.0443635359406471,-0.4512934982776642,-0.1241311207413673,0.0548756197094917,0.0,0.0,-0.9978262186050416,0.2169840335845947
-0.1074719429016113,0.5816057920455933,0.04824049025774,-0.4592438340187073,-0.1213939413428306,0.0547435693442821,0.0,0.0,-0.991824507713318,0.087866187095642
-0.1069228202104568,0.571088969707489,0.0521678999066352,-0.4671941995620727,-0.118667647242546,0.0545259602367877,0.0,0.0,-0.9945719242095948,0.1692620515823364
-0.1063341125845909,0.5603932738304138,0.0561419911682605,-0.4751446545124054,-0.1159565970301628,0.0542208738625049,0.0,0.0,-0.9932645559310912,-0.0084604620933532
-0.1057054549455642,0.5495190024375916,0.0601592361927032,-0.4830950796604156,-0.1132652685046196,0.0538265481591224,0.0,0.0,-0.9845638871192932,0.0488513708114624
-0.1050364524126052,0.5384658575057983,0.0642163529992103,-0.4910455346107483,-0.1105982139706611,0.0533413104712963,0.0,0.0,-0.9324463605880736,0.2175962924957275
-0.1043267250061035,0.5272340178489685,0.0683102756738662,-0.4989959895610809,-0.1079600304365158,0.052763570100069,0.0,0.0,-0.9983475804328918,-0.1375820040702819
