x_pos,y_pos,x_vel,y_vel,angle,ang_vel,leg_1,leg_2,main_booster,lat_booster
-0.0015247345436364,1.403369665145874,-0.1543622016906738,-0.3355801701545715,0.0016840322641655,0.0332133807241916,0.0,0.0,-0.4097397327423095,0.7777953147888184
-0.0029846192337572,1.3955836296081543,-0.1458603143692016,-0.3460415005683899,0.0015601249178871,-0.0024777913931757,0.0,0.0,0.2958234548568725,0.1607940196990966
-0.0043415068648755,1.3880178928375244,-0.1359683871269226,-0.336259514093399,0.0018379747634753,0.005557763390243,0.0,0.0,-0.2231093049049377,0.7821636199951172
-0.0056504248641431,1.3801945447921753,-0.1298029124736786,-0.34770268201828,0.0007651658961549,-0.0214583594352006,0.0,0.0,-0.2300485372543335,0.5089631080627441
-0.0069121359847486,1.3721179962158203,-0.1237337961792945,-0.358957290649414,-0.0016433502314612,-0.0481745228171348,0.0,0.0,0.0030353069305419,-0.4062843918800354
-0.0080914497375488,1.3642809391021729,-0.1157720237970352,-0.3483142554759979,-0.0037739081308245,-0.0426154509186744,0.0,0.0,-0.4041993618011474,0.3377585411071777
-0.0092722894623875,1.3561891317367554,-0.1157975420355796,-0.3596481382846832,-0.0060322443023324,-0.0451709330081939,0.0,0.0,0.2635589838027954,0.1552659273147583
-0.0103374477475881,1.348583459854126,-0.1046459525823593,-0.3380339443683624,-0.007879608310759,-0.0369507297873497,0.0,0.0,-0.7771115899085999,-0.0920092463493347
-0.0114043233916163,1.3407230377197266,-0.1046745330095291,-0.3493698537349701,-0.0098676048219203,-0.0397637113928794,0.0,0.0,-0.7780815362930298,0.8256244659423828
-0.0124078746885061,1.3326120376586914,-0.0965517610311508,-0.3605219423770904,-0.0136353578418493,-0.0753621459007263,0.0,0.0,-0.7010397911071777,-0.4101540446281433
-0.0134133342653512,1.324246168136597,-0.0965757519006729,-0.3718530237674713,-0.0175551548600196,-0.0784031897783279,0.0,0.0,-0.4454691410064697,-0.2996226549148559
-0.0144205093383789,1.315625786781311,-0.0966002717614173,-0.3831842243671417,-0.0216343477368354,-0.0815912187099456,0.0,0.0,-0.3396884799003601,-0.0148563981056213
-0.0154296876862645,1.3067506551742554,-0.0966248363256454,-0.3945157825946808,-0.0258787926286458,-0.0848966985940933,0.0,0.0,-0.5154973864555359,0.6430976390838623
-0.0163844116032123,1.2976129055023191,-0.0895704329013824,-0.4062361717224121,-0.0317166894674301,-0.1167685836553573,0.0,0.0,-0.8183568120002747,-0.1601234674453735
-0.0173410419374704,1.288220763206482,-0.0895902290940284,-0.4175693690776825,-0.0377311706542968,-0.1203002110123634,0.0,0.0,-0.2834455966949463,-0.1526318788528442
-0.0182997696101665,1.2785742282867432,-0.0896101370453834,-0.4289027452468872,-0.0439290218055248,-0.1239681094884872,0.0,0.0,-0.7057544589042664,-0.2181833982467651
-0.0192605964839458,1.268673539161682,-0.0896297246217727,-0.4402368664741516,-0.0503157563507556,-0.1277463138103485,0.0,0.0,-0.664697527885437,-0.7253714203834534
-0.020267391577363,1.2585155963897705,-0.0951498448848724,-0.4516610503196716,-0.0557978563010692,-0.1096517220139503,0.0,0.0,-0.5522263050079346,-0.6834018230438232
-0.0213214866816997,1.2481135129928589,-0.1008193045854568,-0.4624968469142914,-0.0603402741253376,-0.09085663408041,0.0,0.0,-0.7687264680862427,0.0649296045303344
-0.0223777778446674,1.2374569177627563,-0.1008437275886535,-0.4738302826881408,-0.0650887414813041,-0.0949776470661163,0.0,0.0,-0.7513238191604614,-0.2055614590644836
-0.0234365463256835,1.2265456914901731,-0.1008672714233398,-0.4851638674736023,-0.0700479671359062,-0.0991934835910797,0.0,0.0,-0.2457398772239685,-0.6468102931976318
-0.0245478637516498,1.215381741523743,-0.1071815267205238,-0.4963667094707489,-0.0739624872803688,-0.0782974809408187,0.0,0.0,0.1253355741500854,0.5053615570068359
-0.0254976265132427,1.2045021057128906,-0.0899884179234504,-0.4837897717952728,-0.0789103135466575,-0.0989651605486869,0.0,0.0,-0.9413008093833924,-0.8297843337059021
-0.0265081413090229,1.1933656930923462,-0.0973157584667205,-0.4951547384262085,-0.0826257243752479,-0.0743146166205406,0.0,0.0,-0.9107547402381896,-0.6379324793815613
-0.0275835040956735,1.181984305381775,-0.105130597949028,-0.5059772729873657,-0.0850016176700592,-0.0475221090018749,0.0,0.0,0.2933094501495361,-0.7525193095207214
-0.0288029666990041,1.1711784601211548,-0.1206603050231933,-0.4803310930728912,-0.0862775892019271,-0.0255197845399379,0.0,0.0,-0.0103482604026794,-0.1709301471710205
-0.0300251953303813,1.1601181030273438,-0.1206952333450317,-0.4916610717773437,-0.087793618440628,-0.0303205754607915,0.0,0.0,0.3352304697036743,-0.8691303730010986
-0.031379796564579,1.1498335599899292,-0.1353175640106201,-0.4570947587490082,-0.0879320502281189,-0.0027684730011969,0.0,0.0,-0.8963696956634521,0.1997849941253662
-0.0327372550964355,1.1392945051193235,-0.1353521943092346,-0.4684247076511383,-0.0883186757564544,-0.0077326064929366,0.0,0.0,-0.9645773768424988,0.7742493152618408
-0.0340388305485248,1.1284902095794678,-0.1280122995376587,-0.4803200960159302,-0.090447299182415,-0.0425724014639854,0.0,0.0,-0.9004770517349243,0.0674402713775634
-0.0353433601558208,1.1174312829971311,-0.1280466616153717,-0.4916504919528961,-0.0928316339850425,-0.0476866699755191,0.0,0.0,-0.0903607606887817,0.2133893966674804
-0.0366508476436138,1.1061179637908936,-0.1280809044837951,-0.5029810667037964,-0.0954751744866371,-0.0528711304068565,0.0,0.0,-0.4300564527511596,-0.0114548206329345
-0.0379612930119037,1.0945502519607544,-0.1281149983406067,-0.5143118500709534,-0.0983812883496284,-0.0581223182380199,0.0,0.0,-0.8840813040733337,-0.4858103394508362
-0.0392746925354003,1.0827282667160034,-0.1281489431858062,-0.5256427526473999,-0.1015531420707702,-0.0634371191263198,0.0,0.0,-0.9179581999778748,-0.1000654101371765
-0.0405912399291992,1.0706517696380615,-0.1281827390193939,-0.5369739532470703,-0.1049938276410102,-0.0688133761286735,0.0,0.0,0.4496914148330688,0.2248502969741821
-0.0418252944946289,1.0593082904815674,-0.1197465285658836,-0.5044111609458923,-0.108632318675518,-0.0727699249982833,0.0,0.0,-0.7810617685317993,0.5449967384338379
-0.0430216789245605,1.047701120376587,-0.114654317498207,-0.5162402987480164,-0.1135860234498977,-0.0990737527608871,0.0,0.0,-0.8594439029693604,0.1024374961853027
-0.0442212112247943,1.0358400344848633,-0.1146878376603126,-0.5275731086730957,-0.1188166067004203,-0.1046116352081298,0.0,0.0,-0.813820481300354,-0.831963300704956
-0.0454926490783691,1.0237462520599363,-0.1233878508210182,-0.5378028750419617,-0.1225535422563552,-0.0747387334704399,0.0,0.0,-0.7852364778518677,-0.3443858623504638
-0.0467673316597938,1.0113983154296875,-0.1234209164977073,-0.5491349697113037,-0.1265720576047897,-0.0803703218698501,0.0,0.0,-0.767327070236206,-0.8063559532165527
-0.0481189712882041,0.9988171458244324,-0.1327486038208007,-0.5593743920326233,-0.1289755254983902,-0.0480695962905883,0.0,0.0,-0.9248462319374084,-0.1392178535461425
-0.049473762512207,0.9859816431999208,-0.1327812224626541,-0.5707060098648071,-0.1316646784543991,-0.0537831895053386,0.0,0.0,-0.967074453830719,-0.5323787331581116
-0.0508673675358295,0.9728928804397584,-0.1372603178024292,-0.5819091796875,-0.1337522566318512,-0.0417515225708484,0.0,0.0,-0.99308443069458,0.483725905418396
-0.0522641167044639,0.9595497846603394,-0.137292593717575,-0.5932408571243286,-0.136129081249237,-0.0475361049175262,0.0,0.0,-0.5703068971633911,-0.933318555355072
-0.05374326556921,0.9459574818611144,-0.1472266018390655,-0.6041650176048279,-0.1368112564086914,-0.0136437220498919,0.0,0.0,-0.2397562861442566,0.0589691400527954
-0.0552255623042583,0.9321108460426332,-0.1472585350275039,-0.6154964566230774,-0.1377856880426406,-0.0194886606186628,0.0,0.0,-0.9889247417449952,0.6857237815856934
-0.0566524490714073,0.9179938435554504,-0.1398957818746566,-0.6276798248291016,-0.1405647844076156,-0.0555816292762756,0.0,0.0,-0.9565507173538208,0.0872114896774292
-0.0580824837088584,0.9036228060722352,-0.1399275362491607,-0.6390120387077332,-0.1436386108398437,-0.0614765658974647,0.0,0.0,-0.902958333492279,-0.6403661370277405
-0.0595764145255088,0.8890160918235779,-0.1475858092308044,-0.6493551135063171,-0.1454430520534515,-0.0360887572169303,0.0,0.0,-0.5236402750015259,-0.2261503338813781
-0.0610736832022666,0.8741554021835327,-0.1476172059774398,-0.6606870889663696,-0.1475442349910736,-0.0420237146317958,0.0,0.0,-0.8429421186447144,-0.8298513293266296
-0.0626235976815223,0.8590511679649353,-0.153860330581665,-0.6714136600494385,-0.1486788541078567,-0.0226924642920494,0.0,0.0,-0.2096796631813049,-0.7857729196548462
-0.0642435997724533,0.8437128067016602,-0.1622949093580246,-0.6816708445549011,-0.1483871638774871,0.005834013223648,0.0,0.0,-0.7617074847221375,-0.7027978897094727
-0.0659123435616493,0.8281265497207642,-0.1680136322975158,-0.6926116347312927,-0.1472459584474563,0.0228240732103586,0.0,0.0,-0.5873562097549438,-0.4629665613174438
-0.0675844177603721,0.8122859001159668,-0.1680444180965423,-0.7039433717727661,-0.1464040428400039,0.0168383456766605,0.0,0.0,-0.8227415084838867,-0.8477779626846313
-0.0693099051713943,0.7961989641189575,-0.174373909831047,-0.7147994637489319,-0.1445876061916351,0.036328662186861,0.0,0.0,-0.822604238986969,-0.3475600481033325
-0.0710387229919433,0.7798576354980469,-0.1744044572114944,-0.7261313199996948,-0.1430709809064865,0.030332138761878,0.0,0.0,-0.7964621186256409,-0.4272016286849975
-0.0727708786725997,0.763262152671814,-0.1744348108768463,-0.737463116645813,-0.1418542861938476,0.0243339613080024,0.0,0.0,-0.6685004830360413,-0.2377741336822509
-0.0745063796639442,0.7464122772216797,-0.174465000629425,-0.7487948536872864,-0.1409374624490738,0.0183364432305097,0.0,0.0,-0.435519814491272,-0.135913074016571
-0.0762451142072677,0.7293080687522888,-0.1744950413703918,-0.7601264715194702,-0.1403203457593917,0.0123422890901565,0.0,0.0,-0.209816575050354,-0.5653622150421143
-0.0780365914106369,0.711965024471283,-0.1807413548231125,-0.77065110206604,-0.1387272477149963,0.0318618901073932,0.0,0.0,-0.1876482367515564,-0.5974093675613403
-0.079874612390995,0.6943717002868652,-0.1861947327852249,-0.7817107439041138,-0.1363433003425598,0.0476793870329856,0.0,0.0,0.5644302368164062,0.8139979839324951
-0.0816660895943641,0.6775234341621399,-0.1794473379850387,-0.7487785816192627,-0.1360508054494857,0.0058504906482994,0.0,0.0,-0.3710489869117737,0.1876370906829834
-0.0834608078002929,0.6604209542274475,-0.1794767379760742,-0.7601100206375122,-0.136056050658226,-0.0001048443955369,0.0,0.0,0.3261725902557373,-0.232166588306427
-0.085173413157463,0.6437915563583374,-0.1710445284843444,-0.7391068935394287,-0.1362707167863845,-0.0042932168580591,0.0,0.0,0.0046354532241821,0.4673668146133423
-0.0868514031171798,0.6272691488265991,-0.1673123836517334,-0.7343800067901611,-0.136759340763092,-0.0097724078223109,0.0,0.0,-0.0900375247001648,-0.1461793184280395
-0.088532730937004,0.6104922294616699,-0.1673413217067718,-0.7457114458084106,-0.1375427991151809,-0.0156690757721662,0.0,0.0,0.5530397891998291,-0.3261290788650512
-0.0900868400931358,0.5946521759033203,-0.1544320732355117,-0.7040939331054688,-0.1385264843702316,-0.019673841074109,0.0,0.0,-0.3143743872642517,0.3454197645187378
-0.091644287109375,0.5785577893257141,-0.1544606983661651,-0.715425431728363,-0.1398022919893264,-0.0255159586668014,0.0,0.0,0.7811006307601929,-0.2150512933731079
-0.0930477157235145,0.5635700225830078,-0.1389113366603851,-0.666259229183197,-0.141233816742897,-0.0286306384950876,0.0,0.0,-0.8470401167869568,0.0709036588668823
-0.0944543853402137,0.5483279228210449,-0.1389396339654922,-0.6775909662246704,-0.1429540514945984,-0.0344046279788017,0.0,0.0,-0.0063887238502502,-0.3446054458618164
-0.0958641991019249,0.5328315496444702,-0.138967752456665,-0.688922643661499,-0.1449609994888305,-0.0401390716433525,0.0,0.0,0.8363523483276367,-0.2653874158859253
-0.0971433669328689,0.5181002020835876,-0.1257759928703308,-0.6549358367919922,-0.1470943242311477,-0.0426667258143425,0.0,0.0,-0.302195131778717,-0.8935535550117493
-0.0985095053911209,0.503143310546875,-0.1363620012998581,-0.6647756099700928,-0.1473354399204254,-0.0048224199563264,0.0,0.0,0.4268747568130493,-0.6734112501144409
-0.0997887626290321,0.4886684417724609,-0.1288909018039703,-0.6432358026504517,-0.1463802456855774,0.0191040132194757,0.0,0.0,0.5636531114578247,0.0047311782836914
-0.1010486632585525,0.474495381116867,-0.1265271157026291,-0.629859209060669,-0.1458494365215301,0.0106165828183293,0.0,0.0,-0.3657576441764831,0.0766446590423584
-0.1023116111755371,0.460068017244339,-0.1265541166067123,-0.6411905884742737,-0.1455923020839691,0.0051427283324301,0.0,0.0,0.6467242240905762,0.0786733627319336
-0.1035596877336502,0.4458953142166137,-0.1246417984366417,-0.6299158334732056,-0.1457512378692627,-0.0031788032501935,0.0,0.0,0.7536580562591553,0.0870165824890136
-0.1046971306204795,0.4327196478843689,-0.1132752299308776,-0.5856315493583679,-0.1462180614471435,-0.0093365693464875,0.0,0.0,-0.1423376202583313,0.4501130580902099
-0.1058375388383865,0.4192895889282226,-0.1133014559745788,-0.5969628691673279,-0.146947830915451,-0.0145952925086021,0.0,0.0,0.2865080833435058,0.7382210493087769
-0.1069261580705642,0.4065656661987304,-0.1062725037336349,-0.5657643675804138,-0.1495379954576492,-0.0518029145896434,0.0,0.0,-0.1863688230514526,0.757866621017456
-0.1079719513654708,0.3935693502426147,-0.1005320101976394,-0.5780267715454102,-0.1535768210887909,-0.0807769149541854,0.0,0.0,-0.7043274641036987,-0.9596524238586426
-0.1090895682573318,0.3803434669971466,-0.109257735311985,-0.5880763530731201,-0.1560690701007843,-0.0498453080654144,0.0,0.0,0.2250096797943115,0.4945883750915527
-0.1102175712585449,0.3675130605697632,-0.1097227931022644,-0.5705638527870178,-0.1591532826423645,-0.0616839118301868,0.0,0.0,-0.1251603364944458,0.1336301565170288
-0.11134834587574,0.3544285297393799,-0.1097477301955223,-0.5818958282470703,-0.1624763458967209,-0.0664611309766769,0.0,0.0,0.0364793539047241,-0.4265999794006347
-0.1124179810285568,0.3417409062385559,-0.1033804044127464,-0.5642900466918945,-0.1660670936107635,-0.071814939379692,0.0,0.0,-0.0824331045150756,-0.2872178554534912
-0.1134902015328407,0.3287991285324096,-0.1034047603607177,-0.5756223797798157,-0.1698845326900482,-0.0763487070798873,0.0,0.0,0.1545165777206421,-0.4689306020736694
-0.1145079582929611,0.3159525692462921,-0.0978278815746307,-0.5714155435562134,-0.1738453358411789,-0.0792161077260971,0.0,0.0,0.0069833993911743,-0.782470166683197
-0.1154822334647178,0.3032075762748718,-0.0948382690548896,-0.5667482018470764,-0.1764343231916427,-0.0517798252403736,0.0,0.0,0.7010858058929443,-0.9306478500366212
-0.116261102259159,0.2910509407520294,-0.077203631401062,-0.5403741002082825,-0.1771181970834732,-0.0136773465201258,0.0,0.0,0.108889102935791,-0.8465175032615662
-0.1169548034667968,0.2790132761001587,-0.070218451321125,-0.534906804561615,-0.1762663871049881,0.0170362591743469,0.0,0.0,0.038118839263916,-0.7928850650787354
-0.1176328659057617,0.2674415707588196,-0.0700538083910942,-0.5140336155891418,-0.1740117818117141,0.0450920313596725,0.0,0.0,-0.5552581548690796,0.3926675319671631
-0.1183129325509071,0.2556154727935791,-0.0700758248567581,-0.5253647565841675,-0.1719368994235992,0.0414975807070732,0.0,0.0,0.8699153661727905,0.0654250383377075
-0.1187267303466796,0.2446145415306091,-0.0439404621720314,-0.4886371791362762,-0.1693802326917648,0.0511337332427501,0.0,0.0,0.1356234550476074,0.1696646213531494
-0.1190361976623535,0.2336733490228653,-0.0336654968559742,-0.4859660267829895,-0.1666630804538726,0.0543426759541034,0.0,0.0,0.2014200687408447,0.4731783866882324
-0.11932373046875,0.2230350524187088,-0.0311335232108831,-0.4725486040115356,-0.1642724275588989,0.0478131882846355,0.0,0.0,0.6772842407226562,0.3874034881591797
-0.1193846687674522,0.2134173065423965,-0.0087471278384327,-0.4271639585494995,-0.161623015999794,0.0529882609844207,0.0,0.0,-0.5921185612678528,-0.3656234741210937
-0.1194471344351768,0.2035451233386993,-0.0087672006338834,-0.438494324684143,-0.1591008156538009,0.0504442676901817,0.0,0.0,0.5194296836853027,-0.5410482883453369
-0.1195583343505859,0.1945462822914123,-0.0143134351819753,-0.3996129930019378,-0.1559136509895324,0.0637432113289833,0.0,0.0,-0.7701677083969116,-0.1846626996994018
-0.1196708679199218,0.1852927953004837,-0.0143328253179788,-0.4109432995319366,-0.1528292149305343,0.0616885647177696,0.0,0.0,-0.2763876914978027,0.2960734367370605
-0.1197843551635742,0.1757847666740417,-0.0143518466502428,-0.4222733080387115,-0.1498345881700515,0.0598924532532691,0.0,0.0,0.6277809143066406,0.486328125
-0.1198692321777343,0.1671345978975296,-0.0110373571515083,-0.3841975033283233,-0.1472934782505035,0.0508222356438636,0.0,0.0,-0.5522235631942749,-0.8199190497398376
-0.1200219169259071,0.1582419723272323,-0.0194690264761447,-0.3948175311088562,-0.1431091129779815,0.0836874693632125,0.0,0.0,-0.2693140506744385,0.1430690288543701
-0.120175264775753,0.1490948498249054,-0.0194872021675109,-0.406147688627243,-0.1389733552932739,0.0827153846621513,0.0,0.0,0.8119996786117554,0.7107058763504028
-0.12037143856287,0.1405702233314514,-0.0218960307538509,-0.3786582052707672,-0.1367015540599823,0.0454364567995071,0.0,0.0,0.4232053756713867,-0.8695505261421204
-0.1204488724470138,0.1327089220285415,-0.0118624046444892,-0.3490200936794281,-0.1325927078723907,0.0821772962808609,0.0,0.0,0.1069918870925903,0.3544735908508301
-0.1204530745744705,0.1249523982405662,-0.0047268960624933,-0.3443579375743866,-0.1282982975244522,0.0858882516622543,0.0,0.0,0.086847186088562,0.189794659614563
-0.1202982887625694,0.1176695227622985,0.0106995198875665,-0.3232795000076294,-0.1235520467162132,0.0949249789118766,0.0,0.0,0.0628845691680908,0.3447349071502685
-0.1200965866446495,0.1108778789639473,0.0154447183012962,-0.3014646470546722,-0.1188482567667961,0.094075858592987,0.0,0.0,0.1700348854064941,0.4721189737319946
-0.1197224631905555,0.1047150194644928,0.0321690514683723,-0.2734965682029724,-0.113636203110218,0.1042409911751747,0.0,0.0,-0.1198369860649108,0.5062599182128906
-0.1193030327558517,0.0982898101210594,0.0377808511257171,-0.285252571105957,-0.1095063239336013,0.0825979262590408,0.0,0.0,-0.0509814023971557,-0.2353572845458984
-0.1188831329345703,0.0916098952293396,0.0377648174762725,-0.2965814173221588,-0.1053053811192512,0.0840189754962921,0.0,0.0,0.5818510055541992,0.6825592517852783
-0.1182658225297927,0.0857874229550361,0.0586447529494762,-0.2585629522800445,-0.1022459492087364,0.0611884966492652,0.0,0.0,-0.3892273902893066,0.4526643753051758
-0.1176477447152137,0.0797101110219955,0.0586292929947376,-0.2698909640312195,-0.0990858152508735,0.0632025450468063,0.0,0.0,-0.2140367031097412,0.5958156585693359
-0.1169910430908203,0.0733732283115387,0.0633126199245452,-0.2814848124980926,-0.0967568382620811,0.0465795435011386,0.0,0.0,0.1127095222473144,0.5179224014282227
-0.1163538917899131,0.0673055052757263,0.0624655596911907,-0.2695979177951813,-0.0955114066600799,0.0249084644019603,0.0,0.0,0.1070137023925781,0.1902116537094116
-0.1156936660408973,0.0615486949682235,0.0646851882338523,-0.2557707726955414,-0.0941897705197334,0.0264327228069305,0.0,0.0,0.5129801034927368,-0.027705430984497
-0.1149623841047287,0.0562631003558635,0.0715234130620956,-0.2348165959119796,-0.0926018580794334,0.0317585580050945,0.0,0.0,0.3937824964523315,0.0316799879074096
-0.1140917763113975,0.0511602498590946,0.0847716554999351,-0.22665336728096,-0.0903350859880447,0.0453352630138397,0.0,0.0,0.4091284275054931,-0.2532488107681274
-0.1130840331315994,0.046662364155054,0.0979121550917625,-0.199735626578331,-0.0875021964311599,0.0566578097641468,0.0,0.0,0.5909092426300049,0.3135195970535278
-0.1119825392961502,0.0430669896304607,0.1069802790880203,-0.1596123427152633,-0.0843641683459281,0.0627605393528938,0.0,0.0,-0.5138596892356873,-0.1387562751770019
