x_pos,y_pos,x_vel,y_vel,angle,ang_vel,leg_1,leg_2,main_booster,lat_booster
-0.0015725136036053,1.403493881225586,-0.1595238745212555,-0.3300524055957794,0.0020375768654048,0.0402137748897075,0.0,0.0,-0.3794800043106079,0.1884685754776001
-0.0031944275833666,1.3959603309631348,-0.1644461452960968,-0.3348268270492553,0.0042666122317314,0.0445857308804988,0.0,0.0,-0.1237102746963501,0.9315335750579834
-0.0047761918976902,1.3882896900177002,-0.15841905772686,-0.3409212827682495,0.0044978954829275,0.0046261665411293,0.0,0.0,-0.4842600226402282,0.4186588525772095
-0.0064074518159031,1.380488395690918,-0.1636240035295486,-0.3467267751693725,0.0049931560643017,0.0099061857908964,0.0,0.0,-0.0902899503707885,0.8153972625732422
-0.0080102924257516,1.3725595474243164,-0.1590857654809951,-0.3523829579353332,0.0038030655123293,-0.0238037202507257,0.0,0.0,0.0352480411529541,0.7710565328598022
-0.0095034595578908,1.3650107383728027,-0.1469254046678543,-0.3355020880699157,0.0014355983585119,-0.0473537854850292,0.0,0.0,-0.3415302038192749,0.6054763793945312
-0.0110002513974905,1.3573315143585205,-0.146418958902359,-0.3413033485412597,-0.001791930058971,-0.0645565092563629,0.0,0.0,-0.3166965842247009,0.4619110822677612
-0.0125466343015432,1.3495217561721802,-0.151678055524826,-0.3471037745475769,-0.0047156424261629,-0.0584797486662864,0.0,0.0,-0.6228679418563843,0.3339834213256836
-0.0141425132751464,1.3415817022323608,-0.1569505035877227,-0.3529060482978821,-0.0073264809325337,-0.0522213764488697,0.0,0.0,-0.4630838632583618,0.8129303455352783
-0.015723992139101,1.3335154056549072,-0.15420962870121,-0.3585222363471985,-0.0112230498343706,-0.0779386162757873,0.0,0.0,0.1208566427230835,0.4389001131057739
-0.0172919277101755,1.3259227275848389,-0.1534778177738189,-0.3374814093112945,-0.0145097384229302,-0.0657394528388977,0.0,0.0,-0.6489781737327576,0.4926248788833618
-0.0189095493406057,1.3181993961334229,-0.1587787568569183,-0.3432889282703399,-0.0174561571329832,-0.0589335337281227,0.0,0.0,0.1107227802276611,0.1061505079269409
-0.0204809196293354,1.3110486268997192,-0.1549249142408371,-0.3178402781486511,-0.0196389202028512,-0.0436595119535923,0.0,0.0,-0.5496246218681335,0.6412956714630127
-0.0220454223453998,1.3037595748901367,-0.1531801372766494,-0.3240063786506653,-0.0228819362819194,-0.0648661777377128,0.0,0.0,-0.3769898414611816,-0.394316554069519
-0.0236595161259174,1.296339988708496,-0.158499002456665,-0.3298058807849884,-0.0257577877491712,-0.0575223788619041,0.0,0.0,-0.7075527310371399,0.5567351579666138
-0.0252712257206439,1.2887812852859497,-0.1573232114315033,-0.3360104262828827,-0.0295657739043235,-0.076166421175003,0.0,0.0,-0.1603318452835083,0.0647869110107421
-0.0269323345273733,1.2810921669006348,-0.1626475304365158,-0.3418131172657013,-0.0329909063875675,-0.0685088485479354,0.0,0.0,-0.2143167853355407,-0.0824267864227294
-0.0286426544189453,1.2732723951339722,-0.1679752320051193,-0.3476155996322632,-0.0360265783965587,-0.0607184581458568,0.0,0.0,0.195097804069519,0.4783966541290283
-0.0303112026304006,1.266188621520996,-0.1645224541425705,-0.3148924112319946,-0.038336481899023,-0.0462019965052604,0.0,0.0,-0.8275533318519592,0.7240064144134521
-0.031979463994503,1.258970856666565,-0.1636442244052887,-0.3208752870559692,-0.041488729417324,-0.0630506798624992,0.0,0.0,-0.1100029349327087,-0.0712178349494934
-0.0336969383060932,1.2516225576400757,-0.1689718812704086,-0.3266739845275879,-0.044229682534933,-0.0548236556351184,0.0,0.0,-0.6453747153282166,0.3659628629684448
-0.035463523119688,1.2441434860229492,-0.174299269914627,-0.3324748277664184,-0.0465537905693054,-0.0464866124093532,0.0,0.0,-0.9120808243751526,0.7569187879562378
-0.0372061729431152,1.2365275621414185,-0.1705102622509002,-0.3386060893535614,-0.0502843558788299,-0.0746179819107055,0.0,0.0,-0.933336853981018,0.2755560874938965
-0.0389978401362896,1.2287808656692505,-0.175826758146286,-0.3444083631038666,-0.0535848587751388,-0.06601582467556,0.0,0.0,-0.9661211967468262,0.2854217290878296
-0.0408381447196006,1.2209036350250244,-0.1811394840478897,-0.3502102196216583,-0.0564508065581321,-0.0573240891098976,0.0,0.0,-0.9454118609428406,0.7612888813018799
-0.0426821708679199,1.2128742933273315,-0.1807911098003387,-0.3570000827312469,-0.0600243285298347,-0.0714703798294067,0.0,0.0,-0.8962666392326355,0.6465897560119629
-0.0445232391357421,1.2047137022018433,-0.1796324551105499,-0.3628785312175751,-0.0644475072622299,-0.0884635224938392,0.0,0.0,-0.986278235912323,0.3392221927642822
-0.0464127548038959,1.196422457695007,-0.1849300563335418,-0.3686780631542206,-0.0684214904904365,-0.0794794335961341,0.0,0.0,-0.7768328785896301,0.7093327045440674
-0.048306368291378,1.1880018711090088,-0.1846856921911239,-0.3744687438011169,-0.0730468183755874,-0.0925065204501152,0.0,0.0,-0.9753118753433228,0.9225691556930542
-0.0501779541373252,1.1794395446777344,-0.1811590641736984,-0.3808522522449493,-0.078988641500473,-0.1188364848494529,0.0,0.0,-0.6071622371673584,0.9211921691894532
-0.0520219802856445,1.1707483530044556,-0.1769635528326034,-0.386688232421875,-0.0863580852746963,-0.1473889201879501,0.0,0.0,-0.85602867603302,0.4343531131744385
-0.0539137832820415,1.1619266271591189,-0.1822101771831512,-0.3924897015094757,-0.0932626202702522,-0.1380906403064727,0.0,0.0,-0.92180734872818,0.9550459384918212
-0.0557875633239746,1.1529746055603027,-0.1792368441820144,-0.3984013497829437,-0.101338505744934,-0.1615175306797027,0.0,0.0,-0.4723151922225952,0.4574500322341919
-0.0577086433768272,1.1438920497894287,-0.1844493150711059,-0.4042030572891235,-0.1089430674910545,-0.1520912796258926,0.0,0.0,-0.8944023847579956,0.7397576570510864
-0.0596170425415039,1.1346710920333862,-0.1821311265230178,-0.4104825258255005,-0.1175883784890174,-0.17290660738945,0.0,0.0,-0.7352043390274048,0.8871150016784668
-0.0614999756217002,1.1253139972686768,-0.1782381534576416,-0.4167006611824035,-0.1275780797004699,-0.1997945308685302,0.0,0.0,-0.9675416350364684,0.4424175024032593
-0.0634293556213378,1.1158267259597778,-0.1833872199058532,-0.4225041270256042,-0.1370885670185089,-0.1902098059654235,0.0,0.0,-0.8556223511695862,0.4933083057403564
-0.0654050856828689,1.1062092781066897,-0.1885111480951309,-0.4283064007759094,-0.1461176425218582,-0.1805815994739532,0.0,0.0,-0.3694443106651306,0.9689784049987792
-0.0673547759652137,1.0964564085006714,-0.1846054792404174,-0.4345071613788605,-0.156468853354454,-0.2070242166519165,0.0,0.0,-0.5742003917694092,0.8100137710571289
-0.0692837685346603,1.086559176445007,-0.1813436448574066,-0.4411395788192749,-0.1680315285921096,-0.2312538921833038,0.0,0.0,-0.7407330870628357,0.895716667175293
-0.0711997970938682,1.07652485370636,-0.1790814697742462,-0.447429209947586,-0.1805792599916458,-0.250954657793045,0.0,0.0,-0.4467673301696777,0.1934003829956054
-0.0731606483459472,1.0663609504699707,-0.1840853542089462,-0.4532351493835449,-0.1926389187574386,-0.2411932498216629,0.0,0.0,-0.2132349610328674,0.8580625057220459
-0.0750901252031326,1.0560355186462402,-0.1794587820768356,-0.4607166945934295,-0.2062166780233383,-0.2715553343296051,0.0,0.0,-0.6973299384117126,0.0170837640762329
-0.0770635604858398,1.0455806255340576,-0.1843881458044052,-0.466523677110672,-0.2193043231964111,-0.2617529928684234,0.0,0.0,-0.1160846352577209,0.260532021522522
-0.0790806785225868,1.0349957942962646,-0.1892754733562469,-0.4723290503025055,-0.2319011986255645,-0.2519371807575226,0.0,0.0,-0.8674618005752563,-0.7348102927207947
-0.0811944976449012,1.024292230606079,-0.2007932364940643,-0.477424144744873,-0.2426442950963974,-0.2148623019456863,0.0,0.0,-0.503865659236908,-0.0211431384086608
-0.0833509415388107,1.0134578943252563,-0.2055864781141281,-0.4832239151000976,-0.2528958916664123,-0.2050321847200393,0.0,0.0,-0.5238012671470642,-0.7505174875259399
-0.0856164917349815,1.0025265216827393,-0.2187597006559372,-0.4871998429298401,-0.2608486115932464,-0.1590542495250702,0.0,0.0,-0.5240308046340942,-0.1513288021087646
-0.0879239067435264,0.9914638996124268,-0.2234455347061157,-0.4929946362972259,-0.2683098614215851,-0.1492252647876739,0.0,0.0,-0.2018222212791443,-0.9262396693229676
-0.0903460532426834,0.980296790599823,-0.237303540110588,-0.4972198605537414,-0.2733404636383056,-0.1006122604012489,0.0,0.0,0.8307514190673828,0.7918820381164551
-0.0924107581377029,0.9698159694671632,-0.2008204013109207,-0.466880589723587,-0.2791328430175781,-0.1158472895622253,0.0,0.0,0.5747735500335693,0.0941394567489624
-0.0943748503923416,0.9602385759353638,-0.1909983456134796,-0.426710307598114,-0.2846892178058624,-0.111127458512783,0.0,0.0,-0.6034780144691467,0.4576948881149292
-0.0963783264160156,0.9505289793014526,-0.1954270452260971,-0.4325015842914581,-0.2897566258907318,-0.1013479381799697,0.0,0.0,-0.1608443260192871,0.0189415216445922
-0.0984206199645996,0.9406874775886536,-0.1997813731431961,-0.4382922351360321,-0.294336199760437,-0.091591477394104,0.0,0.0,0.1826239824295044,-0.39473956823349
-0.1002975478768348,0.9311684370040894,-0.1842019259929657,-0.4237820506095886,-0.2979359924793243,-0.0719956681132316,0.0,0.0,-0.6671473979949951,-0.5055724382400513
-0.1022562980651855,0.921535074710846,-0.1940014511346817,-0.4285282790660858,-0.2998618185520172,-0.0385167710483074,0.0,0.0,-0.6889529824256897,-0.7076780796051025
-0.1042948737740516,0.9117964506149292,-0.2036466300487518,-0.4328719973564148,-0.3000831007957458,-0.0044258930720388,0.0,0.0,-0.0163842439651489,-0.7027387619018555
-0.1064091697335243,0.9019470810890198,-0.2127437144517898,-0.4374786019325256,-0.298718512058258,0.0272916406393051,0.0,0.0,-0.1858227849006652,-0.6022955179214478
-0.1085963249206543,0.8919895887374878,-0.2215466052293777,-0.4419752359390259,-0.2957959473133087,0.0584515705704689,0.0,0.0,-0.1691458225250244,0.1828672885894775
-0.1108169555664062,0.8819000124931335,-0.2253595888614654,-0.4477645754814148,-0.2923973202705383,0.067972257733345,0.0,0.0,0.3199950456619262,0.1219446659088134
-0.112945556640625,0.872085452079773,-0.2168034762144088,-0.4354165196418762,-0.2883363366127014,0.0812194198369979,0.0,0.0,0.3920298814773559,0.1608085632324218
-0.1150184646248817,0.8630247116088867,-0.2113111019134521,-0.4019073247909546,-0.2841961979866028,0.0828025341033935,0.0,0.0,-0.4490758180618286,0.2337443828582763
-0.1171215027570724,0.8538321256637573,-0.2147887647151947,-0.4076979756355285,-0.2795894742012024,0.0921345949172973,0.0,0.0,0.0245101451873779,-0.0203824639320373
-0.1191346198320388,0.8450493216514587,-0.2063156366348266,-0.3893899619579315,-0.2744522988796234,0.1027426272630691,0.0,0.0,-0.7480724453926086,0.111849308013916
-0.1211753860116005,0.8361349701881409,-0.2095452845096588,-0.3951819837093353,-0.268856406211853,0.1119179353117942,0.0,0.0,-0.797821044921875,0.7489511966705322
-0.1231974586844444,0.827070415019989,-0.2069376409053802,-0.4020031690597534,-0.2640110850334167,0.0969064980745315,0.0,0.0,-0.6555728316307068,0.4372334480285644
-0.1252446174621582,0.8178741931915283,-0.2098999768495559,-0.4077955484390259,-0.2587161958217621,0.1058976277709007,0.0,0.0,-0.9664484262466432,0.5261746644973755
-0.1272712647914886,0.80852210521698,-0.2070868462324142,-0.4148717522621155,-0.2541921138763428,0.0904818773269653,0.0,0.0,-0.4555343985557556,-0.2859765291213989
-0.1293201446533203,0.7990383505821228,-0.2097643166780471,-0.4206644594669342,-0.2492291927337646,0.0992585122585296,0.0,0.0,-0.5603886842727661,0.2560528516769409
-0.13139009475708,0.7894230484962463,-0.2122935354709625,-0.426457792520523,-0.2438334077596664,0.1079158335924148,0.0,0.0,-0.9353861808776855,-0.0102934837341308
-0.133479505777359,0.7796762585639954,-0.2146708071231842,-0.4322518110275268,-0.2380111515522003,0.1164451017975807,0.0,0.0,-0.3505878448486328,-0.2962613105773926
-0.1355870217084884,0.7697981595993042,-0.2168928682804107,-0.4380465447902679,-0.2317692935466766,0.1248373016715049,0.0,0.0,-0.3609087467193603,0.3864257335662842
-0.1377108544111251,0.7597888708114624,-0.2189568281173706,-0.4438420832157135,-0.2251151353120803,0.1330830752849578,0.0,0.0,-0.027900755405426,0.1171896457672119
-0.1398497521877288,0.74964839220047,-0.2208601236343383,-0.4496384263038635,-0.2180565148591995,0.1411724239587783,0.0,0.0,0.2436397075653076,0.6198680400848389
-0.141918659210205,0.7397965788841248,-0.2129874676465988,-0.4369739294052124,-0.2119009643793106,0.1231112107634544,0.0,0.0,0.3319137096405029,0.7630355358123779
-0.1438263952732086,0.7301515340805054,-0.1958083659410476,-0.427956759929657,-0.2068190425634384,0.1016383171081543,0.0,0.0,-0.8467912077903748,-0.3316291570663452
-0.1457444131374359,0.7203752398490906,-0.1972175389528274,-0.4337526559829712,-0.2013593018054962,0.1091949567198753,0.0,0.0,0.3607306480407715,0.2583763599395752
-0.1475471556186676,0.7114301323890686,-0.1860356777906417,-0.3967892527580261,-0.1955637037754058,0.11591187864542,0.0,0.0,-0.7958014011383057,0.485079288482666
-0.1493571251630783,0.7023541331291199,-0.1871112287044525,-0.4025864899158478,-0.1894109398126602,0.1230551600456237,0.0,0.0,-0.3670462965965271,0.031768798828125
-0.1511725485324859,0.6931471824645996,-0.1880199015140533,-0.4083844423294067,-0.1829122751951217,0.1299729198217392,0.0,0.0,0.3423929214477539,0.9362397193908693
-0.1529906243085861,0.6842096447944641,-0.1866566687822342,-0.3966331779956817,-0.1780468374490738,0.0973089188337326,0.0,0.0,0.1422576904296875,0.7063500881195068
-0.1546276062726974,0.6759308576583862,-0.167494386434555,-0.3674929738044739,-0.1742382943630218,0.076170727610588,0.0,0.0,-0.9481101036071776,0.880889892578125
-0.1562085151672363,0.6675059795379639,-0.1607410758733749,-0.3741341233253479,-0.1715903282165527,0.0529590249061584,0.0,0.0,-0.9809015989303588,0.9432499408721924
-0.1577219069004058,0.6589365005493164,-0.1525561362504959,-0.3807263970375061,-0.1703640967607498,0.0245243441313505,0.0,0.0,-0.9843475818634032,-0.8329085111618042
-0.1592989861965179,0.6502570509910583,-0.1609127223491668,-0.3853832185268402,-0.1671541035175323,0.0641998872160911,0.0,0.0,-0.5483178496360779,0.6087623834609985
-0.1608183830976486,0.6414331793785095,-0.1540201008319854,-0.3919435441493988,-0.1650763154029846,0.0415557399392128,0.0,0.0,-0.9665005207061768,0.9826195240020752
-0.1622547209262848,0.6324487328529358,-0.1438997536897659,-0.3992765247821808,-0.164802148938179,0.0054831937886774,0.0,0.0,-0.964950442314148,0.0716935396194458
-0.1636849343776703,0.623333215713501,-0.1435282230377197,-0.4050735831260681,-0.1642975062131881,0.0100928954780101,0.0,0.0,-0.7788277268409729,-0.1653792858123779
-0.1651078164577484,0.6140869855880737,-0.1430095136165619,-0.4108709692955017,-0.1635801345109939,0.014347200281918,0.0,0.0,-0.7909036874771118,0.8318233489990234
-0.1664430648088455,0.6046835780143738,-0.1323784738779068,-0.4180530309677124,-0.1647236198186874,-0.0228699184954166,0.0,0.0,-0.9875043034553528,-0.2931036949157715
-0.1677685678005218,0.5951493382453918,-0.1315770447254181,-0.4238509833812713,-0.1656921505928039,-0.0193705502897501,0.0,0.0,-0.992670476436615,-0.7540420293807983
-0.1691382378339767,0.5855039358139038,-0.1375842541456222,-0.4286173582077026,-0.1650697141885757,0.0124488119035959,0.0,0.0,-0.8698368072509766,0.9853699207305908
-0.1704027205705642,0.5757082104682922,-0.1248270124197006,-0.4355473518371582,-0.1666923314332962,-0.0324523411691188,0.0,0.0,-0.9921091198921204,0.4263147115707397
-0.1716541349887848,0.5657817721366882,-0.1236335784196853,-0.4413462579250335,-0.1682017892599105,-0.030189162120223,0.0,0.0,-0.8759740591049194,-0.0022546648979187
-0.1728914231061935,0.555724561214447,-0.1223185285925865,-0.4471454620361328,-0.1696199029684066,-0.0283626802265644,0.0,0.0,-0.6158168911933899,0.6467900276184082
-0.1740554869174957,0.5455296635627747,-0.1135786026716232,-0.4534305930137634,-0.1724424660205841,-0.0564512982964515,0.0,0.0,-0.0512890219688415,0.6547677516937256
-0.1751544922590255,0.5351912379264832,-0.1058786734938621,-0.4599559605121612,-0.1764804422855377,-0.0807595252990722,0.0,0.0,-0.3318824172019958,-0.2035011053085327
-0.1762368232011795,0.5247225761413574,-0.1042274609208107,-0.4657572507858276,-0.1804955005645752,-0.0803009420633316,0.0,0.0,-0.6761944890022278,-0.6390408277511597
-0.1773436516523361,0.5141382813453674,-0.1077763065695762,-0.4707682430744171,-0.1834127604961395,-0.0583454556763172,0.0,0.0,0.0789488554000854,0.7245994806289673
-0.1783251762390136,0.5041468143463135,-0.0937525182962417,-0.4446154236793518,-0.187837153673172,-0.0884878039360046,0.0,0.0,0.0945847034454345,-0.975130021572113
-0.1793341636657714,0.4948029816150665,-0.0984094366431236,-0.4155996441841125,-0.1903329342603683,-0.0499156862497329,0.0,0.0,0.0362353324890136,0.3772535324096679
-0.1802796423435211,0.4857933521270752,-0.0919263884425163,-0.4007679522037506,-0.1929730623960495,-0.0528021343052387,0.0,0.0,-0.8787665367126465,-0.3723682165145874
-0.1812048852443695,0.476653516292572,-0.0898094549775123,-0.4065703451633453,-0.1957091391086578,-0.0547215119004249,0.0,0.0,-0.1615067720413208,-0.6462531089782715
-0.1821722090244293,0.4674007594585418,-0.0955013483762741,-0.4113966524600982,-0.1969436258077621,-0.0246898550540208,0.0,0.0,0.1913099288940429,-0.6110924482345581
-0.1829803436994552,0.4587728977203369,-0.0808083862066268,-0.3834622204303741,-0.1969539225101471,-0.0002057062520179,0.0,0.0,0.1382327079772949,0.2385792732238769
-0.1836755722761154,0.4503764510154724,-0.0695418491959571,-0.3731715083122253,-0.1969349235296249,0.0003801122657023,0.0,0.0,-0.9386764764785768,-0.4652967453002929
-0.1843486726284027,0.4418500363826751,-0.0671354234218597,-0.3789748847484588,-0.1971047818660736,-0.0033971588127315,0.0,0.0,-0.3750226497650146,-0.2762366533279419
-0.1849990785121917,0.4331936538219452,-0.0646676644682884,-0.384778618812561,-0.1974856555461883,-0.0076174973510205,0.0,0.0,-0.03431236743927,-0.6054673790931702
-0.1856614053249359,0.4244249761104584,-0.0665506869554519,-0.3896762132644653,-0.1971661895513534,0.0063893995247781,0.0,0.0,0.070953369140625,-0.2908357977867126
-0.1861782968044281,0.4160645604133606,-0.051989197731018,-0.3715338408946991,-0.1968714445829391,0.005894842557609,0.0,0.0,0.2770826816558838,0.6176062822341919
-0.1865056008100509,0.4084962904453277,-0.0315124355256557,-0.3365279138088226,-0.1980976611375808,-0.0245239306241273,0.0,0.0,0.288927674293518,-0.6209878325462341
-0.1866842210292816,0.4017063677310943,-0.0176900923252105,-0.3017984926700592,-0.1982724368572235,-0.003495602402836,0.0,0.0,-0.7816827297210693,-0.5489106178283691
-0.1868761032819748,0.394795149564743,-0.019642885774374,-0.307103157043457,-0.197805643081665,0.0093354424461722,0.0,0.0,-0.7051347494125366,-0.5503463745117188
-0.1870947778224945,0.3877706229686737,-0.0233286805450916,-0.3120062947273254,-0.1963376402854919,0.0293604619801044,0.0,0.0,-0.7729142308235168,-0.2987748384475708
-0.1872890442609787,0.380616545677185,-0.0205453671514987,-0.3178124129772186,-0.1952160745859146,0.0224317349493503,0.0,0.0,-0.7341248393058777,0.2771837711334228
-0.187458798289299,0.3733328878879547,-0.0177321694791317,-0.3236187100410461,-0.1944570094347,0.0151812406256794,0.0,0.0,-0.1244975328445434,0.2001855373382568
-0.1876039505004882,0.3659197092056274,-0.0148926619440317,-0.3294251561164856,-0.1940757036209106,0.0076262494549155,0.0,0.0,-0.371467113494873,0.4382098913192749
-0.187724307179451,0.3583769798278808,-0.0120303323492407,-0.3352317810058594,-0.1940865218639373,-0.0002160558215109,0.0,0.0,0.4234098196029663,0.1924109458923339
-0.1876238882541656,0.3515476286411285,0.0100691765546798,-0.3035312592983246,-0.1941145658493042,-0.0005608039209619,0.0,0.0,-0.9076936841011048,-0.4484122991561889
-0.1874986588954925,0.3445888459682464,0.0129669560119509,-0.3093383014202118,-0.1945609301328659,-0.0089273899793624,0.0,0.0,-0.8142315745353699,-0.0110372900962829
