x_pos,y_pos,x_vel,y_vel,angle,ang_vel,leg_1,leg_2,main_booster,lat_booster
-0.0015454292297363,1.4034793376922607,-0.1561279147863388,-0.3307016491889953,0.0014148572226986,0.0278836730867624,0.0,0.0,0.1329060928154821,-0.8558930064873471
-0.0031393051613122,1.3963868618011477,-0.1621433198451995,-0.3152271807193756,0.00414514914155,0.0546115934848785,0.0,0.0,-0.0208514876510768,0.8326959985529563
-0.0046750069595873,1.3891431093215942,-0.1539364159107208,-0.3219464719295501,0.0045021823607385,0.0071416338905692,0.0,0.0,0.9607564947027872,0.8449940977774334
-0.0063231466338038,1.3826402425765991,-0.1627770364284515,-0.2890107035636902,0.0024850063491612,-0.0403471812605857,0.0,0.0,0.584073692754908,-0.8984283526075965
-0.0079262731596827,1.3769330978393557,-0.1599342972040176,-0.2536537945270538,0.0021088640205562,-0.0075236461125314,0.0,0.0,0.2543285040411176,0.7030111740243612
-0.0093796728178858,1.3716987371444702,-0.143388956785202,-0.2326391339302063,0.0001775060663931,-0.0386308878660202,0.0,0.0,0.0429419115712199,0.8502698775517576
-0.010804271325469,1.3668659925460815,-0.1384622156620025,-0.2147877961397171,-0.0037789598572999,-0.0791367292404174,0.0,0.0,-0.9245420705714318,0.9097366138501924
-0.0121607780456542,1.3618907928466797,-0.1290337145328521,-0.2211526334285736,-0.0103129213675856,-0.1306913793087005,0.0,0.0,0.0487248299117299,-0.6402320841732392
-0.013591575436294,1.3575756549835205,-0.1374290883541107,-0.1918354481458664,-0.0159127805382013,-0.1120074167847633,0.0,0.0,0.3777989692345087,0.6026904461957009
-0.0149869918823242,1.3540270328521729,-0.1323419064283371,-0.1578113138675689,-0.0230255778878927,-0.1422690004110336,0.0,0.0,0.1105312501940178,0.7859512492505064
-0.0162651054561138,1.3509292602539062,-0.1187824010848999,-0.1378349661827087,-0.0319516249001026,-0.1785372495651245,0.0,0.0,0.3338952707125246,0.7337990292632947
-0.0174283031374216,1.3483198881149292,-0.1056291088461875,-0.1162312254309654,-0.042532991617918,-0.2116470038890838,0.0,0.0,-0.3675765404924045,0.9231599746309004
-0.0185232162475585,1.3455663919448853,-0.0962540805339813,-0.1228000447154045,-0.055631760507822,-0.2619991898536682,0.0,0.0,0.9317534747865004,0.6307014356510243
-0.0194791797548532,1.3432754278182983,-0.0810606330633163,-0.1024262905120849,-0.0700275674462318,-0.2879428267478943,0.0,0.0,-0.3626343235133207,-0.6112917130596711
-0.0204913131892681,1.34085214138031,-0.0873604565858841,-0.1084041967988014,-0.0837651416659355,-0.2747761905193329,0.0,0.0,0.3961216246520964,-0.6911049036710666
-0.0214545242488384,1.338647723197937,-0.0837869495153427,-0.0987223163247108,-0.0962098315358161,-0.2489167153835296,0.0,0.0,0.6367127670247699,0.6267422167008564
-0.0221588127315044,1.3375447988510132,-0.0567551478743553,-0.0499542318284511,-0.1097974628210067,-0.2717772424221039,0.0,0.0,-0.8403280997800637,-0.8218588654507275
-0.022931957617402,1.3363003730773926,-0.0646650344133377,-0.0562873892486095,-0.1223811358213424,-0.2516961395740509,0.0,0.0,-0.7891390897596737,-0.950123359883138
-0.0237855911254882,1.3349334001541138,-0.0740991085767746,-0.0617126412689685,-0.1336060315370559,-0.2245180308818817,0.0,0.0,-0.6139421063217578,-0.9395510946361444
-0.0247412677854299,1.333439588546753,-0.0862275958061218,-0.0672612637281417,-0.1429284662008285,-0.1864656209945678,0.0,0.0,-0.8276674220049554,-0.8844409620821556
-0.0257694236934185,1.3318198919296265,-0.0946579948067665,-0.0727837532758712,-0.1510672867298126,-0.162791445851326,0.0,0.0,0.7230990343579373,-0.8254755301915438
-0.0267977714538574,1.3307474851608276,-0.0961799398064613,-0.0483475215733051,-0.1577339917421341,-0.1333458870649337,0.0,0.0,0.0272798959969344,0.7135727251065227
-0.0276438705623149,1.3299963474273682,-0.0763984695076942,-0.0342727154493331,-0.1659494787454605,-0.1643242835998535,0.0,0.0,-0.3858915048046314,0.6200056893436712
-0.0284543987363576,1.3290810585021973,-0.0712985917925834,-0.0417946092784404,-0.1757293790578842,-0.1956156939268112,0.0,0.0,0.0058885950795102,0.9343984766066048
-0.0292428024113178,1.3286117315292358,-0.0671247094869613,-0.0222893580794334,-0.1875024139881134,-0.2354818135499954,0.0,0.0,-0.91702863575779,-0.7889913952030843
-0.0301261898130178,1.3280037641525269,-0.0784464702010154,-0.0283058229833841,-0.1974570006132125,-0.1990915983915329,0.0,0.0,-0.1959525411836464,0.7135488155048824
-0.0309700965881347,1.3272401094436646,-0.0729457288980484,-0.0355043299496173,-0.2089900374412536,-0.2306611090898513,0.0,0.0,-0.937048130145941,0.6065477983307764
-0.0317926406860351,1.326328158378601,-0.0697681084275245,-0.042345467954874,-0.2215998470783233,-0.2521961033344269,0.0,0.0,0.0704549449106639,0.6377278181925061
-0.0325635895133018,1.3260282278060913,-0.0631742104887962,-0.0154876802116632,-0.2357159107923507,-0.2823211848735809,0.0,0.0,0.6656368329885558,-0.9649875808162224
-0.0333328247070312,1.326333999633789,-0.0648184120655059,0.0116105051711201,-0.2480185031890869,-0.2460519969463348,0.0,0.0,0.7866617883123865,-0.8356572071559161
-0.0339326858520507,1.327853441238403,-0.049537930637598,0.0657236650586128,-0.2586706876754761,-0.2130437642335891,0.0,0.0,0.2820736824317347,-0.9303031240307896
-0.0345993041992187,1.329771876335144,-0.0579643733799457,0.0837080255150795,-0.2675559222698211,-0.1777053028345108,0.0,0.0,-0.1754092794649597,0.7857572342907402
-0.0352267250418663,1.3315327167510986,-0.0526786856353282,0.0763800963759422,-0.2778685986995697,-0.2062538415193557,0.0,0.0,-0.5101674614447276,-0.8857209131378773
-0.0359431281685829,1.3331736326217651,-0.0634765923023223,0.07135621458292,-0.2862504720687866,-0.16763736307621,0.0,0.0,0.6421113048680012,-0.9665764000963644
-0.0365511886775493,1.3355937004089355,-0.0545622520148754,0.1063244715332984,-0.2926811277866363,-0.1286136358976364,0.0,0.0,0.0224656816280377,-0.6449517167337697
-0.0370716080069541,1.3385627269744873,-0.0470744781196117,0.130943939089775,-0.2978062033653259,-0.1025013551115989,0.0,0.0,0.4029083563994786,-0.8270769630480608
-0.0375770553946495,1.3419768810272217,-0.0471698008477687,0.1510448902845382,-0.301293134689331,-0.0697383731603622,0.0,0.0,0.4744113723180652,0.8095766445833721
-0.0377930626273155,1.3461798429489136,-0.016695600003004,0.1857739090919494,-0.3063656091690063,-0.1014499887824058,0.0,0.0,0.2840435611991692,0.927253078120962
-0.0377832427620887,1.3511674404144287,0.007690105587244,0.2202390283346176,-0.3133192062377929,-0.1390724182128906,0.0,0.0,-0.8884273601266666,0.6079523856721053
-0.0377345085144043,1.3559881448745728,0.0127868875861167,0.2125196605920791,-0.3215431571006775,-0.1644789278507232,0.0,0.0,-0.7579308614629223,-0.9249842714450742
-0.0377735123038291,1.3607122898101809,0.0018215775489807,0.2086743712425232,-0.3274980783462524,-0.1190986782312393,0.0,0.0,-0.8209803104400635,-0.7024286389350891
-0.0378617271780967,1.3653110265731812,-0.0042515345849096,0.2033464163541793,-0.33226478099823,-0.095334343612194,0.0,0.0,-0.6868109107017517,-0.785855770111084
-0.0380073562264442,1.3697818517684937,-0.0113345775753259,0.1979554742574691,-0.335633784532547,-0.0673808678984642,0.0,0.0,-0.7251487970352173,-0.6209986209869385
-0.0381973274052143,1.3741263151168823,-0.016848862171173,0.19258514046669,-0.3378729820251465,-0.0447838529944419,0.0,0.0,-0.7456634640693665,-0.6283328533172607
-0.0384431853890419,1.3783444166183472,-0.0238351840525865,0.1872976720333099,-0.33866748213768,-0.0158900637179613,0.0,0.0,-0.8010876178741455,-0.4908171892166137
-0.0386927612125873,1.38241708278656,-0.0242809522897005,0.1808506846427917,-0.3393716216087341,-0.0140829402953386,0.0,0.0,-0.7766475081443787,-0.6081485748291016
-0.0389862060546875,1.3863625526428225,-0.0298304855823516,0.1754696071147918,-0.3388611674308777,0.01020934805274,0.0,0.0,-0.7475021481513977,-0.4308061599731445
-0.0392812713980674,1.390162467956543,-0.0300933066755533,0.1690231412649154,-0.3382419645786285,0.0123842163011431,0.0,0.0,-0.7875179052352905,-0.6277933120727539
-0.0396323204040527,1.39385187625885,-0.0373219698667526,0.1644933968782425,-0.3359313607215881,0.0462120845913887,0.0,0.0,-0.5763126611709595,0.0684101581573486
-0.0399829857051372,1.3973958492279053,-0.0373977087438106,0.1580469608306884,-0.333495169878006,0.0487235486507415,0.0,0.0,-0.7806996703147888,-0.262309193611145
-0.0403322204947471,1.4007941484451294,-0.0373794957995414,0.1516006737947464,-0.3309255838394165,0.0513915792107582,0.0,0.0,-0.6258931756019592,-0.4272909164428711
-0.0406788811087608,1.404046893119812,-0.0372678153216838,0.1451545059680938,-0.3282151520252228,0.0542084500193595,0.0,0.0,-0.6190665364265442,-0.186356246471405
-0.0410221107304096,1.4071539640426636,-0.0370636731386184,0.1387084275484085,-0.3253568410873413,0.0571665056049823,0.0,0.0,-0.7813431024551392,-0.4329137802124023
-0.0413607582449913,1.4101152420043943,-0.036768551915884,0.1322624385356903,-0.3223439455032348,0.0602582395076751,0.0,0.0,-0.856040894985199,-0.3892696499824524
-0.0416940674185752,1.412930965423584,-0.0363844074308872,0.125816524028778,-0.3191701471805572,0.0634762495756149,0.0,0.0,-0.6462509036064148,-0.1995999813079834
-0.0420210845768451,1.4156007766723633,-0.0359135791659355,0.1193706318736076,-0.3158294856548309,0.0668132975697517,0.0,0.0,-0.7679844498634338,-0.4602383375167846
-0.0423408523201942,1.4181252717971802,-0.035358790308237,0.1129247620701789,-0.312316358089447,0.0702623054385185,0.0,0.0,-0.2915152311325073,-0.2895115613937378
-0.0426525101065635,1.420503854751587,-0.0347230471670627,0.1064788624644279,-0.3086255490779876,0.0738163292407989,0.0,0.0,-0.8412507772445679,0.0430943965911865
-0.042955208569765,1.422736883163452,-0.034009613096714,0.1000329479575157,-0.3047521114349365,0.0774686187505722,0.0,0.0,-0.7449449896812439,-0.1443620324134826
-0.043248176574707,1.4248242378234863,-0.0332219302654266,0.0935869738459587,-0.3006914854049682,0.0812125653028488,0.0,0.0,-0.7481865882873535,-0.1573180556297302
-0.0435306541621685,1.4267657995224,-0.0323635898530483,0.0871409326791763,-0.2964394092559814,0.0850417464971542,0.0,0.0,-0.7352772355079651,-0.3363113403320312
-0.043801974505186,1.428561806678772,-0.0314382500946521,0.0806947872042656,-0.2919918894767761,0.0889498591423034,0.0,0.0,-0.4061877727508545,-0.3866143226623535
-0.0440613739192485,1.4302122592926023,-0.0304496102035045,0.0742485299706459,-0.2873453497886657,0.0929308384656906,0.0,0.0,-0.5112516283988953,0.146848440170288
-0.0443082824349403,1.4317169189453125,-0.02940134704113,0.0678021237254142,-0.2824964225292206,0.0969786792993545,0.0,0.0,-0.6021755933761597,-0.2291572093963623
-0.0445420257747173,1.43307626247406,-0.0282971058040857,0.0613555535674095,-0.2774420380592346,0.1010876074433326,0.0,0.0,-0.5065465569496155,-0.4784597158432007
-0.0447620376944541,1.4342899322509766,-0.0271404348313808,0.0549087971448898,-0.2721794545650482,0.1052519083023071,0.0,0.0,-0.6719710826873779,-0.1302364468574524
-0.0449679382145404,1.4353580474853516,-0.0259347967803478,0.0484618209302425,-0.2667061388492584,0.1094660311937332,0.0,0.0,-0.654465913772583,-0.4317010045051574
-0.0451591499149799,1.4362808465957642,-0.0246835127472877,0.0420146211981773,-0.2610199153423309,0.1137245669960975,0.0,0.0,-0.5353346467018127,-0.1595722436904907
-0.0453352928161621,1.4370582103729248,-0.0233897641301155,0.0355671718716621,-0.2551187872886657,0.1180221661925315,0.0,0.0,-0.7014960050582886,-0.2077207565307617
-0.0454957969486713,1.437690258026123,-0.0220565889030694,0.0291194505989551,-0.2490011006593704,0.1223536282777786,0.0,0.0,-0.7972227931022644,-0.6967600584030151
-0.0457013137638568,1.4382033348083496,-0.0283698234707117,0.0241072103381156,-0.2410404682159423,0.1592124849557876,0.0,0.0,-0.8197359442710876,0.0312662124633789
-0.0458904281258583,1.4385714530944824,-0.0269669592380523,0.0176569614559412,-0.232860654592514,0.1635961234569549,0.0,0.0,-0.6341235041618347,0.0800213813781738
-0.0460628494620323,1.438794732093811,-0.0255327969789505,0.0112062869593501,-0.2244607210159301,0.1679985225200653,0.0,0.0,-0.5670704245567322,0.2885794639587402
-0.046218492090702,1.438873052597046,-0.0240697097033262,0.0047551649622619,-0.2158399671316146,0.1724148541688919,0.0,0.0,-0.4624426364898681,0.5897318124771118
-0.0463144294917583,1.4387879371643066,-0.0172438286244869,-0.002685967599973,-0.2081219404935836,0.1543603986501693,0.0,0.0,-0.0855101943016052,0.5990830659866333
-0.0463423728942871,1.4385353326797483,-0.009336182847619,-0.0103243282064795,-0.201527863740921,0.1318815946578979,0.0,0.0,-0.5744367837905884,-0.0258225202560424
-0.0463526733219623,0.0,-0.0077980617061257,-0.0167736634612083,-0.1947122365236282,0.1363124102354049,0.0,0.0,-0.4241661429405212,0.528389573097229
-0.0463040359318256,1.4375873804092407,-0.0011003190884366,-0.0236826054751873,-0.1887184381484985,0.1198758333921432,0.0,0.0,-0.2889410257339477,0.1221694946289062
-0.0462374687194824,1.436892032623291,0.0004783060867339,-0.0301315691322088,-0.1825037449598312,0.124293565750122,0.0,0.0,-0.6070776581764221,-0.3157188892364502
-0.0461524948477745,1.436051368713379,0.002074662130326,-0.0365808829665184,-0.1760688573122024,0.1286980509757995,0.0,0.0,-0.7317717671394348,-0.39816415309906
-0.0460492148995399,1.435065984725952,0.003687338437885,-0.0430305637419223,-0.169414609670639,0.1330849230289459,0.0,0.0,-0.4331909418106079,0.7443063259124756
-0.0458647720515728,1.4339258670806885,0.0131638497114181,-0.0500760823488235,-0.1641292870044708,0.1057062745094299,0.0,0.0,-0.7934111952781677,0.068493366241455
-0.045661736279726,1.432640552520752,0.0148057537153363,-0.0565249063074588,-0.1586270034313202,0.1100453734397888,0.0,0.0,-0.5548924207687378,-0.5297367572784424
-0.0454847328364849,1.4312231540679932,0.0108160814270377,-0.062271874397993,-0.1517511904239654,0.1375161707401275,0.0,0.0,-0.748772919178009,0.6674530506134033
-0.0452374443411827,1.429652452468872,0.0189386345446109,-0.0692276507616043,-0.1459686309099197,0.1156509146094322,0.0,0.0,-0.661400318145752,0.4881213903427124
-0.0449711792171001,1.4279367923736572,0.0206156633794307,-0.0756773203611373,-0.139974296092987,0.1198867559432983,0.0,0.0,-0.9409375786781312,-0.317486047744751
-0.0446858406066894,1.426076054573059,0.0223025418817996,-0.0821273401379585,-0.1337703168392181,0.124080017209053,0.0,0.0,-0.8727281093597412,0.3485089540481567
-0.0443815216422081,1.4240703582763672,0.0239984635263681,-0.0885777026414871,-0.1273589879274368,0.1282266974449157,0.0,0.0,-0.6840834617614746,0.1682116985321045
-0.0440579429268837,1.4219197034835815,0.0257026795297861,-0.0950284153223037,-0.120742842555046,0.1323228925466537,0.0,0.0,-0.8745834231376648,0.1345386505126953
-0.0437151901423931,1.4196243286132812,0.0274145044386386,-0.1014795005321502,-0.1139246150851249,0.1363647282123565,0.0,0.0,-0.650301456451416,0.7190825939178467
-0.0432968139648437,1.4171795845031738,0.0362007394433021,-0.1082357987761497,-0.1083264276385307,0.1119637936353683,0.0,0.0,-0.7455804347991943,0.4891854524612427
-0.042859174311161,1.4145898818969729,0.0379261448979377,-0.1146861091256141,-0.102532148361206,0.1158857718110084,0.0,0.0,-0.6895598769187927,0.8685142993927002
-0.0423195846378803,1.411845564842224,0.0500333234667778,-0.1217027753591537,-0.0986339226365089,0.0779643729329109,0.0,0.0,-0.7200801372528076,-0.3559846878051758
-0.0417607314884662,1.4089560508728027,0.0517700724303722,-0.1281519532203674,-0.0945463329553604,0.0817518383264541,0.0,0.0,-0.910353422164917,-0.6436111927032471
-0.0412376411259174,1.405927658081055,0.0465825013816356,-0.1342455297708511,-0.0888788625597953,0.11334940046072,0.0,0.0,-0.3308371305465698,0.8598072528839111
-0.0406173691153526,1.4027540683746338,0.0580885633826255,-0.1408174782991409,-0.0849803909659385,0.0779695585370063,0.0,0.0,-0.7968894839286804,-0.7038041353225708
-0.0400355346500873,1.3994427919387815,0.0526040196418762,-0.1468671411275863,-0.0794475749135017,0.1106564849615097,0.0,0.0,-0.3995078802108764,0.9756500720977784
-0.039372731000185,1.3959879875183103,0.062066476792097,-0.1533297896385193,-0.0752802342176437,0.0833466202020645,0.0,0.0,-0.6546437740325928,0.9028358459472656
-0.038608931005001,1.392383337020874,0.074077770113945,-0.1600922644138336,-0.0730000883340835,0.0456029027700424,0.0,0.0,-0.7687764763832092,-0.8632549047470093
-0.0378996841609478,1.3886477947235107,0.0665583536028862,-0.1658103018999099,-0.0686814039945602,0.0863737612962722,0.0,0.0,-0.6419092416763306,0.4432679414749145
-0.0371711738407611,1.3847675323486328,0.0683198720216751,-0.1722604185342788,-0.0642021745443344,0.0895842760801315,0.0,0.0,-0.7317851781845093,0.9914913177490234
-0.0363486297428607,1.3807315826416016,0.079488918185234,-0.1792609691619873,-0.0614602379500865,0.054839052259922,0.0,0.0,-0.7539705634117126,-0.0355547666549682
-0.035506822168827,1.3765504360198977,0.0812542513012886,-0.1857102960348129,-0.0585673339664936,0.057858370244503,0.0,0.0,-0.789609432220459,0.0803135633468627
-0.0346459373831748,1.3722240924835205,0.0830209255218505,-0.1921597570180893,-0.0555284097790718,0.0607783608138561,0.0,0.0,-0.8740216493606567,0.1734769344329834
-0.0337657928466796,1.3677527904510498,0.0847886279225349,-0.1986093521118164,-0.0523485802114009,0.0635967254638671,0.0,0.0,-0.8328295946121216,-0.3491026163101196
-0.0328667648136615,1.3631364107131958,0.0865570306777954,-0.2050590813159942,-0.0490329973399639,0.0663114339113235,0.0,0.0,-0.8230213522911072,-0.088031530380249
-0.0319485664367675,1.358375072479248,0.0883258134126663,-0.2115089446306228,-0.0455869771540164,0.0689205527305603,0.0,0.0,-0.7176834344863892,-0.3849807977676391
-0.0310114864259958,1.3534685373306274,0.0900946483016014,-0.217958927154541,-0.0420158505439758,0.0714224129915237,0.0,0.0,-0.8601077795028687,0.6937500238418579
-0.0299873352050781,1.3484208583831787,0.1003993973135948,-0.2242900282144546,-0.0400311462581157,0.0396942421793937,0.0,0.0,-0.7596648931503296,-0.7106144428253174
-0.0289935115724802,1.343230962753296,0.0960105508565902,-0.2305722683668136,-0.0366977304220199,0.0666683465242385,0.0,0.0,-0.9388889074325562,0.9048701524734496
-0.02791004255414,1.3379013538360596,0.1066715568304061,-0.2368369847536087,-0.0350330285727977,0.033293567597866,0.0,0.0,-0.6576095819473267,-0.8532666563987732
-0.0268682483583688,1.3324371576309204,0.1008407846093177,-0.2427748590707779,-0.0317381545901298,0.0658977180719375,0.0,0.0,-0.8680335879325867,-0.0235930085182189
-0.0258078575134277,1.3268280029296875,0.1026049852371215,-0.2492249757051468,-0.0283458866178989,0.0678453966975212,0.0,0.0,-0.943903386592865,0.4698479175567627
-0.0247288700193166,1.3210740089416504,0.1043672114610672,-0.255675196647644,-0.0248618870973587,0.0696801766753196,0.0,0.0,-0.7078927755355835,0.8636958599090576
-0.0235776901245117,1.3151706457138062,0.1128696054220199,-0.2623382210731506,-0.0226436574012041,0.0443645566701889,0.0,0.0,-0.853150486946106,-0.255126416683197
-0.0224081985652446,1.309122085571289,0.1146267503499984,-0.2687879502773285,-0.0203449614346027,0.0459736883640289,0.0,0.0,-0.743289589881897,-0.2005348801612854
-0.0212203972041606,1.3029285669326782,0.1163807362318039,-0.2752377390861511,-0.0179714262485504,0.0474703274667263,0.0,0.0,-0.7597095370292664,0.5634937286376953
-0.0199601165950298,1.2965834140777588,0.1249327212572097,-0.2819977700710296,-0.016892671585083,0.0215749777853488,0.0,0.0,-0.7923616766929626,-0.3997529745101928
-0.018681813031435,1.2900930643081665,0.1266791224479675,-0.2884472608566284,-0.0157502125948667,0.0228489059954881,0.0,0.0,-0.8846495747566223,-0.4232541918754577
-0.0173854827880859,1.283457636833191,0.1284210085868835,-0.2948967218399048,-0.014549565501511,0.0240130424499511,0.0,0.0,-0.7697784900665283,-0.839112401008606
-0.0161306373775005,1.2766690254211426,0.1226987019181251,-0.3016888797283172,-0.0118043730035424,0.05490393191576,0.0,0.0,-0.3965029716491699,-0.4822170734405517
