x_pos,y_pos,x_vel,y_vel,angle,ang_vel,leg_1,leg_2,main_booster,lat_booster
-0.0015182495117187,1.403182864189148,-0.1537481993436813,-0.3438785672187805,0.0017236865824088,0.0339987501502037,0.0,0.0,0.0040832757949829,0.8972424268722534
-0.0029236793052405,1.3954434394836426,-0.140397697687149,-0.3439691960811615,0.0015770731261,-0.0029321010224521,0.0,0.0,-0.1216682195663452,0.3356779813766479
-0.0043240548111498,1.387261986732483,-0.1398245096206665,-0.3636243045330047,0.0013711800565943,-0.0041185021400451,0.0,0.0,-0.1874417066574096,0.5823369026184082
-0.005682754330337,1.3786369562149048,-0.1346534192562103,-0.3833345770835876,0.0001732104137772,-0.0239613763988018,0.0,0.0,-0.5935803055763245,0.4760071039199829
-0.0070366859436035,1.369570255279541,-0.1341043561697006,-0.4029627442359924,-0.0010991103481501,-0.0254490915685892,0.0,0.0,0.5009102821350098,0.5401451587677002
-0.0082087516784667,1.3608009815216064,-0.1151061430573463,-0.3897461891174316,-0.0031704949215054,-0.0414317063987255,0.0,0.0,-0.3791171312332153,0.4260154962539673
-0.0093764308840036,1.3515900373458862,-0.1145859733223915,-0.409380555152893,-0.0053327684290707,-0.0432494990527629,0.0,0.0,0.1208845376968383,-0.1255457401275634
-0.0104364398866891,1.342595100402832,-0.1041977629065513,-0.3997786343097687,-0.007111472543329,-0.0355773717164993,0.0,0.0,-0.6859816908836365,0.1792173385620117
-0.0114927291870117,1.3331586122512815,-0.1037138327956199,-0.4194122850894928,-0.0089985905215144,-0.0377459824085235,0.0,0.0,-0.6017391085624695,0.4763302803039551
-0.0125454906374216,1.3232804536819458,-0.1032484397292137,-0.439039021730423,-0.0110022611916065,-0.0400771126151084,0.0,0.0,-0.6352844834327698,0.703957200050354
-0.0135315898805856,1.3129603862762451,-0.094850055873394,-0.4587039649486542,-0.0147256944328546,-0.0744754821062088,0.0,0.0,-0.7039650082588196,0.3332763910293579
-0.0145148281008005,1.302198886871338,-0.0944206863641738,-0.4783333539962768,-0.0185825675725936,-0.0771447420120239,0.0,0.0,-0.0242723822593688,-0.4213082790374756
-0.0154953952878713,1.290995955467224,-0.0940139442682266,-0.4979630410671234,-0.022582858800888,-0.0800127610564231,0.0,0.0,0.1012523174285888,-0.6046667695045471
-0.0164645202457904,1.279700756072998,-0.0940170362591743,-0.5020519495010376,-0.0254565700888633,-0.0574793145060539,0.0,0.0,0.5082219839096069,-0.6066480278968811
-0.017320442944765,1.2690953016281128,-0.0840694457292556,-0.4713797867298126,-0.0269630048424005,-0.0301312319934368,0.0,0.0,-0.7144982218742371,-0.4560164213180542
-0.0181748382747173,1.258048176765442,-0.0837440118193626,-0.4910167157649994,-0.0286404509097337,-0.0335519984364509,0.0,0.0,-0.2686412930488586,-0.3191580772399902
-0.019028091803193,1.2465596199035645,-0.0834440365433693,-0.5106421113014221,-0.0304968990385532,-0.0371323712170124,0.0,0.0,0.4118400812149048,-0.874178409576416
-0.0198019035160541,1.2350990772247314,-0.0772290751338005,-0.509366512298584,-0.030646439641714,-0.0029912104364484,0.0,0.0,-0.6754127740859985,-0.5276015996932983
-0.020610237494111,1.223203182220459,-0.0813647434115409,-0.5286885499954224,-0.0301151424646377,0.0106268022209405,0.0,0.0,-0.6875053644180298,-0.0968696475028991
-0.0214184764772653,1.21086585521698,-0.0811584070324897,-0.5483160614967346,-0.029790187254548,0.0064996979199349,0.0,0.0,-0.5583218336105347,0.3858239650726318
-0.0222271922975778,1.1980869770050049,-0.0809824764728546,-0.5679445862770081,-0.0296802446246147,0.002198924543336,0.0,0.0,-0.0471537113189697,-0.2789132595062256
-0.0230367667973041,1.1848667860031128,-0.0808378905057907,-0.5875738859176636,-0.0297940969467163,-0.0022772147785872,0.0,0.0,-0.0821520686149597,-0.8158597350120544
-0.0238980296999216,1.171205997467041,-0.0870739966630935,-0.6071272492408752,-0.0288680959492921,0.0185218099504709,0.0,0.0,-0.0262293815612792,-0.5302698016166687
-0.0247982982546091,1.157099366188049,-0.091658666729927,-0.6269291043281555,-0.0272520259022712,0.0323243327438831,0.0,0.0,0.0837057828903198,-0.07210373878479
-0.0257822033017873,1.1431879997253418,-0.0993433147668838,-0.6182639598846436,-0.0263171009719371,0.0187003333121538,0.0,0.0,-0.4510868787765503,0.1978762149810791
-0.0267690662294626,1.1288137435913086,-0.0993714183568954,-0.6388491988182068,-0.0256387144327163,0.0135678173974156,0.0,0.0,0.1119595766067504,0.1523182392120361
-0.0277437213808298,1.1147308349609375,-0.0978947728872299,-0.6258955597877502,-0.0252132508903741,0.008509250357747,0.0,0.0,-0.4965277910232544,-0.5742802023887634
-0.0287768356502056,1.1002144813537598,-0.1048801988363266,-0.6451412439346313,-0.0236698053777217,0.0308692567050457,0.0,0.0,-0.9638801217079164,0.849066972732544
-0.0297610275447368,1.0852620601654053,-0.0983599722385406,-0.6645610928535461,-0.0237285271286964,-0.0011744163930416,0.0,0.0,-0.5655508041381836,0.3736146688461303
-0.0307494159787893,1.0698679685592651,-0.0984880328178405,-0.684188187122345,-0.0240745153278112,-0.0069198040291666,0.0,0.0,-0.3718984127044678,-0.0191220045089721
-0.0317423827946186,1.054032325744629,-0.0986507758498191,-0.7038153409957886,-0.0247148219496011,-0.0128061594441533,0.0,0.0,-0.1499694585800171,-0.8849038481712341
-0.0328195579349994,1.037752985954285,-0.1087748408317565,-0.7235085368156433,-0.0236694682389497,0.0209071692079305,0.0,0.0,0.0584453344345092,-0.1906421184539795
-0.0339428894221782,1.0218042135238647,-0.1128291115164756,-0.708828330039978,-0.0231765080243349,0.0098592434078454,0.0,0.0,-0.613319993019104,0.7058935165405273
-0.0350221619009971,1.0054057836532593,-0.1068373769521713,-0.7288373112678528,-0.024253400042653,-0.0215376541018486,0.0,0.0,0.0700659751892089,-0.5405600070953369
-0.0361288078129291,0.989177405834198,-0.1103626042604446,-0.7212714552879333,-0.0245555229485034,-0.0060423226095736,0.0,0.0,0.0005923509597778,-0.4359152317047119
-0.0372199043631553,0.9731938242912292,-0.1085152775049209,-0.7103871703147888,-0.0251325219869613,-0.0115402080118656,0.0,0.0,-0.2679644823074341,-0.557066023349762
-0.0383638367056846,0.9567678570747375,-0.1146493926644325,-0.7300445437431335,-0.0248849429190158,0.0049515035934746,0.0,0.0,0.1275343894958496,-0.2744243144989013
-0.039476204663515,0.9406782984733582,-0.1112683191895484,-0.7150904536247253,-0.0248537547886371,0.0006238269270397,0.0,0.0,-0.5509422421455383,-0.7336935997009277
-0.0406579002737998,0.9241576194763184,-0.119430661201477,-0.7342270016670227,-0.0236088261008262,0.0248986966907978,0.0,0.0,-0.0054306983947753,0.2297395467758178
-0.0418475158512592,0.9071956276893616,-0.119875393807888,-0.7538543939590454,-0.0227100178599357,0.0179764814674854,0.0,0.0,-0.2913722991943359,0.015123963356018
-0.0430454239249229,0.8897921442985535,-0.1203464418649673,-0.7734816670417786,-0.0221616383641958,0.0109676085412502,0.0,0.0,0.2130109071731567,-0.3463435173034668
-0.0441527366638183,0.8725204467773438,-0.111354611814022,-0.7676190137863159,-0.0215485710650682,0.012261351570487,0.0,0.0,-0.1958837509155273,-0.0751312971115112
-0.0452689155936241,0.854807436466217,-0.1118746995925903,-0.7872462868690491,-0.0212936885654926,0.0050975438207387,0.0,0.0,0.5308914184570312,-0.1505481004714965
-0.0462917312979698,0.8373844027519226,-0.1026059538125991,-0.7743500471115112,-0.0209748540073633,0.0063766920939087,0.0,0.0,0.109486699104309,-0.4487505555152893
-0.0473469719290733,0.8198172450065613,-0.1053558588027954,-0.7807594537734985,-0.021146971732378,-0.0034421142190694,0.0,0.0,0.1875792741775512,-0.656250536441803
-0.0484217628836631,0.8021628856658936,-0.1083119139075279,-0.7846341729164124,-0.0203287471085786,0.0163647662848234,0.0,0.0,0.6250755786895752,0.3985555171966553
-0.0494374260306358,0.784724235534668,-0.1023025661706924,-0.7750402688980103,-0.019602807238698,0.0145187880843877,0.0,0.0,0.0923241376876831,0.2169462442398071
-0.0505265220999717,0.7676729559898376,-0.1089235171675682,-0.7578312754631042,-0.0195925906300544,0.0002045879809884,0.0,0.0,0.2299561500549316,0.1348848342895507
-0.0517130866646766,0.7510631680488586,-0.1178232431411743,-0.7382266521453857,-0.0204129572957754,-0.0164075046777725,0.0,0.0,-0.6270334720611572,-0.0582663416862487
-0.0529099479317665,0.7340118885040283,-0.1184778213500976,-0.7578539252281189,-0.0216084495186805,-0.0239098221063613,0.0,0.0,0.0103086233139038,0.3394911289215088
-0.0540221221745014,0.7170398831367493,-0.1100327000021934,-0.7543267011642456,-0.0227743592113256,-0.0233182404190301,0.0,0.0,0.4035823345184326,-0.3239061832427978
-0.0551795959472656,0.700566828250885,-0.1139499694108963,-0.7321697473526001,-0.0245434343814849,-0.0353817269206047,0.0,0.0,-0.1322594285011291,-0.603898823261261
-0.0563870444893837,0.6836503148078918,-0.119557999074459,-0.7518665790557861,-0.025707047432661,-0.0232722386717796,0.0,0.0,0.4602806568145752,0.2107155323028564
-0.0575842857360839,0.6673493385314941,-0.1181826591491699,-0.7245104908943176,-0.0272348169237375,-0.0305555313825607,0.0,0.0,-0.1980277895927429,-0.4680479764938354
-0.0587925910949707,0.6506070494651794,-0.1189024448394775,-0.7441381216049194,-0.0291393939405679,-0.0380915477871894,0.0,0.0,0.4888629913330078,0.7333934307098389
-0.0600369460880756,0.6340584754943848,-0.1204801052808761,-0.7355737686157227,-0.0330459587275981,-0.0781313925981521,0.0,0.0,0.4537463188171386,-0.4324095845222473
-0.0611866004765033,0.6181158423423767,-0.1110201478004455,-0.7086493372917175,-0.0369447469711303,-0.0779753997921943,0.0,0.0,-0.6457353234291077,-0.6126783490180969
-0.06238479539752,0.6017366647720337,-0.1164495348930358,-0.7280522584915161,-0.0402770489454269,-0.0666461512446403,0.0,0.0,0.5747251510620117,-0.1157229542732238
-0.0634916275739669,0.5860880613327026,-0.1072623580694198,-0.6955887079238892,-0.0436512492597103,-0.0674838870763778,0.0,0.0,-0.7792110443115234,-0.3556729555130005
-0.0646098107099533,0.5699982643127441,-0.1080283671617508,-0.7152175307273865,-0.0473943874239921,-0.0748626962304115,0.0,0.0,0.3759169578552246,-0.44354909658432
-0.0656822174787521,0.5539262890815735,-0.1032806262373924,-0.7144381999969482,-0.0513064451515674,-0.0782412737607956,0.0,0.0,0.8635929822921753,0.7139899730682373
-0.0667912513017654,0.5386074185371399,-0.1048534289002418,-0.6810590028762817,-0.057288259267807,-0.119636058807373,0.0,0.0,-0.672427773475647,-0.3306803703308105
-0.0679118186235427,0.5228476524353027,-0.1056406050920486,-0.7006902694702148,-0.0636292546987533,-0.1268202662467956,0.0,0.0,0.7037073373794556,-0.0651457905769348
-0.068979263305664,0.5075911283493042,-0.1001010909676551,-0.6783669590950012,-0.0702129751443862,-0.1316742748022079,0.0,0.0,0.0226119756698608,-0.2520511150360107
-0.0700361281633377,0.4922646284103393,-0.0986984819173812,-0.6815207600593567,-0.0771247744560241,-0.1382360309362411,0.0,0.0,0.2954220771789551,-0.7295224070549011
-0.0712347999215126,0.477210134267807,-0.1138601079583168,-0.6694090962409973,-0.0830793231725692,-0.119091011583805,0.0,0.0,0.5705437660217285,0.3240907192230224
-0.072357177734375,0.4629285335540771,-0.1059775799512863,-0.6350997686386108,-0.0892793238162994,-0.1240002140402793,0.0,0.0,-0.490702748298645,-0.3974146246910095
-0.0734909996390342,0.448206216096878,-0.1067920923233032,-0.6547319293022156,-0.0958131104707717,-0.1306759119033813,0.0,0.0,0.841557502746582,-0.4285699129104614
-0.0745152458548545,0.4344598054885864,-0.0956462323665618,-0.6114017367362976,-0.1025347784161567,-0.1344331502914428,0.0,0.0,-0.3818778991699219,-0.0086428523063659
-0.0755509361624717,0.4202729165554046,-0.0964697450399398,-0.631034791469574,-0.1095765307545661,-0.1408352106809616,0.0,0.0,0.5718977451324463,-0.642207145690918
-0.0766722708940506,0.4066325426101684,-0.1058135777711868,-0.606715738773346,-0.1158574819564819,-0.1256188303232193,0.0,0.0,0.3686884641647339,-0.4985342621803283
-0.07771997153759,0.3933153450489044,-0.0982705578207969,-0.5923942923545837,-0.1223248466849327,-0.1293471753597259,0.0,0.0,-0.3565182089805603,-0.2498944401741027
-0.0787790268659591,0.3795576095581054,-0.0991058647632598,-0.6120273470878601,-0.1290877163410186,-0.1352574527263641,0.0,0.0,0.3066844940185547,-0.8013463616371155
-0.0797880142927169,0.3660381436347961,-0.0954993292689323,-0.6013416051864624,-0.1344628185033798,-0.1075020059943199,0.0,0.0,-0.0351070165634155,-0.9103882312774658
-0.0808841735124588,0.352086067199707,-0.1058652251958847,-0.6204337477684021,-0.1381968706846237,-0.0746809020638465,0.0,0.0,0.8691186904907227,-0.2796847224235534
-0.0818644538521766,0.3382235765457153,-0.0943802148103714,-0.616454541683197,-0.1418408155441284,-0.0728786960244178,0.0,0.0,0.5543472766876221,-0.555223286151886
-0.0828864127397537,0.3244048953056335,-0.0993150547146797,-0.6144396662712097,-0.1447115838527679,-0.0574152581393718,0.0,0.0,0.6264147758483887,-0.6667307019233704
-0.083867073059082,0.3113235235214233,-0.0962657630443573,-0.5815718770027161,-0.1465086638927459,-0.0359414368867874,0.0,0.0,0.7565615177154541,-0.7120245695114136
-0.0846952423453331,0.2990870475769043,-0.0824276655912399,-0.5438790917396545,-0.1469043642282486,-0.0079140849411487,0.0,0.0,-0.1022241115570068,-0.5027610659599304
-0.0855803489685058,0.2864248156547546,-0.0890951603651046,-0.5627081990242004,-0.1463221758604049,0.0116437394171953,0.0,0.0,0.904932141304016,0.2466825246810913
-0.08656807243824,0.2739207148551941,-0.0984532684087753,-0.5557669401168823,-0.1466339528560638,-0.0062354351393878,0.0,0.0,0.5788960456848145,0.0837593078613281
-0.0874176993966102,0.2620879411697387,-0.0846405401825904,-0.5259307622909546,-0.1469570100307464,-0.0064608985558152,0.0,0.0,-0.5025361776351929,-0.1102392077445983
-0.0882777199149131,0.2498140186071396,-0.0855061262845993,-0.5455595254898071,-0.1474547237157821,-0.0099543500691652,0.0,0.0,0.8375502824783325,0.1161824464797973
-0.0890975967049598,0.2382307350635528,-0.0810440778732299,-0.5149052739143372,-0.1483936309814453,-0.0187782570719718,0.0,0.0,0.7585151195526123,-0.4918347597122192
-0.0898301154375076,0.22731314599514,-0.0721083357930183,-0.4853399991989136,-0.1495344787836074,-0.0228166095912456,0.0,0.0,0.0857504606246948,-0.4964607954025268
-0.0904589667916297,0.2165085673332214,-0.0618833787739276,-0.4803053736686706,-0.1505364775657653,-0.0200399346649646,0.0,0.0,-0.1221429705619812,-0.769940197467804
-0.0911562889814376,0.2052683234214782,-0.070096880197525,-0.499532550573349,-0.1501719355583191,0.0072909793816506,0.0,0.0,0.8436307907104492,-0.064847707748413
-0.0916936844587326,0.194229707121849,-0.054496020078659,-0.4905272722244262,-0.1494195312261581,0.015048342756927,0.0,0.0,0.9351485967636108,0.1634904146194458
-0.0919705405831337,0.1837032884359359,-0.0291751977056264,-0.4676907360553741,-0.1479424834251403,0.0295412931591272,0.0,0.0,0.5212271213531494,-0.2464097142219543
-0.0920763984322547,0.1732458174228668,-0.0126039953902363,-0.4645754694938659,-0.1459251344203949,0.0403466075658798,0.0,0.0,0.8356512784957886,-0.3283141851425171
-0.092076301574707,0.1635870039463043,-0.0019436128204688,-0.4290887415409088,-0.1439709365367889,0.0390836261212825,0.0,0.0,0.0438525676727294,-0.8702000379562378
-0.0920609459280967,0.1542146503925323,-0.0021597016602754,-0.4161990880966186,-0.1402866542339325,0.0736858993768692,0.0,0.0,-0.0273674130439758,-0.6796979904174805
-0.0920963287353515,0.1444122940301895,-0.0083277393132448,-0.4352153241634369,-0.1355172246694564,0.0953887850046157,0.0,0.0,0.8301446437835693,0.4857503175735473
-0.0919807404279708,0.1346835196018219,0.006217049434781,-0.4319164454936981,-0.130203977227211,0.106264628469944,0.0,0.0,0.835038423538208,-0.5566083192825317
-0.091905690729618,0.12537382543087,0.0011794400634244,-0.4132250845432281,-0.123904675245285,0.1259860098361969,0.0,0.0,0.8799159526824951,0.8213481903076172
-0.0915474891662597,0.1170623376965522,0.0308397896587848,-0.3689968287944793,-0.1189566701650619,0.0989604443311691,0.0,0.0,0.1829080581665039,-0.402758240699768
-0.091165542602539,0.1089192256331443,0.0331983789801597,-0.3615244626998901,-0.1139950081706047,0.0992332696914672,0.0,0.0,0.5589590072631836,-0.7354872822761536
-0.0908919349312782,0.1014921516180038,0.021014804020524,-0.3296204209327698,-0.1076904982328414,0.1260904222726822,0.0,0.0,0.2378787994384765,0.3606925010681152
-0.0905049294233322,0.0943930968642234,0.031914122402668,-0.3150386214256286,-0.1009499728679657,0.134810209274292,0.0,0.0,-0.0494651198387146,-0.3401843309402466
-0.0901251807808876,0.0868528708815574,0.0310101918876171,-0.3346676528453827,-0.0940533429384231,0.1379328072071075,0.0,0.0,0.5148627758026123,0.8104256391525269
-0.0897083282470703,0.0799053013324737,0.0363048091530799,-0.3084518313407898,-0.0887212231755256,0.1066427379846572,0.0,0.0,0.4134521484375,0.415004014968872
-0.0892819389700889,0.0731556490063667,0.0371545627713203,-0.2996692359447479,-0.0832879394292831,0.1086657047271728,0.0,0.0,0.0256217718124389,0.5799548625946045
-0.088866613805294,0.0665275156497955,0.0371061079204082,-0.2943425476551056,-0.0788999572396278,0.0877596735954284,0.0,0.0,0.3225383758544922,0.8134880065917969
-0.0884967818856239,0.0600913614034652,0.0340898297727108,-0.2859014272689819,-0.0760427638888359,0.0571440048515796,0.0,0.0,-0.0503878593444824,0.9199742078781128
-0.0880478844046592,0.0532090999186039,0.0439205430448055,-0.3058299422264099,-0.0750751122832298,0.0193526912480592,0.0,0.0,0.9151456356048584,0.2014853954315185
-0.0875020995736122,0.0465167388319969,0.0529808774590492,-0.2973598539829254,-0.0734943524003028,0.0316150933504104,0.0,0.0,0.7255891561508179,0.4805860519409179
-0.0867526978254318,0.0405578725039958,0.0723278075456619,-0.264712393283844,-0.0709082782268524,0.0517213270068168,0.0,0.0,0.2797231674194336,0.7205740213394165
-0.085929200053215,0.0350586287677288,0.0808903649449348,-0.2443447113037109,-0.0694585964083671,0.0289937518537044,0.0,0.0,0.2649565935134887,-0.2505690455436706
-0.0849568396806716,0.0300850253552198,0.0949141532182693,-0.2209398448467254,-0.0671597346663475,0.0459771528840065,0.0,0.0,0.1560587882995605,0.3435018062591553
-0.0839094147086143,0.0252713542431592,0.1018082946538925,-0.2138151079416275,-0.0642511621117591,0.05817137286067,0.0,0.0,0.5583648681640625,0.2591266632080078
-0.0828244239091873,0.0211692191660404,0.1052044183015823,-0.1821763217449188,-0.060992956161499,0.0651638209819793,0.0,0.0,0.4623687267303467,0.1062589883804321
-0.0816483497619628,0.0176642518490552,0.1136622428894043,-0.1556222736835479,-0.0570874661207199,0.0781097412109375,0.0,0.0,0.1012732982635498,-0.7662558555603027
-0.0804585441946983,0.0141714429482817,0.113023854792118,-0.1550207734107971,-0.0511972717940807,0.1178038269281387,0.0,0.0,-0.0621702075004577,-0.6373871564865112
-0.0793338790535926,0.0102431150153279,0.1045261844992637,-0.1743402332067489,-0.0433482937514781,0.1569794267416,0.0,0.0,0.783482551574707,0.7634620666503906
-0.0782805457711219,0.0067103244364261,0.0988009572029113,-0.1568392217159271,-0.0368872694671154,0.1292204558849334,0.0,0.0,0.6405105590820312,-0.1394054889678955
-0.0772319808602333,0.0035765385255217,0.0979410111904144,-0.1391258835792541,-0.030061338096857,0.1365186870098114,0.0,0.0,0.3459895849227905,0.1872340440750122
-0.0761531814932823,0.000652251241263,0.1003798097372055,-0.1298354417085647,-0.0226590819656848,0.1480450928211212,0.0,0.0,0.0757259130477905,0.4351742267608642
-0.0749241858720779,-0.0019188070436939,0.1024136692285537,-0.1141006797552108,-0.002368371700868,0.4058948159217834,1.0,0.0,0.2649233341217041,-0.4213230609893799
-0.073785588145256,-0.0032641673460602,0.1033026352524757,-0.0598288513720035,0.0080804759636521,0.2090039998292923,1.0,1.0,-0.5723706483840942,-0.9345051050186156
-0.0728705376386642,-0.004084744490683,0.0858995392918586,-0.0365291647613048,0.0136468494310975,0.1113662272691726,1.0,1.0,-0.5701834559440613,-0.9542311429977416
