x_pos,y_pos,x_vel,y_vel,angle,ang_vel,leg_1,leg_2,main_booster,lat_booster
-0.0015236854087561,1.403528928756714,-0.1541647613048553,-0.3284942507743835,0.0016054157167673,0.0316567495465278,0.0,0.0,-0.1185660362243652,0.8565998077392578
-0.0029753684066236,1.3960614204406738,-0.1447202265262603,-0.3318859040737152,0.001169895986095,-0.0087107541039586,0.0,0.0,0.2671492099761963,0.5440335273742676
-0.0042742728255689,1.3889591693878174,-0.1284553259611129,-0.315658837556839,-0.0002419322991045,-0.0282393936067819,0.0,0.0,-0.567155122756958,0.3396365642547607
-0.0055753709748387,1.3817611932754517,-0.1285291016101837,-0.3199100196361542,-0.0018027677433565,-0.0312193091958761,0.0,0.0,-0.3061116933822632,-0.1016969680786132
-0.0068794251419603,1.3744677305221558,-0.1286820918321609,-0.3241525590419769,-0.0035066329874098,-0.0340807475149631,0.0,0.0,-0.1129394769668579,0.2378202676773071
-0.008187199011445,1.3670790195465088,-0.1289129555225372,-0.328395664691925,-0.0053474935702979,-0.036820825189352,0.0,0.0,0.2499310970306396,0.1466836929321289
-0.0095141408964991,1.3602503538131714,-0.1306119114160537,-0.3035078644752502,-0.0074009075760841,-0.0410721823573112,0.0,0.0,-0.3887836933135986,-0.3300896286964416
-0.0108462329953908,1.3533260822296145,-0.1309932470321655,-0.3077573180198669,-0.0095791304484009,-0.0435687378048896,0.0,0.0,0.1334874629974365,0.5413069725036621
-0.0121447565034031,1.3471729755401611,-0.1264401078224182,-0.2734924256801605,-0.0129661792889237,-0.0677472054958343,0.0,0.0,-0.6057771444320679,-0.7686335444450378
-0.0135104181244969,1.340930461883545,-0.1345613896846771,-0.2774655520915985,-0.0149403205141425,-0.0394862443208694,0.0,0.0,-0.8558775782585144,-0.2076376080513
-0.0148830413818359,1.334592342376709,-0.1351548433303833,-0.2817062139511108,-0.0170220304280519,-0.0416380353271961,0.0,0.0,-0.4867106676101684,0.0558290481567382
-0.0162632949650287,1.3281590938568115,-0.135812908411026,-0.2859497666358948,-0.0192039851099252,-0.0436430722475051,0.0,0.0,-0.2938414812088012,0.2948458194732666
-0.0176517479121685,1.321630358695984,-0.1365335434675216,-0.2901943027973175,-0.0214804243296384,-0.045533113181591,0.0,0.0,-0.6488000750541687,0.092288851737976
-0.019048785790801,1.3150063753128052,-0.1373142302036285,-0.2944387793540954,-0.0238453298807144,-0.0473024845123291,0.0,0.0,-0.5135424733161926,0.3043223619461059
-0.0204550735652446,1.3082869052886963,-0.1381523013114929,-0.2986833155155182,-0.0262927021831274,-0.0489519573748111,0.0,0.0,-0.9235987663269044,0.5839202404022217
-0.0218166355043649,1.3014631271362305,-0.1322278976440429,-0.3033525347709656,-0.0301865972578525,-0.0778849050402641,0.0,0.0,-0.7796499133110046,0.5388600826263428
-0.0231359489262104,1.294548273086548,-0.1266030222177505,-0.3074504733085632,-0.035463772714138,-0.1055531054735183,0.0,0.0,-0.8839120268821716,0.1863546371459961
-0.0244658477604389,1.2875380516052246,-0.127589613199234,-0.3116971850395202,-0.0408051535487175,-0.1068372726440429,0.0,0.0,-0.8515823483467102,0.0894685983657836
-0.0258067138493061,1.2804328203201294,-0.1286231577396392,-0.3159440159797668,-0.0462055839598178,-0.1080183610320091,0.0,0.0,-0.9654085040092468,-0.0011734962463378
-0.0271587371826171,1.2732324600219729,-0.1297008395195007,-0.3201909065246582,-0.0516592375934124,-0.1090825796127319,0.0,0.0,-0.7998741269111633,0.4928160905838012
-0.0285225864499807,1.265937089920044,-0.1308203339576721,-0.3244380056858063,-0.0571606084704399,-0.110037662088871,0.0,0.0,-0.4356992840766907,0.3749415874481201
-0.0298983566462993,0.0,-0.1319792121648788,-0.3286852836608886,-0.0627044215798378,-0.1108861565589904,0.0,0.0,-0.9437824487686156,0.0263571739196777
-0.0312863364815712,1.251061201095581,-0.1331752091646194,-0.3329327702522278,-0.0682854577898979,-0.1116307824850082,0.0,0.0,-0.5122082829475403,0.1877328157424926
-0.032686997205019,1.2434808015823364,-0.1344060450792312,-0.3371803164482116,-0.0738986879587173,-0.1122745424509048,0.0,0.0,-0.9806660413742064,0.5779073238372803
-0.0340656265616416,1.2358030080795288,-0.1312902420759201,-0.341573029756546,-0.0804181396961212,-0.1304006576538086,0.0,0.0,-0.8506230711936951,-0.0294492244720459
-0.0354586616158485,1.2280088663101196,-0.1326966732740402,-0.34677255153656,-0.0869604125618934,-0.130845233798027,0.0,0.0,-0.9827556014060974,0.3743754625320434
-0.036865234375,1.2201199531555176,-0.1340357363224029,-0.3510183095932007,-0.0935215801000595,-0.1312237232923507,0.0,0.0,-0.5452073216438293,0.6401914358139038
-0.038245677947998,1.2121373414993286,-0.1304043233394622,-0.3552797734737396,-0.1010943204164505,-0.1514548808336258,0.0,0.0,-0.877598762512207,0.4353482723236084
-0.0396400466561317,1.2040599584579468,-0.1317953765392303,-0.3595266938209533,-0.1086776033043861,-0.1516658365726471,0.0,0.0,-0.5888627767562866,0.3712652921676636
-0.041048526763916,1.1958880424499512,-0.133209690451622,-0.3637735545635223,-0.1162675470113754,-0.1517986804246902,0.0,0.0,-0.9400657415390016,-0.2876185178756714
-0.0424714088439941,1.1876213550567627,-0.1346456706523895,-0.3680204451084137,-0.1238603740930557,-0.1518568396568298,0.0,0.0,-0.8119967579841614,-0.3427349328994751
-0.0439086928963661,1.1792598962783811,-0.1361017525196075,-0.3722672760486603,-0.1314526200294494,-0.1518448889255523,0.0,0.0,-0.8584989309310913,0.0738794803619384
-0.0453606620430946,1.170803785324097,-0.1375764608383178,-0.3765140771865845,-0.139040932059288,-0.1517663449048996,0.0,0.0,-0.8079144954681396,0.4931378364562988
-0.0468273162841796,1.1622532606124878,-0.1390683799982071,-0.3807608187198639,-0.1466221958398819,-0.1516256034374237,0.0,0.0,-0.8373964428901672,0.0860239267349243
-0.0483088493347168,1.1536078453063965,-0.1405761837959289,-0.3850074708461761,-0.1541935503482818,-0.151426687836647,0.0,0.0,-0.8762367367744446,-0.21964693069458
-0.0498054511845111,1.1448676586151123,-0.1420985907316208,-0.389254093170166,-0.161752238869667,-0.1511736661195755,0.0,0.0,-0.8846712708473206,0.3505009412765503
-0.0513171181082725,1.1360328197479248,-0.143634408712387,-0.3935006558895111,-0.1692957878112793,-0.1508706957101822,0.0,0.0,-0.6009598970413208,0.8732309341430664
-0.0527709946036338,1.1270915269851685,-0.1360183507204055,-0.3984883427619934,-0.178677961230278,-0.1876440644264221,0.0,0.0,-0.6509042978286743,0.4705954790115356
-0.0542400367558002,1.118055820465088,-0.1375782638788223,-0.4027373194694519,-0.1880406439304351,-0.1872535049915313,0.0,0.0,-0.8252735137939453,0.7091554403305054
-0.0556666366755962,1.1089104413986206,-0.1318932026624679,-0.4078657925128937,-0.1988714039325714,-0.2166147977113723,0.0,0.0,-0.8316165804862976,-0.3956199884414673
-0.0571085922420024,1.0996712446212769,-0.1334731727838516,-0.4121170938014984,-0.2096790671348571,-0.2161536514759063,0.0,0.0,-0.9180615544319152,-0.2355825901031494
-0.058565903455019,1.0903379917144775,-0.1350613832473755,-0.416368305683136,-0.2204622626304626,-0.2156639397144317,0.0,0.0,-0.9556844234466552,0.237922191619873
-0.0600387565791606,1.0809106826782229,-0.1366569399833679,-0.4206194281578064,-0.2312197685241699,-0.2151499986648559,0.0,0.0,-0.9172009229660034,-0.2195379734039306
-0.0615270622074604,1.0713893175125122,-0.1382589489221573,-0.4248704016208648,-0.2419505715370178,-0.2146160304546356,0.0,0.0,-0.6692312359809875,-0.1668508648872375
-0.0630308166146278,1.061773657798767,-0.1398665606975555,-0.4291212856769562,-0.2526538670063019,-0.2140663117170334,0.0,0.0,-0.9809655547142028,-0.1694992184638977
-0.0645502060651779,1.0520641803741455,-0.1414789259433746,-0.4333720207214355,-0.2633291184902191,-0.2135050743818283,0.0,0.0,-0.9754227995872498,-0.0642058849334716
-0.0660851448774337,1.0422605276107788,-0.1430952847003936,-0.4376226663589477,-0.2739759385585785,-0.212936520576477,0.0,0.0,-0.7591978907585144,-0.0826051831245422
-0.0676357299089431,1.0323628187179563,-0.1447148323059082,-0.4418732225894928,-0.284594178199768,-0.2123647481203079,0.0,0.0,-0.9771190881729126,-0.3237082362174988
-0.0692018494009971,1.0223708152770996,-0.1463368237018585,-0.4461236894130707,-0.2951838672161102,-0.2117940485477447,0.0,0.0,-0.9480124711990356,-0.3911600112915039
-0.0707837119698524,1.012284755706787,-0.1479605287313461,-0.4503740668296814,-0.3057452738285064,-0.2112284004688263,0.0,0.0,-0.9965204000473022,-0.6516504883766174
-0.0724185928702354,1.002121925354004,-0.1542920768260955,-0.4536421597003937,-0.3152682781219482,-0.1904599368572235,0.0,0.0,-0.9964466691017152,-0.2633843421936035
-0.0740691199898719,0.9918648600578308,-0.1559162437915802,-0.4578906595706939,-0.3247641324996948,-0.1899169981479644,0.0,0.0,0.152002215385437,-0.3075449466705322
-0.0755641907453537,0.9819173812866212,-0.1407618820667266,-0.4440991282463074,-0.3338810801506042,-0.1823391020298004,0.0,0.0,-0.3498508930206299,-0.6672095060348511
-0.0771228820085525,0.9719066619873048,-0.1484806537628173,-0.4466477036476135,-0.3416087329387665,-0.1545528769493103,0.0,0.0,-0.9433816075325012,-0.3124570846557617
-0.0786973014473915,0.9618012309074402,-0.1501001566648483,-0.4508938193321228,-0.3493123948574066,-0.1540732383728027,0.0,0.0,-0.3088438510894775,-0.6623150110244751
-0.080344870686531,0.9516290426254272,-0.1589492112398147,-0.4535232782363891,-0.3554236590862274,-0.1222253814339637,0.0,0.0,-0.1595054864883422,-0.5893204212188721
-0.0820436477661132,0.9413871169090272,-0.1650699079036712,-0.4563951790332794,-0.3604870140552521,-0.1012672781944274,0.0,0.0,-0.6999155879020691,-0.6658644676208496
-0.0837952643632888,0.9310737252235411,-0.171387642621994,-0.459326684474945,-0.3644737899303436,-0.0797355696558952,0.0,0.0,-0.5163285136222839,-0.4926871061325073
-0.0855627059936523,0.9206650257110596,-0.1729908883571624,-0.4635694622993469,-0.3684433698654175,-0.0793918371200561,0.0,0.0,-0.01068115234375,-0.6858616471290588
-0.0874010100960731,0.9101992845535278,-0.181608572602272,-0.4657203257083893,-0.3708015978336334,-0.047164537012577,0.0,0.0,0.0627267360687255,-0.8335241079330444
-0.0891958251595497,0.8999791145324707,-0.1788804084062576,-0.4543890357017517,-0.3714343309402466,-0.0126549452543258,0.0,0.0,-0.0163541436195373,-0.7596287727355957
-0.0910701751708984,0.8897047638893127,-0.1885756552219391,-0.4563364684581756,-0.370228499174118,0.0241166558116674,0.0,0.0,0.8252884149551392,-0.9212133288383484
-0.0926805511116981,0.8800891637802124,-0.1641919910907745,-0.4265464842319488,-0.3668800592422485,0.0669687986373901,0.0,0.0,0.8289680480957031,-0.8328826427459717
-0.0940969437360763,0.8713492751121521,-0.1464925706386566,-0.3872047960758209,-0.3617590069770813,0.1024212837219238,0.0,0.0,0.6880977153778076,-0.675311267375946
-0.0954266563057899,0.8631079792976379,-0.1391566395759582,-0.3647361397743225,-0.3552355766296386,0.1304686665534973,0.0,0.0,0.642035961151123,-0.595176100730896
-0.0967355743050575,0.8556917905807495,-0.1379485577344894,-0.3278798162937164,-0.3478094041347503,0.1485234647989273,0.0,0.0,0.6829078197479248,-0.5629117488861084
-0.0977806076407432,0.8494271636009216,-0.112739123404026,-0.2764639556407928,-0.3391660451889038,0.1728672683238983,0.0,0.0,0.5107616186141968,0.1551882028579712
-0.0986810699105262,0.84340900182724,-0.0986264497041702,-0.2654867172241211,-0.3301829099655151,0.179662674665451,0.0,0.0,-0.1200442314147949,0.2821608781814575
-0.0995965003967285,0.8372962474822998,-0.1001468077301979,-0.2697353959083557,-0.3212105929851532,0.1794454455375671,0.0,0.0,0.0550618171691894,-0.0057133436203002
-0.100488469004631,0.8315479159355164,-0.0975449606776237,-0.2536569535732269,-0.3125306963920593,0.1735978126525879,0.0,0.0,-0.5395301580429077,0.366657018661499
-0.1013953238725662,0.8257049918174744,-0.0990387350320816,-0.2579054534435272,-0.30386883020401,0.173237457871437,0.0,0.0,-0.2857354879379272,0.6873648166656494
-0.1022623032331466,0.8197433352470398,-0.0936429277062416,-0.2635310590267181,-0.296698123216629,0.1434139907360077,0.0,0.0,-0.9247655272483826,0.1228313446044921
-0.1031441688537597,0.8136869668960571,-0.0951061695814132,-0.2677778303623199,-0.2895530164241791,0.142902597784996,0.0,0.0,-0.564280092716217,-0.0199764370918273
-0.1040405258536338,0.8075358867645264,-0.0965533629059791,-0.2720246613025665,-0.2824373841285705,0.1423128098249435,0.0,0.0,-0.9918774366378784,0.6813735961914062
-0.1049036979675293,0.801263689994812,-0.0919446945190429,-0.2776861190795898,-0.2766658067703247,0.1154320240020752,0.0,0.0,-0.9644479155540466,0.1914868354797363
-0.1057813614606857,0.7948967814445496,-0.09335657954216,-0.2819316685199737,-0.2709317505359649,0.1146812066435813,0.0,0.0,-0.9970880746841432,-0.4719310998916626
-0.1066732406616211,0.7884348630905151,-0.0947498232126236,-0.2861773073673248,-0.2652393579483032,0.113847866654396,0.0,0.0,-0.9926334023475648,0.1356232166290283
-0.1075791344046592,0.7818779349327087,-0.0961235389113426,-0.2904230058193207,-0.2595928311347961,0.1129309982061386,0.0,0.0,-0.999460518360138,0.0916160345077514
-0.1084990501403808,0.775226354598999,-0.0974768251180648,-0.2946687042713165,-0.253996342420578,0.1119297966361045,0.0,0.0,-0.9807785153388976,-0.8045842051506042
-0.109504222869873,0.7685161232948303,-0.1078515276312828,-0.2969781160354614,-0.2465173304080963,0.1495806276798248,0.0,0.0,-0.9996243119239808,0.754894495010376
-0.1104788780212402,0.7616867423057556,-0.1035782322287559,-0.3025196194648742,-0.2403007745742797,0.1243310123682022,0.0,0.0,-0.998916506767273,0.107208251953125
-0.1114668846130371,0.7547624707221985,-0.1048651114106178,-0.306766003370285,-0.2341470867395401,0.1230736747384071,0.0,0.0,-0.9950054883956908,0.1601107120513916
-0.1124681457877159,0.747743546962738,-0.106127955019474,-0.3110124170780182,-0.2280605584383011,0.1217305436730384,0.0,0.0,-0.9999260306358336,-0.8964224457740784
-0.1135569587349891,0.7406598925590515,-0.1167721971869468,-0.3136314749717712,-0.2200713902711868,0.1597832888364792,0.0,0.0,-0.999607264995575,0.5348869562149048
-0.1146177276968956,0.7334707379341125,-0.1128636598587036,-0.3185195326805115,-0.2132115364074707,0.1371967047452926,0.0,0.0,-0.9998093247413636,0.3387675285339355
-0.115690991282463,0.726186990737915,-0.114049419760704,-0.3227668404579162,-0.2064316719770431,0.1355973482131958,0.0,0.0,-0.998387575149536,0.8971614837646484
-0.1167058944702148,0.7187772393226624,-0.1062625050544738,-0.3286643922328949,-0.2016173154115677,0.0962869673967361,0.0,0.0,-0.9999601244926452,-0.5706635117530823
-0.1177707687020301,0.7112800478935242,-0.1121448650956153,-0.3324518501758575,-0.1959241777658462,0.1138630956411361,0.0,0.0,-0.9999301433563232,0.8478761911392212
-0.1187658309936523,0.7036634683609009,-0.1029698699712753,-0.3380679488182068,-0.1924427300691604,0.0696288794279098,0.0,0.0,-0.9999426007270812,-0.0505918264389038
-0.1197725310921669,0.6959517002105713,-0.1040399223566055,-0.3423125147819519,-0.189057856798172,0.0676973909139633,0.0,0.0,-0.99983012676239,0.9751267433166504
-0.1207147613167762,0.688130259513855,-0.0955678075551986,-0.3474490344524383,-0.187707707285881,0.0270032044500112,0.0,0.0,-0.9999241828918456,-0.6188182234764099
-0.1217130646109581,0.6802312731742859,-0.1022452563047409,-0.3507625460624695,-0.1852809488773346,0.04853505641222,0.0,0.0,-0.9997963905334472,-0.264016330242157
-0.1227222457528114,0.6722370982170105,-0.1032213121652603,-0.3550067245960235,-0.1829626113176345,0.0463665500283241,0.0,0.0,-0.9999675750732422,0.9923756122589112
-0.1236532181501388,0.6641125082969666,-0.0929757505655288,-0.3611029684543609,-0.1830873489379882,-0.0024948460049927,0.0,0.0,-0.9999513626098632,-0.2441874146461486
-0.1245944947004318,0.6558929681777954,-0.0938859358429908,-0.3653467893600464,-0.1833280175924301,-0.0048133074305951,0.0,0.0,-0.999996542930603,0.8598101139068604
-0.1254681646823883,0.647567093372345,-0.0850615501403808,-0.3703250586986542,-0.1856488436460495,-0.0464164242148399,0.0,0.0,-0.9990716576576232,0.4347832202911377
-0.1263515502214431,0.639146089553833,-0.0859041064977645,-0.3745694756507873,-0.1880926787853241,-0.0488771311938762,0.0,0.0,-0.9999423027038574,0.6678496599197388
-0.1272023171186447,0.6306244134902954,-0.0814668089151382,-0.3792035281658172,-0.1917223334312439,-0.0725931897759437,0.0,0.0,-0.9998489618301392,-0.5971677899360657
-0.1281013488769531,0.6220223307609558,-0.0871828645467758,-0.3826728165149688,-0.194454088807106,-0.054635465145111,0.0,0.0,-0.9998881816864014,0.194412350654602
-0.1290089637041092,0.6133250594139099,-0.0879211351275444,-0.3869176208972931,-0.1973187625408172,-0.0572933368384838,0.0,0.0,-0.9997894167900084,0.9963719844818116
-0.129857450723648,0.6045200824737549,-0.0801599845290184,-0.3919664919376373,-0.2020410001277923,-0.094444453716278,0.0,0.0,-0.9997665286064148,0.8955261707305908
-0.1306479424238205,0.5955970287322998,-0.0725136920809745,-0.3974834084510803,-0.2086296677589416,-0.1317735165357589,0.0,0.0,-0.9761343002319336,-0.7390540242195129
-0.13151416182518,0.5866018533706665,-0.0817091315984726,-0.400489330291748,-0.21358522772789,-0.0991110652685165,0.0,0.0,-0.9956399202346802,-0.9932202100753784
-0.1324837654829025,0.5775407552719116,-0.0943877324461937,-0.4030907750129699,-0.2161888778209686,-0.0520731434226036,0.0,0.0,-0.9958640336990356,-0.4602603912353515
-0.1334604322910308,0.5683847069740295,-0.0949493572115898,-0.40733602643013,-0.2189393490552902,-0.0550094433128833,0.0,0.0,-0.9998790621757508,-0.8117804527282715
-0.1345010697841644,0.5591456294059753,-0.1026466637849807,-0.410840630531311,-0.220376580953598,-0.0287446621805429,0.0,0.0,-0.9982059001922609,0.0726544857025146
-0.1355482041835785,0.5498114228248596,-0.1031382456421852,-0.4150856137275696,-0.2219652235507965,-0.031772781163454,0.0,0.0,-0.9989663362503052,0.0623975992202758
-0.1366013586521148,0.5403823256492615,-0.1035953387618064,-0.4193306565284729,-0.2237073630094528,-0.0348423644900321,0.0,0.0,-0.9967718720436096,-0.8762732148170471
-0.1377101838588714,0.5308856964111328,-0.1103444844484329,-0.4221526682376861,-0.2242500483989715,-0.0108538158237934,0.0,0.0,-0.9852557182312012,-0.4025255441665649
-0.1388243734836578,0.521294116973877,-0.110733762383461,-0.4263976514339447,-0.2249499261379242,-0.0139972092583775,0.0,0.0,-0.9918640851974488,-0.9562901854515076
-0.1400166451930999,0.5116424560546875,-0.1203182563185691,-0.4287983179092407,-0.2238513827323913,0.0219708364456892,0.0,0.0,-0.9168747067451476,0.8016574382781982
-0.1411448419094085,0.5018795132637024,-0.1119916215538978,-0.4340346753597259,-0.2246852219104766,-0.0166763719171285,0.0,0.0,-0.9968921542167664,-0.2681363821029663
-0.1422775238752365,0.4920215606689453,-0.1122834831476211,-0.438279777765274,-0.2256805449724197,-0.0199065990746021,0.0,0.0,-0.9805340766906738,0.0005856752395629
-0.1434144079685211,0.4820687174797058,-0.112544260919094,-0.4425249099731445,-0.2268385142087936,-0.023159172385931,0.0,0.0,-0.8595907092094421,0.6446969509124756
-0.1445163786411285,0.4720058441162109,-0.1078902035951614,-0.4475990235805511,-0.2291836738586425,-0.0469031557440757,0.0,0.0,-0.8810715079307556,-0.8830744624137878
-0.1456924378871917,0.4618721008300781,-0.1169464737176895,-0.450490802526474,-0.2298499941825866,-0.0133263124153018,0.0,0.0,-0.8923983573913574,0.3264148235321045
-0.1468718498945236,0.4516433775424957,-0.1171189546585083,-0.4547360241413116,-0.2306812703609466,-0.016625652089715,0.0,0.0,0.4636588096618652,-0.5603967308998108
-0.1479034423828125,0.4417521953582763,-0.1035645604133606,-0.4395437240600586,-0.2302621603012085,0.0083822477608919,0.0,0.0,-0.4375470876693725,-0.2832361459732055
-0.1489377915859222,0.4317660629749298,-0.1036828011274337,-0.4437889456748962,-0.2300086915493011,0.0050693675875663,0.0,0.0,-0.3545450568199157,0.95412015914917
-0.149896815419197,0.4216670095920563,-0.09402497112751,-0.4491380155086517,-0.2319170832633972,-0.0381679609417915,0.0,0.0,0.510003924369812,0.830847978591919
