x_pos,y_pos,x_vel,y_vel,angle,ang_vel,leg_1,leg_2,main_booster,lat_booster
-0.0014687537914142,1.403326153755188,-0.1488455682992935,-0.337509274482727,0.0017651509260758,0.0348192825913429,0.0,0.0,-0.0091971755027771,0.8805491924285889
-0.0028099059127271,1.3954529762268066,-0.1339630782604217,-0.3499199748039245,0.0016179266385734,-0.0029439206700772,0.0,0.0,0.3462690114974975,0.7972972393035889
-0.0039161681197583,1.387769341468811,-0.1090681552886962,-0.341491162776947,8.528192120138556e-05,-0.0306558012962341,0.0,0.0,0.128440260887146,0.349653959274292
-0.005056285765022,1.3802992105484009,-0.1120727807283401,-0.3320071995258331,-0.0018261886434629,-0.0382334254682064,0.0,0.0,-0.0871294736862182,-0.1336177587509155
-0.0061513902619481,1.3725306987762451,-0.1075839772820472,-0.345268189907074,-0.003731585573405,-0.0381115041673183,0.0,0.0,-0.7392622232437134,0.0194175243377685
-0.0072042467072606,1.3644640445709229,-0.1033485308289527,-0.3585256934165954,-0.0056362780742347,-0.0380975715816021,0.0,0.0,-0.1260308027267456,0.4954012632369995
-0.0082171438261866,1.3560991287231443,-0.099364623427391,-0.3717844784259796,-0.0075449594296514,-0.0381772182881832,0.0,0.0,-0.6359750628471375,-0.6658959984779358
-0.0092323301360011,1.3474382162094116,-0.1005773320794105,-0.3849326968193054,-0.0084699820727109,-0.0185021422803401,0.0,0.0,-0.6863448619842529,0.4874589443206787
-0.0102127073332667,1.338478922843933,-0.0970926582813263,-0.3981914818286896,-0.0094083081930875,-0.0187683813273906,0.0,0.0,-0.4050905704498291,-0.163989245891571
-0.0111609455198049,1.3292213678359983,-0.0938513204455375,-0.4114505052566528,-0.010363201610744,-0.0190997049212455,0.0,0.0,-0.6850240230560303,0.2039672136306762
-0.0120792388916015,1.3196656703948977,-0.0908498615026474,-0.4247094988822937,-0.0113384602591395,-0.0195068381726741,0.0,0.0,-0.8770409822463989,-0.0065736770629882
-0.0129702566191554,1.3098115921020508,-0.0880840420722961,-0.4379685819149017,-0.0123373307287693,-0.0199793651700019,0.0,0.0,-0.4452199935913086,-0.4371651411056518
-0.0138360019773244,1.2996591329574585,-0.0855491608381271,-0.4512276649475097,-0.0133627792820334,-0.0205108933150768,0.0,0.0,-0.8745942711830139,0.6737833023071289
-0.0146200181916356,1.289201021194458,-0.0758164077997207,-0.4648319780826568,-0.0159068927168846,-0.0508869998157024,0.0,0.0,-0.8863566517829895,0.0578322410583496
-0.015383243560791,1.2784446477890017,-0.0737229436635971,-0.4780915081501007,-0.0184816978871822,-0.0515007153153419,0.0,0.0,-0.635771632194519,-0.891396164894104
-0.0161858554929494,1.2673810720443726,-0.079076163470745,-0.4917276203632355,-0.0196437574923038,-0.0232436787337064,0.0,0.0,-0.2292824387550354,0.108696699142456
-0.0169720649719238,1.2560192346572876,-0.077409878373146,-0.5049869418144226,-0.0208416897803545,-0.0239609070122241,0.0,0.0,-0.9652219414711,-0.6627689003944397
-0.0177840236574411,1.2443547248840332,-0.0809650793671608,-0.5184269547462463,-0.0210716314613819,-0.0045991851948201,0.0,0.0,-0.5705420970916748,-0.2637456655502319
-0.0185837745666503,1.2323919534683228,-0.0796974748373031,-0.5316862463951111,-0.0213398709893226,-0.0053654434159398,0.0,0.0,-0.8113190531730652,-0.1557972431182861
-0.0193730350583791,1.2201306819915771,-0.0786167159676551,-0.5449456572532654,-0.0216465834528207,-0.0061349254101514,0.0,0.0,-0.0133668780326843,-0.6662012934684753
-0.0201951023191213,1.2075774669647217,-0.0829136744141578,-0.5579134821891785,-0.0209489110857248,0.0139549151062965,0.0,0.0,0.3597849607467651,-0.320508599281311
-0.0209931377321481,1.195271611213684,-0.0805047377943992,-0.546913206577301,-0.0202463511377573,0.014052502810955,0.0,0.0,-0.8811978101730347,-0.5942341685295105
-0.0218226425349712,1.1826677322387695,-0.084566630423069,-0.5601504445075989,-0.0186566580086946,0.0317968614399433,0.0,0.0,-0.4310070276260376,-0.3390833139419555
-0.022648524492979,1.1697657108306885,-0.0841616839170456,-0.5734078288078308,-0.0171066280454397,0.0310031529515981,0.0,0.0,0.0684919357299804,0.7293639183044434
-0.0235129352658987,1.1571928262710571,-0.0864105150103569,-0.5587961077690125,-0.0171291343867778,-0.0004500333161558,0.0,0.0,-0.7983030676841736,-0.2855677604675293
-0.0243765823543071,1.1442999839782717,-0.0863098129630088,-0.573011577129364,-0.0171887837350368,-0.0011928400490432,0.0,0.0,-0.129715621471405,-0.3490323424339294
-0.0252407081425189,1.1311091184616089,-0.0863149240612983,-0.5862688422203064,-0.0172849148511886,-0.001922552473843,0.0,0.0,-0.7058295011520386,0.0962682962417602
-0.0261064525693655,1.117619872093201,-0.0864407122135162,-0.5995261669158936,-0.0174161661416292,-0.0026250076480209,0.0,0.0,-0.946715533733368,-0.3377832174301147
-0.026974868029356,1.1038322448730469,-0.0866781920194625,-0.6127833724021912,-0.0175809506326913,-0.0032956735230982,0.0,0.0,-0.5385749936103821,-0.590017557144165
-0.0278953555971384,1.0897455215454102,-0.0930826663970947,-0.6260682344436646,-0.0165633372962474,0.0203523393720388,0.0,0.0,-0.3813215494155884,0.1321197748184204
-0.028820514678955,1.0753605365753174,-0.0935161933302879,-0.6393255591392517,-0.0155753837898373,0.019759077578783,0.0,0.0,-0.4798483848571777,0.4807665348052978
-0.0297511108219623,1.060677170753479,-0.0940339714288711,-0.6525828838348389,-0.014614843763411,0.0192109160125255,0.0,0.0,-0.6644101142883301,0.3966076374053955
-0.0306879039853811,1.0456955432891846,-0.094626784324646,-0.6658401489257812,-0.01367923989892,0.0187123604118824,0.0,0.0,-0.7910010814666748,0.1247280836105346
-0.0316314697265625,1.0304155349731443,-0.095285378396511,-0.6790974140167236,-0.0127658722922205,0.0182673502713441,0.0,0.0,-0.807055652141571,-0.1791856288909912
-0.0325823798775672,1.0148375034332275,-0.0960004925727844,-0.6923547387123108,-0.0118718668818473,0.0178800951689481,0.0,0.0,-0.6115463376045227,0.0546376705169677
-0.0335411056876182,0.9989610910415648,-0.0967628806829452,-0.7056119441986084,-0.0109941409900784,0.0175544805824756,0.0,0.0,-0.3342093229293823,-0.265774130821228
-0.0345079414546489,0.9827864170074464,-0.0975633040070533,-0.718869149684906,-0.0101294247433543,0.0172943100333213,0.0,0.0,-0.2816132307052612,0.1715618371963501
-0.0354831703007221,0.966313362121582,-0.098392553627491,-0.7321262955665588,-0.009274267591536,0.0171032436192035,0.0,0.0,-0.0779500007629394,-0.6082034707069397
-0.0365181937813758,0.9495496153831482,-0.1056705340743064,-0.7450435161590576,-0.0071363882161676,0.0427578687667846,0.0,0.0,-0.2136917114257812,0.3829003572463989
-0.037561796605587,0.9324877858161926,-0.1065300479531288,-0.7583010196685791,-0.0050006140954792,0.0427154228091239,0.0,0.0,0.3335136175155639,0.6630896329879761
-0.0386539474129676,0.9160762429237366,-0.109870359301567,-0.7294037938117981,-0.0043464545160532,0.0130833685398101,0.0,0.0,-0.5831457376480103,-0.539186954498291
-0.0397884361445903,0.8993653059005737,-0.1149806603789329,-0.7427030205726624,-0.002833925653249,0.0302504152059555,0.0,0.0,-0.217485249042511,0.5579499006271362
-0.0408799163997173,0.8823497891426086,-0.109385035932064,-0.7562466263771057,-0.0025997783523052,0.004683100618422,0.0,0.0,0.570389986038208,-0.3441282510757446
-0.0418836586177349,0.8657893538475037,-0.101069688796997,-0.7360216379165649,-0.0019144645193591,0.0137061085551977,0.0,0.0,-0.1384490728378296,-0.2633708715438843
-0.0428951270878315,0.8489305973052979,-0.1018479913473129,-0.7492788434028625,-0.001210015383549,0.0140889706090092,0.0,0.0,-0.0560874342918396,0.5439269542694092
-0.0438672080636024,0.8317679166793823,-0.0967713445425033,-0.7627872228622437,-0.0016459507169201,-0.0087187215685844,0.0,0.0,-0.3845971822738647,0.3278779983520508
-0.0448458679020404,0.814306914806366,-0.0974564328789711,-0.7760443091392517,-0.0020533516071736,-0.0081479931250214,0.0,0.0,0.4663981199264526,-0.4622887969017029
-0.0459287650883197,0.7976580858230591,-0.1074364632368087,-0.7399523258209229,-0.0028888517990708,-0.0167100615799427,0.0,0.0,-0.0745821595191955,0.4330172538757324
-0.0470168106257915,0.7807108163833618,-0.1079951152205467,-0.7532094717025757,-0.0036860394757241,-0.0159435905516147,0.0,0.0,-0.0866098999977111,-0.2078006863594055
-0.0481092445552349,0.763465404510498,-0.1084784716367721,-0.7664667367935181,-0.004439890384674,-0.0150769408792257,0.0,0.0,0.5041239261627197,0.2314995527267456
-0.0490721687674522,0.7467007040977478,-0.0961988419294357,-0.7451017498970032,-0.0045412564650177,-0.0020274533890187,0.0,0.0,-0.6091187596321106,0.2635362148284912
-0.0500377640128135,0.7296375632286072,-0.0965082794427871,-0.7583588361740112,-0.0045890687033534,-0.0009565436048433,0.0,0.0,-0.5794256925582886,0.2052464485168457
-0.0510048866271972,0.7122761607170105,-0.0967195183038711,-0.7716160416603088,-0.0045781726948916,0.0002178261056542,0.0,0.0,0.830143928527832,-0.3039652109146118
-0.0519648566842079,0.6959418654441833,-0.096080370247364,-0.7259657382965088,-0.0044870157726109,0.0018230393761768,0.0,0.0,-0.5346760153770447,0.8086104393005371
-0.0528441444039344,0.6793057322502136,-0.0860587731003761,-0.7393882274627686,-0.0063326158560812,-0.0369120612740516,0.0,0.0,0.6951353549957275,0.1511554718017578
-0.0538163185119628,0.6630975604057312,-0.0949695035815239,-0.7203760147094727,-0.0085573922842741,-0.0444953218102455,0.0,0.0,-0.1378945708274841,-0.5386381149291992
-0.0548212043941021,0.6465964913368225,-0.0992280840873718,-0.7333876490592957,-0.0097985481843352,-0.0248232148587703,0.0,0.0,0.2241051197052002,0.9023263454437256
-0.0556263923645019,0.6305475831031799,-0.077592521905899,-0.7133050560951233,-0.0126874158158898,-0.0577772781252861,0.0,0.0,0.3809943199157715,-0.1053066253662109
-0.0563542358577251,0.6152315139770508,-0.070243015885353,-0.6807361245155334,-0.0151973906904459,-0.050199456512928,0.0,0.0,-0.6981370449066162,-0.1741188168525695
-0.0570745468139648,0.5996171832084656,-0.0695779174566268,-0.6939937472343445,-0.017612213268876,-0.0482965596020221,0.0,0.0,0.3037968873977661,-0.0135405659675598
-0.0577401146292686,0.5841419100761414,-0.0643981620669364,-0.6878171563148499,-0.0197399221360683,-0.0425543375313282,0.0,0.0,-0.3627618551254272,-0.1182149648666381
-0.0583949089050293,0.5683683753013611,-0.0634300932288169,-0.701074481010437,-0.0217623692005872,-0.0404489934444427,0.0,0.0,-0.0040528774261474,0.6491022109985352
-0.0589754097163677,0.5522929430007935,-0.054540179669857,-0.7145172953605652,-0.0252304542809724,-0.0693614482879638,0.0,0.0,0.8025326728820801,-0.2373824119567871
-0.0594992637634277,0.5369212031364441,-0.0491112247109413,-0.6832476258277893,-0.0284645073115825,-0.0646812245249748,0.0,0.0,0.4130208492279053,0.542994499206543
-0.0599474906921386,0.5217592716217041,-0.0405881516635417,-0.6739531755447388,-0.0326421819627285,-0.0835536420345306,0.0,0.0,-0.7244954705238342,-0.4781662225723266
-0.060378074645996,0.5062990784645081,-0.0389607101678848,-0.6872114539146423,-0.0366952866315841,-0.0810620635747909,0.0,0.0,0.0702344179153442,0.2482744455337524
-0.060755155980587,0.4913711249828338,-0.0337990596890449,-0.6635681986808777,-0.0405549332499504,-0.0771929696202278,0.0,0.0,0.5831549167633057,-0.4535027146339416
-0.0610211379826068,0.476560115814209,-0.0231927745044231,-0.6583618521690369,-0.0439171195030212,-0.0672438815236091,0.0,0.0,0.6463013887405396,-0.6629708409309387
-0.0612496361136436,0.4627348482608795,-0.0209919586777687,-0.6145135164260864,-0.0457558892667293,-0.0367751866579055,0.0,0.0,-0.5402853488922119,0.5515153408050537
-0.0614166259765625,0.4486063420772552,-0.014044739305973,-0.6280182600021362,-0.0483787842094898,-0.0524580851197242,0.0,0.0,-0.2304098010063171,-0.4405262470245361
-0.0615569129586219,0.4341794848442077,-0.0115231536328792,-0.6412753462791443,-0.0508555248379707,-0.0495348274707794,0.0,0.0,0.4597222805023193,-0.7534660696983337
-0.0616700164973735,0.420281708240509,-0.0105182882398366,-0.6177060604095459,-0.0516335777938365,-0.0155608849599957,0.0,0.0,0.1045598983764648,0.4301923513412475
-0.0618094429373741,0.4069379568099975,-0.0129095446318387,-0.593088686466217,-0.0526562482118606,-0.0204533971846103,0.0,0.0,-0.1424526572227478,0.4756295680999756
-0.0619165413081646,0.3932958841323852,-0.0098332352936267,-0.6063452363014221,-0.0535215437412261,-0.0173057578504085,0.0,0.0,0.8228921890258789,-0.6013039350509644
-0.0620537772774696,0.3800040781497955,-0.0141148790717124,-0.5907326936721802,-0.0531354844570159,0.0077212937176227,0.0,0.0,-0.1841712594032287,0.6538009643554688
-0.0620976462960243,0.3664024174213409,-0.0034772269427776,-0.6045518517494202,-0.0540347248315811,-0.0179847404360771,0.0,0.0,0.8800239562988281,-0.1124772429466247
-0.0621186271309852,0.3530837893486023,-0.0011809647548943,-0.5919725894927979,-0.0549331903457641,-0.017969386652112,0.0,0.0,0.8673522472381592,0.4835336208343506
-0.0620597824454307,0.3408102989196777,0.0066587710753083,-0.5455182194709778,-0.0557054653763771,-0.0154454680159688,0.0,0.0,0.6751236915588379,0.4112920761108398
-0.0618322379887104,0.3294703960418701,0.022985927760601,-0.5040057897567749,-0.055929634720087,-0.004483469761908,0.0,0.0,-0.3598375916481018,-0.7448520660400391
-0.0616307258605957,0.3178454339504242,0.0184292159974575,-0.5166030526161194,-0.054218515753746,0.034222163259983,0.0,0.0,-0.2787173986434936,0.4390115737915039
-0.0613837242126464,0.3059220314025879,0.0227825678884983,-0.5298596620559692,-0.0523298643529415,0.0377731062471866,0.0,0.0,0.6553083658218384,0.4510562419891357
-0.0610078796744346,0.2948835790157318,0.035303346812725,-0.4905219376087188,-0.0500745847821235,0.0451054796576499,0.0,0.0,-0.2077490091323852,-0.2236828207969665
-0.0605832114815712,0.2835466861724853,0.0400034300982952,-0.5037787556648254,-0.0476377047598362,0.0487377941608428,0.0,0.0,0.2332072257995605,0.0831862688064575
-0.0601247772574424,0.2726725339889526,0.0433873943984508,-0.4832205474376678,-0.0452067628502845,0.0486187450587749,0.0,0.0,-0.4505683183670044,-0.2089653015136718
-0.0596140846610069,0.2615000903606415,0.0484211295843124,-0.4964775145053863,-0.0425909310579299,0.0523166842758655,0.0,0.0,0.6255602836608887,-0.1368159651756286
-0.0589393600821495,0.2508816719055176,0.0642254501581192,-0.4718384146690368,-0.0393920093774795,0.0639785081148147,0.0,0.0,-0.3007538318634033,-0.4372406005859375
-0.0582093223929405,0.2399650961160659,0.0695772990584373,-0.4850958585739136,-0.0360057242214679,0.0677258521318435,0.0,0.0,0.0217519998550415,-0.5659819841384888
-0.0573939308524131,0.2291184514760971,0.076682761311531,-0.481964647769928,-0.0312139000743627,0.0958365276455879,0.0,0.0,0.1401548385620117,0.0264465808868408
-0.0564064010977745,0.2185598462820053,0.0932391583919525,-0.4691651165485382,-0.0257634073495864,0.1090101227164268,0.0,0.0,-0.1848933100700378,-0.5376055240631104
-0.0553915984928607,0.2077005505561828,0.0949263498187065,-0.4825372099876404,-0.0193020906299352,0.1292264759540558,0.0,0.0,0.1242345571517944,-0.5083631873130798
-0.0543501861393451,0.1973152458667755,0.0963907912373542,-0.461488127708435,-0.0116481129080057,0.1530795693397522,0.0,0.0,0.0074307918548583,-0.2491635680198669
-0.0532218925654888,0.1873259097337722,0.1047948822379112,-0.4439297020435333,-0.003717009210959,0.1586222350597381,0.0,0.0,0.0807856321334838,-0.7792062163352966
-0.0519955642521381,0.1776964962482452,0.1127804666757583,-0.4279743731021881,0.006009692326188,0.194534033536911,0.0,0.0,-0.1490764021873474,-0.1552619338035583
-0.0507040992379188,0.1677701026201248,0.1190944164991378,-0.4412395656108856,0.015925733372569,0.1983208060264587,0.0,0.0,0.5455803871154785,-0.3808403611183166
-0.0494031906127929,0.1582602113485336,0.1200820058584213,-0.4227993786334991,0.0258031170815229,0.1975478231906891,0.0,0.0,0.0602974891662597,-0.7386081218719482
-0.0480454452335834,0.149292841553688,0.1240539401769638,-0.3987903296947479,0.037381362169981,0.2315647602081298,0.0,0.0,-0.4155335426330566,0.6016299724578857
-0.0465736389160156,0.1400312036275863,0.1364357620477676,-0.4119255840778351,0.0479960218071937,0.2122932970523834,0.0,0.0,0.4781169891357422,-0.2742714881896972
-0.045177936553955,0.1315313130617141,0.1291636526584625,-0.3781390786170959,0.0582813657820224,0.2057067900896072,0.0,0.0,-0.2887980341911316,-0.8854349255561829
-0.0437722206115722,0.1227341741323471,0.1284682601690292,-0.3914999067783355,0.0702574625611305,0.2395218312740326,0.0,0.0,0.1068513393402099,-0.498832106590271
-0.0423666946589946,0.114389069378376,0.1284455955028534,-0.3715029656887054,0.082250066101551,0.2398519068956375,0.0,0.0,0.3247673511505127,-0.5086528658866882
-0.0410507209599018,0.1066354140639305,0.1184599623084068,-0.3453797698020935,0.0952676013112068,0.2603504955768585,0.0,0.0,-0.1919998526573181,0.522826075553894
-0.0396228805184364,0.0985897183418273,0.1304885447025299,-0.3584138751029968,0.10746481269598,0.2439444810152053,0.0,0.0,0.6525983810424805,0.6375045776367188
-0.0382622703909873,0.0911333858966827,0.1251762211322784,-0.3322136104106903,0.1182725131511688,0.2161539793014526,0.0,0.0,0.0692737102508544,0.6038308143615723
-0.0369293205440044,0.0838730409741401,0.1236195117235183,-0.323477953672409,0.1278993636369705,0.1925368756055832,0.0,0.0,0.1205723285675048,0.3409435749053955
-0.0355134010314941,0.0770548656582832,0.1314278542995453,-0.3039338886737823,0.1380286961793899,0.2025866508483886,0.0,0.0,0.134944200515747,0.4789718389511108
-0.034016229212284,0.070325382053852,0.1391940265893936,-0.3000956773757934,0.1485198438167572,0.2098231762647628,0.0,0.0,0.2139050960540771,0.0879228115081787
-0.0324220657348632,0.0641548037528991,0.1482569277286529,-0.275402694940567,0.1596673280000686,0.222949743270874,0.0,0.0,0.1528266668319702,-0.037753939628601
-0.0308549888432025,0.0584858991205692,0.1454843580722808,-0.2531929910182953,0.1709004789590835,0.2246627360582351,0.0,0.0,-0.0977237820625305,-0.3435431718826294
-0.0292129516601562,0.0525208823382854,0.1528415232896804,-0.2664627730846405,0.1822890490293502,0.2277713268995285,0.0,0.0,0.4656749963760376,-0.3670737743377685
-0.0275226589292287,0.0470365844666957,0.1572356075048446,-0.2452412992715835,0.1941417008638382,0.2370528429746627,0.0,0.0,0.1518446207046508,-0.5633472204208374
-0.0259171482175588,0.04208530113101,0.1475321799516677,-0.2218198627233505,0.2072582691907882,0.2623317241668701,0.0,0.0,0.0783064365386962,-0.2165833711624145
-0.0243038181215524,0.0376052223145961,0.1480213105678558,-0.2010405361652374,0.2206992954015731,0.2688206732273102,0.0,0.0,-0.2639303207397461,-0.4575847387313843
-0.0226160045713186,0.0328294597566127,0.1553819924592971,-0.2143149673938751,0.2342763394117355,0.2715409398078918,0.0,0.0,0.2286752462387085,-0.3409203290939331
-0.0210492126643657,0.0283975228667259,0.1436168849468231,-0.1991133838891983,0.2475630342960357,0.2657331824302673,0.0,0.0,-0.1173319816589355,-0.4215916395187378
-0.0194084160029888,0.0236698966473341,0.1509299427270889,-0.2123875021934509,0.2609741687774658,0.2682228684425354,0.0,1.0,0.9949398040771484,0.9970748424530028
-0.0179313663393259,0.0206002332270145,0.1522812098264694,-0.1364409476518631,0.2540948390960693,-0.1407338678836822,0.0,1.0,0.9353315830230712,0.6551622152328491
-0.0166705138981342,0.0188474282622337,0.1513446271419525,-0.0737721621990203,0.2283038347959518,-0.5159695744514465,0.0,1.0,0.3235843181610107,-0.7730082273483276
-0.0155651094391942,0.0175847858190536,0.1458966732025146,-0.0510743074119091,0.1924933791160583,-0.7163693904876709,0.0,1.0,0.3102145195007324,-0.8117201924324036
-0.0145560260862112,0.0168791860342025,0.1358303129673004,-0.0272353906184434,0.1573635190725326,-0.7027330994606018,0.0,1.0,0.1492289304733276,-0.9027753472328186
-0.0136595722287893,0.016683779656887,0.1215278357267379,-0.0056262332946062,0.1255493015050888,-0.6363102197647095,0.0,1.0,0.1505869626998901,-0.8836866021156311
