x_pos,y_pos,x_vel,y_vel,angle,ang_vel,leg_1,leg_2,main_booster,lat_booster
-0.0015540122985839,1.403084397315979,-0.1573740988969802,-0.3482557833194732,0.0017742440104484,0.0349992997944355,0.0,0.0,0.2392303693340747,0.7404917083147369
-0.0030329704750329,1.3952473402023315,-0.148208886384964,-0.3483131825923919,0.0020845022518187,0.0062064779922366,0.0,0.0,-0.1430720483047542,-0.607865444894645
-0.0045714378356933,1.3868650197982788,-0.1550966501235962,-0.372548907995224,0.0033162280451506,0.024636510759592,0.0,0.0,0.1207257150381346,-0.6407981796242002
-0.0062705040909349,1.3784481287002563,-0.1722923815250396,-0.3740871548652649,0.0056642359122633,0.0469647124409675,0.0,0.0,0.047304879603083,0.5939821284868074
-0.0078480718657374,1.3701143264770508,-0.1590685248374939,-0.3704000115394592,0.0069664292968809,0.0260463003069162,0.0,0.0,0.7154505914158291,-0.6628624333755195
-0.0093378070741891,1.362086296081543,-0.1519970893859863,-0.3568178713321686,0.0099559230729937,0.0597954578697681,0.0,0.0,0.6456151384404492,0.531931604682061
-0.0108222011476755,1.354381084442139,-0.1503218561410904,-0.3424640297889709,0.01181779243052,0.0372407361865043,0.0,0.0,-0.2171992036950967,-0.8987667054134199
-0.0123627660796046,1.3461376428604126,-0.1572906523942947,-0.3664098083972931,0.0150175606831908,0.0640013664960861,0.0,0.0,0.7645937386097945,0.6845183876923733
-0.0138760562986135,1.338702917098999,-0.153164803981781,-0.3304487764835357,0.0168270338326692,0.0361930206418037,0.0,0.0,0.2639935549910592,-0.8376430725026109
-0.0154610630124807,1.3315651416778564,-0.1620102524757385,-0.3172827959060669,0.0203008968383073,0.0694836229085922,0.0,0.0,0.0142777829440481,-0.9316008886185954
-0.0170555114746093,1.3244349956512451,-0.1648204922676086,-0.3169742524623871,0.0256157927215099,0.1063073277473449,0.0,0.0,0.2024675385154657,0.9490042698266128
-0.0185134895145893,1.3173449039459229,-0.1493007093667984,-0.3151837587356567,0.0290848948061466,0.0693884342908859,0.0,0.0,0.1646182394509152,0.9481790703462304
-0.019788360223174,1.3104666471481323,-0.1291426122188568,-0.3057286143302917,0.0307199489325284,0.032703973352909,0.0,0.0,-0.9362746242818636,0.823646613017897
-0.0209726337343454,1.3030438423156738,-0.1182658076286315,-0.3298929631710052,0.0305580496788024,-0.0032381867058575,0.0,0.0,-0.5941306633990266,0.550711473078118
-0.0220822338014841,1.2950893640518188,-0.1094566136598587,-0.3535055518150329,0.029075788334012,-0.0296479165554046,0.0,0.0,0.8795294938321805,-0.6231040542959556
-0.0230926517397165,1.2870981693267822,-0.1011949181556701,-0.3551686108112335,0.0292262677103281,0.0030095274560153,0.0,0.0,0.8203654587063189,-0.8793481622791179
-0.0240052230656147,1.2799944877624512,-0.0935409590601921,-0.3157622218132019,0.0314726419746875,0.0449316166341304,0.0,0.0,-0.3573849609346153,0.6432887476055216
-0.024825096130371,1.272348165512085,-0.0827017351984977,-0.3398553431034088,0.0321843288838863,0.0142350895330309,0.0,0.0,-0.9792123803325592,-0.6749947888741912
-0.0256568901240825,1.2641658782958984,-0.0851001292467117,-0.3636930286884308,0.0340716280043125,0.0377495065331459,0.0,0.0,-0.6532792728402925,-0.8511432041469937
-0.0265298839658498,1.255439519882202,-0.091187834739685,-0.3879346549510956,0.0379320345818996,0.0772150009870529,0.0,0.0,0.2178130971249814,0.5079915213896298
-0.0272435192018747,1.2470155954360962,-0.0745378881692886,-0.3744743764400482,0.0410698875784873,0.0627625584602356,0.0,0.0,-0.4993477834827551,-0.5737572484632244
-0.027961540967226,1.2380459308624268,-0.0761656686663627,-0.3987848460674286,0.045396838337183,0.086546704173088,0.0,0.0,-0.4855217787457044,0.7375012345796926
-0.0285662654787302,1.2285399436950684,-0.0631276220083236,-0.4225658178329468,0.0480174832046031,0.0524175278842449,0.0,0.0,0.8286025423011796,0.8766794552426893
-0.0289882663637399,1.219013214111328,-0.0433328934013843,-0.4234515130519867,0.0491375997662544,0.022404370829463,0.0,0.0,-0.9414057850557886,0.7797327367492706
-0.0293168071657419,1.2089518308639526,-0.0328721739351749,-0.447172611951828,0.0491632260382175,0.0005123525043018,0.0,0.0,-0.5789579161639695,-0.9624205542238676
-0.0296907424926757,1.1983271837234497,-0.0399277992546558,-0.4722917675971985,0.0516651757061481,0.050039030611515,0.0,0.0,0.0379664223882711,0.944411560650372
-0.0299607273191213,1.1878581047058103,-0.0277342498302459,-0.4653158187866211,0.0523924082517623,0.0145446388050913,0.0,0.0,0.2932307157497391,0.569582884579653
-0.0302797313779592,1.177817463874817,-0.0313739888370037,-0.4462350904941559,0.0518723390996456,-0.0104015078395605,0.0,0.0,-0.7641397169606621,0.6750365739458983
-0.0305036548525095,1.167245626449585,-0.0209251921623945,-0.4698103368282318,0.0504216030240058,-0.0290144197642803,0.0,0.0,-0.1897912911823958,-0.5278015292013523
-0.0307157523930072,1.1561284065246582,-0.0209730826318264,-0.4940852224826813,0.0501889213919639,-0.0046537485904991,0.0,0.0,0.1581446836802358,-0.7141387697167396
-0.0309431068599224,1.1453654766082764,-0.0240995325148105,-0.4784037172794342,0.0515312440693378,0.0268466733396053,0.0,0.0,-0.969373106956482,-0.3409342765808105
-0.0311129577457904,1.13406240940094,-0.0184939373284578,-0.5024081468582153,0.0530209019780159,0.0297930184751749,0.0,0.0,-0.9454847574234008,0.1918007135391235
-0.0312241557985544,1.1222193241119385,-0.0127822188660502,-0.5264126658439636,0.0546661727130413,0.032905489206314,0.0,0.0,-0.9021239280700684,0.2511457204818725
-0.0312755592167377,1.1098365783691406,-0.0069745392538607,-0.5504172444343567,0.0564753785729408,0.0361840464174747,0.0,0.0,-0.8145341873168945,-0.0386613011360168
-0.0312663093209266,1.0969138145446775,-0.0010808855295181,-0.5744219422340393,0.0584567934274673,0.0396283492445945,0.0,0.0,-0.9413121342658995,-0.120502769947052
-0.0311955455690622,1.083451271057129,0.0048889447934925,-0.5984268188476562,0.0606186687946319,0.0432378016412258,0.0,0.0,-0.9362313151359558,-0.3307709097862243
-0.0310624130070209,1.069448709487915,0.0109253320842981,-0.6224318146705627,0.0629692450165748,0.0470114015042781,0.0,0.0,-0.8688858151435852,0.3355519771575928
-0.0308664329349994,1.0549063682556152,0.0170188434422016,-0.6464369893074036,0.0655166283249855,0.0509479120373725,0.0,0.0,-0.7630704045295715,0.5511398315429688
-0.0305665973573923,1.0398342609405518,0.0282380040735006,-0.6699475646018982,0.0672419220209121,0.0345055796205997,0.0,0.0,-0.8202030062675476,0.5027990341186523
-0.0301612857729196,1.0242270231246948,0.0396305546164512,-0.6936901211738586,0.0681318491697311,0.0177987813949584,0.0,0.0,-0.481524109840393,-0.1128046512603759
-0.0296916011720895,1.008080005645752,0.0458404161036014,-0.7176950573921204,0.0692424848675727,0.0222128257155418,0.0,0.0,0.0983530282974243,0.7129800319671631
-0.0290316585451364,0.991927981376648,0.0659843981266021,-0.7178713083267212,0.0692509487271308,0.0001693426456768,0.0,0.0,-0.4551913738250732,0.3648087978363037
-0.0283069610595703,0.9752360582351683,0.072227656841278,-0.7418763041496277,0.0694954246282577,0.0048897974193096,0.0,0.0,-0.6497747898101807,0.3191133737564087
-0.0275172237306833,0.9580042362213136,0.0784748420119285,-0.7658814191818237,0.069983385503292,0.0097592324018478,0.0,0.0,0.3064066171646118,0.101669430732727
-0.0267108920961618,0.9405776262283324,0.0800341665744781,-0.7745429277420044,0.0705734267830848,0.0118007911369204,0.0,0.0,0.0055897235870361,-0.561763346195221
-0.0258667953312397,0.922908365726471,0.082376480102539,-0.7853937149047852,0.0725853741168975,0.040239118039608,0.0,0.0,0.2344940900802612,0.6256718635559082
-0.0248821265995502,0.9052065014839172,0.0973394364118576,-0.7868074178695679,0.0737018212676048,0.0223289616405963,0.0,0.0,0.4894522428512573,0.9275169372558594
-0.023930262774229,0.8880946040153503,0.0957787111401557,-0.7605017423629761,0.0731161385774612,-0.0117137935012578,0.0,0.0,-0.1368625164031982,0.554253101348877
-0.0228802673518657,0.8704515099525452,0.1061794534325599,-0.7840812802314758,0.0719468742609024,-0.023385152220726,0.0,0.0,0.0105918645858764,0.517535924911499
-0.0217621810734272,0.8527354598045349,0.1137666329741478,-0.7872863411903381,0.0700085163116455,-0.0387674123048782,0.0,0.0,0.345743179321289,0.0535235404968261
-0.0204966552555561,0.8351879715919495,0.1276727765798568,-0.7798387408256531,0.0689016431570053,-0.0221375953406095,0.0,0.0,0.3293646574020386,-0.7384082674980164
-0.0193193443119525,0.8179811835289001,0.1171417608857154,-0.7647727131843567,0.069486990571022,0.0117069482803344,0.0,0.0,-0.7914109230041504,0.4713289737701416
-0.0180797576904296,0.8002347350120544,0.1230653896927833,-0.7887782454490662,0.070375345647335,0.0177669860422611,0.0,0.0,-0.1013585925102233,0.4049793481826782
-0.0167784690856933,0.7819483280181885,0.1289156526327133,-0.8127838373184204,0.0715724155306816,0.0239414870738983,0.0,0.0,-0.0342530012130737,0.174617052078247
-0.0154163362458348,0.7631220817565918,0.1346855759620666,-0.8367894291877747,0.0730837434530258,0.0302266925573349,0.0,0.0,-0.1937198638916015,0.8879632949829102
-0.0139350891113281,0.7437588572502136,0.1477860957384109,-0.8606094121932983,0.0734280422329902,0.0068858475424349,0.0,0.0,-0.2605525851249695,-0.1689255237579345
-0.0123945232480764,0.7238556742668152,0.1533748656511306,-0.8846150636672974,0.0740971341729164,0.0133818183094263,0.0,0.0,0.5966224670410156,-0.1013944745063781
-0.010711002163589,0.70440274477005,0.166717380285263,-0.8646604418754578,0.0757129341363906,0.0323161855340004,0.0,0.0,0.0199378728866577,-0.2705718278884887
-0.0089627262204885,0.6851755380630493,0.1726399958133697,-0.8546563386917114,0.0778766945004463,0.0432756729423999,0.0,0.0,-0.5485233068466187,-0.7015212774276733
-0.0072210310027003,0.6654074192047119,0.1700541079044342,-0.8787983059883118,0.0819519236683845,0.0815042853355407,0.0,0.0,0.592741847038269,-0.8207948803901672
-0.0054633142426609,0.6456255912780762,0.1695770919322967,-0.8795514702796936,0.0880973562598228,0.1229083091020584,0.0,0.0,0.8629888296127319,0.4309813976287842
-0.0038339614402502,0.626471221446991,0.1569100767374038,-0.8516674041748047,0.0940677300095558,0.1194075495004654,0.0,0.0,0.6818766593933105,0.836108922958374
-0.0019968985579907,0.6075907945632935,0.1787672042846679,-0.8394495248794556,0.0989643633365631,0.0979325026273727,0.0,0.0,0.7589573860168457,0.3092851638793945
-0.0001482009829487,0.5891489386558533,0.1794601827859878,-0.8200080990791321,0.1043333038687706,0.1073789149522781,0.0,0.0,0.7954239845275879,-0.1269190311431884
0.0017133712535724,0.570819079875946,0.1803485602140426,-0.8150777220726013,0.1101016551256179,0.115367092192173,0.0,0.0,0.7794771194458008,0.5934062004089355
0.0034579276107251,0.5528836250305176,0.1698471158742904,-0.7974790334701538,0.1146763786673545,0.0914944186806678,0.0,0.0,0.6169970035552979,-0.0348767638206481
0.0051744459196925,0.5356606841087341,0.1665765643119812,-0.7658615708351135,0.1197155714035034,0.1007839664816856,0.0,0.0,0.6068376302719116,0.7829468250274658
0.0070521356537938,0.5183396935462952,0.183747798204422,-0.7701482176780701,0.123722955584526,0.0801473781466484,0.0,0.0,0.4395177364349365,-0.2656980752944946
0.0089054107666015,0.501591145992279,0.1808061748743057,-0.7447633147239685,0.1282131224870681,0.0898034572601318,0.0,0.0,0.7740886211395264,0.1429998874664306
0.0106355668976902,0.4850401878356933,0.1686005592346191,-0.7359852194786072,0.1326127648353576,0.0879930928349495,0.0,0.0,0.4497106075286865,0.6194632053375244
0.0122887613251805,0.4688282012939453,0.161957710981369,-0.7208351492881775,0.1359694600105285,0.0671338587999343,0.0,0.0,0.6181710958480835,0.7487838268280029
0.0139897344633936,0.4530030190944671,0.1677828580141067,-0.7035539150238037,0.1382747888565063,0.0461064390838146,0.0,0.0,0.6162561178207397,0.4833214282989502
0.0154892923310399,0.4378399550914764,0.1478374004364013,-0.6741122007369995,0.1403823792934417,0.0421517044305801,0.0,0.0,0.1634880304336547,0.496673583984375
0.0170186050236225,0.4227525591850281,0.1501942574977874,-0.6708155870437622,0.1431170552968979,0.0546934902667999,0.0,0.0,0.2083311080932617,0.7896120548248291
0.0185754783451557,0.407551646232605,0.1541597992181778,-0.6757413744926453,0.1446405798196792,0.0304703768342733,0.0,0.0,0.3978420495986938,0.2430911064147949
0.0201817508786916,0.3922321796417236,0.1584300845861435,-0.6810789108276367,0.1468224227428436,0.043637178838253,0.0,0.0,0.6799783706665039,0.3066470623016357
0.0217358581721782,0.376878559589386,0.1529792994260788,-0.6826240420341492,0.149249866604805,0.0485486052930355,0.0,0.0,0.9470007419586182,0.8908534049987793
0.0232375152409076,0.3623935580253601,0.149148017168045,-0.643882691860199,0.1502662599086761,0.0203275401145219,0.0,0.0,0.5956153869628906,0.3626356124877929
0.024724293500185,0.3485549986362457,0.1469061821699142,-0.6152232885360718,0.1520379781723022,0.035433929413557,0.0,0.0,0.2856942415237427,0.3550982475280761
0.0260532386600971,0.3351005315780639,0.131131112575531,-0.5981584191322327,0.1538050025701522,0.0353403054177761,0.0,0.0,0.2864044904708862,0.9093341827392578
0.0273229591548442,0.3214696943759918,0.1266962438821792,-0.6058454513549805,0.1540832221508026,0.0055642933584749,0.0,0.0,0.5851186513900757,0.2892826795578003
0.0285358428955078,0.3084327280521393,0.1204259991645813,-0.5795134902000427,0.1549423187971115,0.0171818770468235,0.0,0.0,0.5651167631149292,0.8057818412780762
0.0296416282653808,0.2956543266773224,0.1110937446355819,-0.567870557308197,0.1544190943241119,-0.0104644149541854,0.0,0.0,0.7731924057006836,0.7401139736175537
0.0306471828371286,0.2834168076515198,0.102300189435482,-0.5437107086181641,0.1526795327663421,-0.0347912423312664,0.0,0.0,0.8919085264205933,0.4055948257446289
0.0315334312617778,0.2718240916728973,0.0900221318006515,-0.5150892734527588,0.1512809693813324,-0.027971526607871,0.0,0.0,0.9320664405822754,0.512040376663208
0.0324779525399208,0.2607346773147583,0.0961475223302841,-0.4926918745040893,0.1495862156152725,-0.0338948406279087,0.0,0.0,0.952245593070984,0.1346302032470703
0.0334023460745811,0.2497121691703796,0.0936035215854644,-0.4897710382938385,0.1484261453151703,-0.0232012886554002,0.0,0.0,0.8622164726257324,0.1517866849899292
0.0343739502131938,0.2388469278812408,0.0974248647689819,-0.4828734993934631,0.1481549441814422,-0.0054238969460129,0.0,0.0,0.8168513774871826,-0.90636944770813
0.0353684425354003,0.2283976823091507,0.0971946716308593,-0.4646377861499786,0.1504071503877639,0.0450444929301738,0.0,0.0,0.6860389709472656,-0.5474750399589539
0.0364184379577636,0.2180265486240387,0.1008312851190567,-0.4613648355007171,0.1545659750699997,0.0831765234470367,0.0,0.0,0.948199987411499,0.7384836673736572
0.0373879447579383,0.2084464877843856,0.0938823074102401,-0.4261029362678528,0.1576310843229293,0.061302326619625,0.0,0.0,0.8787680864334106,-0.226932406425476
0.0382611267268657,0.1996135115623474,0.0836960449814796,-0.3929673135280609,0.1612621843814849,0.072621926665306,0.0,0.0,0.9623198509216307,-0.6551183462142944
0.0391154289245605,0.1914428621530532,0.0796660780906677,-0.3637771308422088,0.1670185178518295,0.115126647055149,0.0,0.0,0.913755178451538,0.1594558954238891
0.040023423731327,0.1833219081163406,0.0841118693351745,-0.3616970777511596,0.1737159937620163,0.1339494884014129,0.0,0.0,0.8959112167358398,0.8319756984710693
0.0408305153250694,0.1755231916904449,0.0754219740629196,-0.347235232591629,0.1790129989385604,0.1059402674436569,0.0,0.0,0.9206570386886596,-0.1094767451286315
0.0415545478463172,0.1686926484107971,0.0662768259644508,-0.3043346107006073,0.185162216424942,0.1229844316840171,0.0,0.0,0.9734444618225098,0.2811928987503052
0.0421236045658588,0.1623180657625198,0.0505117550492286,-0.2841262817382812,0.1915774047374725,0.1283036768436432,0.0,0.0,0.9504263401031494,0.7430057525634766
0.0424105636775493,0.1567657589912414,0.0237884186208248,-0.2474135309457779,0.1965171098709106,0.0987938418984413,0.0,0.0,0.7758548259735107,0.1562086343765258
0.0426379218697547,0.1518055945634842,0.0170175023376941,-0.2212198823690414,0.2022788524627685,0.1152348071336746,0.0,0.0,0.4501338005065918,0.5096415281295776
0.0427163131535053,0.1472750306129455,0.0028928518295288,-0.2020465284585952,0.2072732746601104,0.0998885706067085,0.0,0.0,0.3786759376525879,0.1501928567886352
0.0425915718078613,0.1431016474962234,-0.0174798034131526,-0.1861959248781204,0.2123305797576904,0.1011460646986961,0.0,0.0,-0.5049954056739807,0.5445582866668701
0.0424995422363281,0.1384007781744003,-0.0135524626821279,-0.2095586657524109,0.2167169898748397,0.0877282321453094,0.0,0.0,0.3537037372589111,0.4993069171905517
0.0421992316842079,0.1338521838188171,-0.0342950895428657,-0.2027936428785324,0.2210347950458526,0.0863559693098068,0.0,0.0,-0.8938405513763428,0.4733867645263672
0.0418893806636333,0.1287648528814315,-0.0356211066246032,-0.2268055975437164,0.2257211953401565,0.093728169798851,0.0,0.0,-0.6254647374153137,0.9398778676986694
0.0416532531380653,0.1231734156608581,-0.0263974424451589,-0.2489389479160308,0.2285394370555877,0.0563648268580436,0.0,0.0,0.1175309419631958,0.6227232217788696
0.0414434447884559,0.1174348443746566,-0.0229320377111434,-0.2553525865077972,0.2305282056331634,0.039775013923645,0.0,0.0,0.4456102848052978,0.9385590553283693
0.0412816032767295,0.1122142672538757,-0.0167582798749208,-0.2321159690618515,0.2311009168624878,0.0114543102681636,0.0,0.0,0.527885913848877,0.2414458990097046
0.0409225448966026,0.1074952185153961,-0.0367049276828765,-0.2098615914583206,0.2319194823503494,0.0163714494556188,0.0,0.0,-0.2713475227355957,0.8689804077148438
0.0406320579349994,0.1022761464118957,-0.0280494503676891,-0.2317991703748703,0.2308986485004425,-0.0204165708273649,0.0,0.0,0.3159013986587524,0.8095037937164307
0.0403521545231342,0.0972378104925155,-0.0257645193487405,-0.2235798686742782,0.2286480367183685,-0.0450126081705093,0.0,0.0,0.5466780662536621,0.9937632083892822
0.0399532318115234,0.0928108766674995,-0.0359884202480316,-0.1961510330438614,0.224698320031166,-0.0789943411946296,0.0,0.0,0.2968673706054687,0.9756245613098145
0.0395310409367084,0.0888018012046814,-0.0366960801184177,-0.1773521155118942,0.2191082537174224,-0.1118013486266136,0.0,0.0,-0.178836703300476,0.9724776744842528
0.0391810424625873,0.0842776596546173,-0.0275669246912002,-0.1999871581792831,0.2116016447544098,-0.1501323729753494,0.0,0.0,0.4203865528106689,0.7570279836654663
0.0386496558785438,0.0799778327345848,-0.0443085059523582,-0.1898602992296219,0.2026828825473785,-0.1783750206232071,0.0,0.0,-0.2484501004219055,0.972772479057312
0.038164235651493,0.0751557201147079,-0.0384271927177906,-0.212966188788414,0.1925050318241119,-0.2035571634769439,0.0,0.0,0.4876468181610107,0.98567795753479
0.0376232154667377,0.0705585554242134,-0.0422486625611782,-0.2028239518404007,0.1805948168039322,-0.2382043898105621,0.0,0.0,0.210196852684021,0.980560064315796
0.0370973572134971,0.0660256966948509,-0.0389985851943492,-0.1998619437217712,0.166974738240242,-0.2724016010761261,0.0,0.0,0.0201865434646606,0.9277875423431396
0.0366903319954872,0.0613185279071331,-0.0254416968673467,-0.2075640112161636,0.1517099738121032,-0.305295467376709,0.0,0.0,-0.4549174308776855,0.4458932876586914
0.0362709984183311,0.0560747012495994,-0.0268664844334125,-0.2315897494554519,0.1366695016622543,-0.3008091747760772,0.0,0.0,0.3247365951538086,0.2280852794647216
0.0357715599238872,0.0512593127787113,-0.0351375266909599,-0.2127232402563095,0.1219310089945793,-0.2947694659233093,0.0,0.0,0.178063154220581,-0.319585919380188
0.0352790839970111,0.046246513724327,-0.0348298400640487,-0.2216759622097015,0.1075955405831337,-0.2867094874382019,0.0,0.0,0.3932781219482422,-0.1920578479766845
0.034802533686161,0.0414862744510173,-0.0337740704417228,-0.2106259614229202,0.0938190445303917,-0.2755298316478729,0.0,0.0,0.4025865793228149,-0.5615857839584351
