x_pos,y_pos,x_vel,y_vel,angle,ang_vel,leg_1,leg_2,main_booster,lat_booster
-0.0015249252319335,1.403076171875,-0.1550179272890091,-0.3486156761646271,0.0022647017613053,0.0447106808423996,0.0,0.0,0.0675166845321655,0.8325965404510498
-0.0029474259354174,1.395150661468506,-0.1433224231004715,-0.3522453606128692,0.0033258961047977,0.0212266705930233,0.0,0.0,-0.1067241430282592,0.5879958868026733
-0.00431489944458,1.3866724967956543,-0.1368609517812729,-0.3768120110034942,0.003433515317738,0.0021526175551116,0.0,0.0,0.1563279628753662,0.7607722282409668
-0.0057206153869628,1.3781678676605225,-0.1395119875669479,-0.3779808282852173,0.0023870181757956,-0.0209319479763507,0.0,0.0,0.0279039144515991,0.3614988327026367
-0.0070487977936863,1.369723916053772,-0.1325916349887848,-0.3752904236316681,0.0021650146227329,-0.00444060517475,0.0,0.0,-0.1813237071037292,0.4337129592895508
-0.0083789825439453,1.360731601715088,-0.1332175433635711,-0.3996583521366119,0.0023668357171118,0.0040366002358496,0.0,0.0,0.3706363439559936,0.7574620246887207
-0.0096737863495945,1.351909875869751,-0.1285437047481537,-0.3920734524726867,0.0014441364910453,-0.0184559114277362,0.0,0.0,-0.0876287817955017,0.8681704998016357
-0.0108855245634913,1.3425426483154297,-0.1184750795364379,-0.416322112083435,-0.0012315363856032,-0.0535184442996978,0.0,0.0,-0.0011186599731445,0.2750356197357178
-0.0120997428894042,1.3326271772384644,-0.1190993636846542,-0.4406848549842834,-0.003534264396876,-0.0460585281252861,0.0,0.0,-0.1001144051551818,0.7885174751281738
-0.0132546424865722,1.322168231010437,-0.1119433268904686,-0.4648498296737671,-0.0070451782085001,-0.0702248439192771,0.0,0.0,0.6212849617004395,0.8316603899002075
-0.0142488479614257,1.312035322189331,-0.0947043374180793,-0.4503812193870544,-0.0117067079991102,-0.0932391360402107,0.0,0.0,0.0512973070144653,0.60565185546875
-0.015143871307373,1.3018555641174316,-0.0839570313692092,-0.4524882435798645,-0.0171877741813659,-0.1096314415335655,0.0,0.0,-0.3150209188461303,0.5168198347091675
-0.015992546454072,1.2911293506622314,-0.0783575922250747,-0.4768100380897522,-0.0236299205571413,-0.1288545876741409,0.0,0.0,-0.930795431137085,-0.3119245767593384
-0.0168447494506835,1.279855489730835,-0.0789732635021209,-0.5011761784553528,-0.0298122204840183,-0.1236574202775955,0.0,0.0,-0.3764504790306091,-0.9450138211250304
-0.0177577026188373,1.2680459022521973,-0.0867314711213111,-0.5249676704406738,-0.0343246012926101,-0.0902555212378501,0.0,0.0,-0.0591670274734497,-0.8817201256752014
-0.0187318809330463,1.2556806802749634,-0.0945127308368682,-0.5496323704719543,-0.0372021533548831,-0.0575559623539447,0.0,0.0,-0.1435190439224243,0.4474595785140991
-0.0197106357663869,1.242767333984375,-0.0951357930898666,-0.5739979147911072,-0.0399038530886173,-0.0540391579270362,0.0,0.0,-0.0262178778648376,-0.8339931964874268
-0.0207445137202739,1.2293015718460083,-0.1020801067352294,-0.5985109210014343,-0.0411950498819351,-0.0258263945579528,0.0,0.0,-0.3535746335983276,-0.7310501337051392
-0.0218316074460744,1.2152975797653198,-0.1087561622262001,-0.6224018931388855,-0.041151825338602,0.0008645737543702,0.0,0.0,0.2597150802612304,-0.5130699872970581
-0.0230137817561626,1.2013983726501465,-0.1192212700843811,-0.6177141666412354,-0.0401558727025985,0.0199207365512847,0.0,0.0,0.4597204923629761,0.4989327192306518
-0.0240622516721487,1.1879397630691528,-0.1064454689621925,-0.5981199741363525,-0.0385809764266014,0.0315007753670215,0.0,0.0,-0.1130510568618774,0.3473027944564819
-0.0251168254762887,1.1739327907562256,-0.1070695370435714,-0.6224907040596008,-0.0369851291179657,0.0319198258221149,0.0,0.0,-0.0776261687278747,-0.1913812160491943
-0.0261776931583881,1.1593778133392334,-0.1076895594596862,-0.6468546390533447,-0.0353995747864246,0.0317138321697711,0.0,0.0,-0.4706989526748657,0.0384905338287353
-0.0272451397031545,1.1442745923995972,-0.1083066016435623,-0.671220600605011,-0.0338562503457069,0.0308694448322057,0.0,0.0,-0.1278386116027832,0.5857689380645752
-0.0282839778810739,1.1286228895187378,-0.1044753417372703,-0.6956150531768799,-0.0332766063511371,0.0115937571972608,0.0,0.0,0.3284890651702881,-0.1636973619461059
-0.029428768903017,1.1132562160491943,-0.1144083589315414,-0.682963490486145,-0.0333432927727699,-0.0013337195850908,0.0,0.0,0.8910458087921143,-0.0477879047393798
-0.0305488593876361,1.0985877513885498,-0.1118184700608253,-0.6519339680671692,-0.0335244983434677,-0.0036241202615201,0.0,0.0,-0.409209132194519,-0.0519419312477111
-0.0316764824092388,1.08337140083313,-0.1124156713485717,-0.6762979626655579,-0.0338698476552963,-0.0069072060286998,0.0,0.0,-0.1618716716766357,-0.6098994612693787
-0.0328706726431846,1.0676147937774658,-0.120361641049385,-0.7002719044685364,-0.0329313352704048,0.018770171329379,0.0,0.0,-0.6706308722496033,-0.378575325012207
-0.0340728759765625,1.0513101816177368,-0.1209512203931808,-0.7246361374855042,-0.0322131291031837,0.0143642174080014,0.0,0.0,0.1390199661254882,-0.3860273957252502
-0.0352518074214458,1.0353318452835083,-0.1184263676404953,-0.7101345062255859,-0.031682014465332,0.0106221651658415,0.0,0.0,-0.1573976278305053,0.075424313545227
-0.0364392288029193,1.0188053846359253,-0.1190083399415016,-0.7344987988471985,-0.0314227975904941,0.0051844520494341,0.0,0.0,0.5569415092468262,0.145045518875122
-0.0376895889639854,1.0028672218322754,-0.1246235221624374,-0.7083703875541687,-0.031819399446249,-0.0079320995137095,0.0,0.0,-0.6760447025299072,-0.0203139781951904
-0.0389487259089946,0.98638117313385,-0.1251979172229766,-0.7327347993850708,-0.0325344130396842,-0.0143002662807703,0.0,0.0,0.7468032836914062,-0.0552918910980224
-0.040178395807743,0.9703402519226074,-0.1219709068536758,-0.7129473090171814,-0.0335096567869186,-0.0195048153400421,0.0,0.0,-0.2548741698265075,0.2908960580825805
-0.0414173118770122,0.953751504421234,-0.1225377470254898,-0.7373120188713074,-0.0348445810377597,-0.0266985949128866,0.0,0.0,0.5063416957855225,-0.3263200521469116
-0.0426750183105468,0.9372382164001464,-0.1239324361085891,-0.7339655160903931,-0.0366686433553695,-0.0364811606705188,0.0,0.0,-0.7405573725700378,-0.8263747692108154
-0.0440034866333007,0.9201868176460266,-0.1321575939655304,-0.7578600645065308,-0.0373477935791015,-0.0135831730440258,0.0,0.0,0.1805570125579834,-0.8603048324584961
-0.0454195030033588,0.9035050272941588,-0.1422114074230194,-0.7413958311080933,-0.0367446951568126,0.0120618743821978,0.0,0.0,-0.2151892185211181,-0.3656421899795532
-0.0468454360961914,0.8862754106521606,-0.1427628695964813,-0.7657606601715088,-0.0365686528384685,0.0035207555629312,0.0,0.0,-0.4486629962921142,-0.5783972144126892
-0.0483348853886127,0.868505597114563,-0.1500553041696548,-0.7897441983222961,-0.0354784354567527,0.0218045394867658,0.0,0.0,0.7328360080718994,-0.1602620482444763
-0.0496855750679969,0.8510040044784546,-0.1363185346126556,-0.7778192758560181,-0.0342432893812656,0.024702962487936,0.0,0.0,0.4878460168838501,0.2375247478485107
-0.0509491935372352,0.8333733677864075,-0.1275551170110702,-0.7835569977760315,-0.0330691039562225,0.0234835483133792,0.0,0.0,-0.0624839067459106,0.3215013742446899
-0.052223015576601,0.8151947259902954,-0.1280898749828338,-0.8079220056533813,-0.0323715135455131,0.0139517979696393,0.0,0.0,0.7253574132919312,-0.5144200325012207
-0.0535831451416015,0.7969273924827576,-0.1371301114559173,-0.8118607401847839,-0.0312654003500938,0.0221225656569004,0.0,0.0,0.5285840034484863,0.3340601921081543
-0.0549013130366802,0.7785734534263611,-0.1326386481523513,-0.8157092928886414,-0.0304585210978984,0.0161375720053911,0.0,0.0,0.6551389694213867,0.8311598300933838
-0.0560827255249023,0.7603322863578796,-0.1168958768248558,-0.8107460737228394,-0.0316944979131221,-0.0247193183749914,0.0,0.0,0.3640437126159668,-0.3713370561599731
-0.0573453903198242,0.7425796389579773,-0.1240676641464233,-0.7890546917915344,-0.0338718183338642,-0.0435465648770332,0.0,0.0,0.9059180021286012,-0.1123689413070678
-0.0587406158447265,0.7256500124931335,-0.1360750049352646,-0.7525114417076111,-0.0372764021158218,-0.0680914744734764,0.0,0.0,-0.2866511940956116,-0.2962146401405334
-0.0601461417973041,0.7081725597381592,-0.1365787237882614,-0.7768776416778564,-0.0412066541612148,-0.0786045938730239,0.0,0.0,-0.3609217405319214,0.1508339643478393
-0.0615620613098144,0.6901473999023438,-0.1370761692523956,-0.80124431848526,-0.0456685051321983,-0.0892367884516716,0.0,0.0,0.7774758338928223,0.0158860683441162
-0.0630139335989952,0.6727668642997742,-0.1398442536592483,-0.7726477980613708,-0.0509540550410747,-0.1057110652327537,0.0,0.0,0.7710068225860596,0.2729907035827636
-0.0643348693847656,0.6555436253547668,-0.1267440617084503,-0.7656658887863159,-0.056239616125822,-0.1057114005088806,0.0,0.0,0.7652771472930908,-0.4072698354721069
-0.0656147003173828,0.6390491127967834,-0.1221013814210891,-0.7333154082298279,-0.0620561353862285,-0.1163301691412925,0.0,0.0,0.44911789894104,-0.6684769988059998
-0.0667876228690147,0.6226367354393005,-0.1124785169959068,-0.7296492457389832,-0.0668181255459785,-0.0952397733926773,0.0,0.0,-0.0088924765586853,-0.5701119899749756
-0.0680230110883712,0.605679452419281,-0.1194932460784912,-0.7538384795188904,-0.0708202719688415,-0.0800428986549377,0.0,0.0,0.4013898372650146,-0.471227765083313
-0.0691411048173904,0.5891778469085693,-0.1075746640563011,-0.7336094379425049,-0.0750117376446724,-0.0838294327259063,0.0,0.0,0.595566987991333,-0.2237358093261718
-0.0700875297188758,0.5730881690979004,-0.0904626101255416,-0.7153114676475525,-0.0791480764746666,-0.0827270150184631,0.0,0.0,0.7662100791931152,-0.5473998188972473
-0.0709321051836013,0.5577678084373474,-0.081055536866188,-0.6810857057571411,-0.0825227349996566,-0.0674929469823837,0.0,0.0,-0.1270721554756164,-0.5745142698287964
-0.0718374252319336,0.5419114232063293,-0.0878489390015602,-0.7048788666725159,-0.0851736590266227,-0.0530185811221599,0.0,0.0,0.5617845058441162,-0.8251391053199768
-0.0727343559265136,0.5260250568389893,-0.0881877914071083,-0.7061479091644287,-0.0866682231426239,-0.0298912171274423,0.0,0.0,0.8724660873413086,-0.2624144554138183
-0.0736853629350662,0.5107938647270203,-0.0924857705831527,-0.6770915985107422,-0.0892602726817131,-0.0518409684300422,0.0,0.0,0.578784704208374,-0.3871302604675293
-0.0744843482971191,0.4957380294799804,-0.0772494152188301,-0.6693122386932373,-0.0918801128864288,-0.0523969531059265,0.0,0.0,0.740679144859314,0.4685336351394653
-0.0752085670828819,0.4810959696769714,-0.0693255960941314,-0.6509540677070618,-0.0949608162045478,-0.0616138949990272,0.0,0.0,0.3170019388198852,-0.4755345582962036
-0.0759056061506271,0.4663828015327453,-0.0660466402769088,-0.6541538238525391,-0.0985900610685348,-0.0725847631692886,0.0,0.0,-0.2395651340484619,0.0784828662872314
-0.0766118019819259,0.4511224627494812,-0.0663724318146705,-0.6785231828689575,-0.1027982234954834,-0.0841633230447769,0.0,0.0,0.9542033672332764,-0.7888732552528381
-0.0772568732500076,0.4368398189544678,-0.0613323859870433,-0.6350067257881165,-0.1059491261839866,-0.0630179494619369,0.0,0.0,0.7015573978424072,-0.4457066655158996
-0.0777947455644607,0.4224457740783691,-0.0504201464354991,-0.6399773955345154,-0.1092906892299652,-0.0668312609195709,0.0,0.0,0.8262244462966919,-0.8553075790405273
-0.0782718658447265,0.4089270234107971,-0.045550812035799,-0.6009934544563293,-0.1114436984062194,-0.043060328811407,0.0,0.0,0.7883516550064087,-0.9488710761070251
-0.0788881331682205,0.3956522345542907,-0.0606003105640411,-0.5900710821151733,-0.1124648675322532,-0.0204233266413211,0.0,0.0,0.2279845476150512,-0.7164656519889832
-0.0795885100960731,0.3826056122779846,-0.0697588175535202,-0.5798677206039429,-0.1127382516860961,-0.0054676821455359,0.0,0.0,0.6405771970748901,0.1095283031463623
-0.080196663737297,0.369927704334259,-0.0601048395037651,-0.5635168552398682,-0.1134563237428665,-0.0143612269312143,0.0,0.0,0.1675648689270019,0.0399391651153564
-0.0808354392647743,0.3576074838638305,-0.062134850770235,-0.5476982593536377,-0.1151822879910469,-0.0345191992819309,0.0,0.0,0.363713264465332,-0.4463903307914734
-0.0813663452863693,0.3454398512840271,-0.0510526522994041,-0.5409439206123352,-0.1172151938080787,-0.0406581535935401,0.0,0.0,0.0947756767272949,-0.3860461711883545
-0.0818962082266807,0.3331150710582733,-0.050247736275196,-0.5479891896247864,-0.1199395582079887,-0.0544875562191009,0.0,0.0,0.0321751832962036,-0.2721021175384521
-0.082366369664669,0.3205378651618957,-0.0438792034983634,-0.5592405796051025,-0.1230560988187789,-0.0623307339847087,0.0,0.0,0.3944964408874511,-0.5475757718086243
-0.0828799232840538,0.3078480064868927,-0.0486608371138572,-0.5642202496528625,-0.1257370859384536,-0.0536195859313011,0.0,0.0,0.4398255348205566,-0.9027184844017028
-0.0833911895751953,0.2956627011299133,-0.0496495179831981,-0.5416925549507141,-0.1272102743387222,-0.0294634643942117,0.0,0.0,0.6631913185119629,-0.9283298254013062
-0.0837864875793457,0.2841581106185913,-0.0394501164555549,-0.5113211870193481,-0.1272891461849212,-0.0015775175997987,0.0,0.0,-0.3948197364807129,-0.6906781792640686
-0.0842509269714355,0.2721255719661712,-0.0474197827279567,-0.5346964597702026,-0.1263187974691391,0.0194066502153873,0.0,0.0,0.3724665641784668,0.0941613912582397
-0.0847925171256065,0.2599755823612213,-0.0540404319763183,-0.5400082468986511,-0.1264361143112182,-0.0023464376572519,0.0,0.0,0.8511364459991455,-0.535612940788269
-0.0852212905883789,0.2486000806093216,-0.0433699414134025,-0.5055361986160278,-0.1259349286556244,0.0100238267332315,0.0,0.0,0.5825812816619873,-0.6457695960998535
-0.0857406631112098,0.2375272065401077,-0.0529145821928978,-0.4920456111431122,-0.1249670088291168,0.0193584375083446,0.0,0.0,0.1140357255935669,0.3438611030578613
-0.086243912577629,0.2265943139791488,-0.0505395419895648,-0.4858901798725128,-0.1247606948018074,0.0041265804320573,0.0,0.0,0.6775505542755127,0.0785348415374755
-0.0866747871041297,0.2161731868982315,-0.0426460392773151,-0.4631968438625335,-0.1252010911703109,-0.0088079143315553,0.0,0.0,-0.3745587468147278,-0.7782302498817444
-0.0871614441275596,0.2052148878574371,-0.0489663369953632,-0.4870102107524872,-0.1249028071761131,0.0059657138772308,0.0,0.0,0.1560889482498169,0.3552267551422119
-0.0876049995422363,0.1940628439188003,-0.044146604835987,-0.4956671297550201,-0.1251177936792373,-0.0042995964176952,0.0,0.0,0.881453275680542,-0.1774638891220092
-0.0878895744681358,0.1830262243747711,-0.0281362626701593,-0.4905447661876678,-0.1254337280988693,-0.0063185119070112,0.0,0.0,0.8959624767303467,-0.4219516515731811
-0.0879272446036338,0.1723859459161758,-0.0036441436968743,-0.4729118347167969,-0.1255578398704528,-0.002482168842107,0.0,0.0,0.8220661878585815,-0.3288387060165405
-0.087760254740715,0.1618168950080871,0.0166952461004257,-0.4697361290454864,-0.125559389591217,-3.0683455406688154e-05,0.0,0.0,0.9207229614257812,-0.8875298500061035
-0.0875622779130935,0.1520213931798935,0.0186191909015178,-0.4352578222751617,-0.1243876442313194,0.0234346371144056,0.0,0.0,0.6348743438720703,-0.9080937504768372
-0.087309643626213,0.1428097635507583,0.022803546860814,-0.4092026948928833,-0.1219384595751762,0.0489836372435092,0.0,0.0,0.6705160140991211,-0.8422082662582397
-0.086903765797615,0.1340450793504715,0.0367932878434658,-0.3892366588115692,-0.1181580871343612,0.0756073966622352,0.0,0.0,0.3421645164489746,-0.6873408555984497
-0.0864319801330566,0.125114694237709,0.0424274206161499,-0.3965373635292053,-0.1134449318051338,0.0942631736397743,0.0,0.0,0.648881196975708,-0.3901141881942749
-0.0859559997916221,0.1164035871624946,0.0436887517571449,-0.3868666291236877,-0.1095584332942962,0.0777301713824272,0.0,0.0,0.5592235326766968,-0.6215342879295349
-0.0853538513183593,0.1083606779575347,0.0554367713630199,-0.3571182787418365,-0.1048167943954467,0.0948326736688613,0.0,0.0,0.0314345359802246,-0.8868617415428162
-0.0848021507263183,0.1003142669796943,0.0491880513727664,-0.357210248708725,-0.0988868623971939,0.1185988336801529,0.0,0.0,0.2716302871704101,-0.3207005262374878
-0.0842859297990799,0.0926490128040313,0.0466797798871994,-0.3403606414794922,-0.0939797237515449,0.098142959177494,0.0,0.0,0.2524369955062866,-0.3947949409484863
-0.0836545974016189,0.0852172970771789,0.0584531649947166,-0.3300119340419769,-0.0893453359603881,0.0926876589655876,0.0,0.0,0.0629233121871948,-0.2776045203208923
-0.0830147713422775,0.0779640972614288,0.0600529238581657,-0.3221348822116852,-0.0854462832212448,0.0779807716608047,0.0,0.0,0.434786319732666,-0.7094777822494507
-0.0824543014168739,0.0711578726768493,0.0514022707939147,-0.3022386133670807,-0.080844260752201,0.0920405238866806,0.0,0.0,0.1010031700134277,0.095017671585083
-0.0818833336234092,0.0643025711178779,0.0530965104699134,-0.3044713139533996,-0.0768904313445091,0.0790765509009361,0.0,0.0,0.4900438785552978,0.2581081390380859
-0.0813754051923751,0.0577231496572494,0.0478655286133289,-0.2922732532024383,-0.0739922970533371,0.0579627528786659,0.0,0.0,0.3422774076461792,-0.0850729942321777
-0.0809575095772743,0.0512461513280868,0.0400025956332683,-0.2877761721611023,-0.0722258612513542,0.0353289172053337,0.0,0.0,0.6645321846008301,-0.3634076714515686
-0.080380342900753,0.0452932938933372,0.0559960603713989,-0.264491468667984,-0.070528857409954,0.0339401885867118,0.0,0.0,0.0769383907318115,0.1958100795745849
-0.0797457695007324,0.039148386567831,0.062123853713274,-0.2730431258678436,-0.069206565618515,0.026445735245943,0.0,0.0,0.4637477397918701,0.4225902557373047
-0.0789354294538497,0.0334540233016014,0.0796583518385887,-0.2530207633972168,-0.0678459629416465,0.0272121615707874,0.0,0.0,0.3989601135253906,0.7871856689453125
-0.0780388861894607,0.0281978230923414,0.0904509350657463,-0.2336474061012268,-0.0686333775520324,-0.0157482735812664,0.0,0.0,0.323746919631958,0.2197431325912475
-0.0769803971052169,0.0234066825360059,0.106672465801239,-0.2129760682582855,-0.0694398581981659,-0.0161298159509897,0.0,0.0,0.264829158782959,-0.0616981983184814
-0.0758316069841384,0.0187258347868919,0.115965187549591,-0.2080893367528915,-0.0705194547772407,-0.0215919874608516,0.0,0.0,0.5726590156555176,-0.1145383715629577
-0.0746336951851844,0.0146609637886285,0.1214556694030761,-0.1807410269975662,-0.0721691325306892,-0.0329932048916816,0.0,0.0,0.3659957647323608,-0.8027605414390564
-0.0733941048383712,0.0110304690897464,0.1244752258062362,-0.1613818556070327,-0.0726803764700889,-0.0102251004427671,0.0,0.0,0.5063071250915527,-0.7340766191482544
-0.0720998793840408,0.0074714636430144,0.1288545429706573,-0.1581502705812454,-0.0721135437488555,0.0113364597782492,0.0,0.0,0.391257643699646,-0.3479843139648437
-0.0707751289010047,0.0048846341669559,0.1139011234045028,-0.114184945821762,-0.0537299774587154,0.3676899671554565,1.0,0.0,0.397770881652832,-0.7832117676734924
-0.0695217102766037,0.0029337739106267,0.0912782698869705,-0.0858383551239967,-0.0200332328677177,0.6739875078201294,1.0,0.0,0.2319223880767822,-0.0176929235458374
-0.0682958588004112,0.0010492182336747,0.0897307842969894,-0.0836378261446952,0.0123949507251381,0.6485637426376343,1.0,0.0,0.4212989807128906,-0.0936886668205261
-0.0672736167907714,-0.0001185440996778,0.0891278684139251,-0.0520587638020515,0.0253291074186563,0.2586776614189148,0.0,1.0,-0.7189555764198303,0.837712287902832
-0.066402718424797,-0.0012859845301136,0.0957406535744667,-0.051765814423561,0.0167924053966999,-0.1707335263490677,0.0,1.0,-0.5070868730545044,-0.0410751104354858
-0.0656588524580001,-0.0018270754953846,0.0837172120809555,-0.0239721499383449,0.0075891576707363,-0.184065043926239,1.0,1.0,0.0687638521194458,-0.9823295474052428
-0.0650585144758224,-0.0010546350385993,0.0659178867936134,0.0343510434031486,0.0017798470798879,-0.1161905527114868,1.0,1.0,-0.5879594087600708,-0.8510538935661316
