x_pos,y_pos,x_vel,y_vel,angle,ang_vel,leg_1,leg_2,main_booster,lat_booster
-0.0015156746376305,1.4032034873962402,-0.1537545323371887,-0.3429692685604095,0.001960749970749,0.0386925749480724,0.0,0.0,-0.4786754126306725,0.9727243668546406
-0.0029396056197583,1.3950841426849363,-0.1424375623464584,-0.360857218503952,0.00200179615058,0.0008215806446969,0.0,0.0,-0.4121641277459571,-0.9908209101153882
-0.0044145584106445,1.38653564453125,-0.149322897195816,-0.3799295723438263,0.0038115482311695,0.0361981727182865,0.0,0.0,-0.3087175424200012,-0.6859115710104304
-0.005943679716438,1.3775638341903689,-0.1566509306430816,-0.3987722098827362,0.0075101107358932,0.0739781111478805,0.0,0.0,-0.8231400763683325,-0.8246253862025839
-0.007512760348618,1.3681727647781372,-0.1622320264577865,-0.4174092710018158,0.0127793187275528,0.1053940281271934,0.0,0.0,0.1063645776456541,0.8024971848990279
-0.0089052198454737,1.358908772468567,-0.1433613896369934,-0.4117799401283264,0.0168481953442096,0.0813848599791526,0.0,0.0,-0.3582405102396391,0.6300273739166226
-0.0102374078705906,1.3492248058319092,-0.1364512890577316,-0.4304375648498535,0.0200483165681362,0.0640085339546203,0.0,0.0,-0.9735803498646908,-0.7446761319242488
-0.011600399389863,1.339120864868164,-0.1410101801156997,-0.4491330683231354,0.0247096735984087,0.0932354182004928,0.0,0.0,0.795437306862415,-0.7324153820501704
-0.013043975457549,1.3299652338027954,-0.1508720815181732,-0.407033771276474,0.0311574060469865,0.1289666295051574,0.0,0.0,-0.7974425757939991,0.7382249828654501
-0.014414882287383,1.3203964233398438,-0.1425306349992752,-0.4254116714000702,0.0365320071578025,0.1075020805001258,0.0,0.0,-0.6765862663264921,0.8075761357063057
-0.015697956085205,1.3104114532470703,-0.132293552160263,-0.4438806772232055,0.0404841601848602,0.0790498256683349,0.0,0.0,0.8989874078144091,-0.8109494224642707
-0.0169646255671978,1.3009157180786133,-0.1329104453325271,-0.4222130477428436,0.0466641038656234,0.1236102804541587,0.0,0.0,-0.3424893994247548,0.6427772359847569
-0.0181532856076955,1.2910070419311523,-0.123983584344387,-0.4405575692653656,0.0517297536134719,0.1013220697641372,0.0,0.0,0.5157907905321972,0.7228995434072127
-0.0192147251218557,1.2811689376831057,-0.1103939637541771,-0.4373993575572967,0.0559507235884666,0.0844268649816513,0.0,0.0,0.6470627510854707,-0.8896294797067233
-0.0202177055180072,1.2721576690673828,-0.1070708185434341,-0.4007642865180969,0.0626517608761787,0.134033203125,0.0,0.0,0.6969081193138105,0.8253292258216219
-0.0210319515317678,1.2631912231445312,-0.0872521847486496,-0.3987622261047363,0.0684250593185424,0.1154761165380477,0.0,0.0,0.581392589258318,0.7520828729175958
-0.0216793064028024,1.2550597190856934,-0.0698305666446685,-0.3616472780704498,0.0734714791178703,0.10093754529953,0.0,0.0,0.127873099054067,-0.7766473531350189
-0.0222754478454589,1.246889352798462,-0.0668597221374511,-0.3634999990463257,0.0806567817926406,0.1437190622091293,0.0,0.0,-0.9525416849759204,-0.959979807783542
-0.0229156501591205,1.2383005619049072,-0.0733930319547653,-0.3822527229785919,0.0899521261453628,0.1859237253665924,0.0,0.0,-0.0677868340090972,-0.7251457871321565
-0.0236003883183002,1.229283571243286,-0.0800067335367202,-0.4014865756034851,0.1014050468802452,0.2290793657302856,0.0,0.0,-0.445348074072968,0.6595596658415335
-0.0242021568119525,1.2198621034622192,-0.0706235319375991,-0.4194746315479278,0.1117939874529838,0.2077975273132324,0.0,0.0,0.703088856975344,-0.9879732469235653
-0.0248973853886127,1.2106856107711792,-0.0825043395161628,-0.4088669717311859,0.1247118711471557,0.2583807110786438,0.0,0.0,-0.0780765835176378,0.978636997438042
-0.0254780761897563,1.2011067867279053,-0.0691868513822555,-0.4266943633556366,0.1358010619878769,0.2218038737773895,0.0,0.0,0.3954251324228728,-0.914343752919198
-0.026076603680849,1.191490650177002,-0.0734087824821472,-0.4286779165267944,0.1493379324674606,0.2707618474960327,0.0,0.0,-0.8655637051129064,0.9271204163003958
-0.0265981666743755,1.181471586227417,-0.0648242160677909,-0.4466150999069214,0.1620141267776489,0.25354665517807,0.0,0.0,-0.375620902330509,0.9299807749091084
-0.0270405765622854,1.1710315942764282,-0.0560523681342601,-0.4653292298316955,0.1738431751728058,0.236580803990364,0.0,0.0,-0.3165304210099473,0.9183429173481829
-0.0273887626826763,1.1601979732513428,-0.0453331544995307,-0.4827566742897033,0.1843891143798828,0.2109184265136718,0.0,0.0,-0.0804057556468305,0.6576389140006232
-0.0276746749877929,1.1489640474319458,-0.0386206693947315,-0.500568151473999,0.1944755464792251,0.2017287462949752,0.0,0.0,0.3749487106748028,0.9694200439723436
-0.0281103141605854,1.138254165649414,-0.0521459951996803,-0.4771495759487152,0.2031120508909225,0.1727300435304641,0.0,0.0,-0.0901553327593771,-0.7329885265331573
-0.0285805705934762,1.1271051168441772,-0.0576802566647529,-0.4970161020755768,0.2138626277446746,0.2150119245052337,0.0,0.0,-0.4556289836898648,-0.8368797401787152
-0.0290908813476562,1.1155271530151367,-0.0638568922877311,-0.5164826512336731,0.2268293648958206,0.2593349814414978,0.0,0.0,-0.969795091033065,-0.6776780690457536
-0.0296355243772268,1.103508234024048,-0.0693611726164817,-0.5365355014801025,0.2419366836547851,0.3021466732025146,0.0,0.0,0.1959995570192407,0.7021813268952345
-0.0303080566227436,1.091920018196106,-0.0811970755457878,-0.5173865556716919,0.2561376392841339,0.2840189039707184,0.0,0.0,-0.7509620742842398,0.9211389883349392
-0.030892277136445,1.0799317359924316,-0.0712739676237106,-0.5351107716560364,0.269282579421997,0.2628990113735199,0.0,0.0,-0.3848215991818593,0.8704028495634091
-0.0313846580684185,1.067556381225586,-0.0608702078461647,-0.5522024631500244,0.2812202274799347,0.2387531548738479,0.0,0.0,-0.7551873279085717,0.730499941734291
-0.031796645373106,1.0547934770584106,-0.0519078150391578,-0.5693278908729553,0.2922337055206299,0.2202697098255157,0.0,0.0,-0.8366180733501183,-0.7322000839503029
-0.0322412475943565,1.0415844917297363,-0.0572228506207466,-0.5896870493888855,0.3054144978523254,0.2636159062385559,0.0,0.0,-0.9514059370534602,-0.634602997678906
-0.0327072143554687,1.0279426574707031,-0.0610673911869525,-0.6094102263450623,0.320413738489151,0.2999846637248993,0.0,0.0,-0.8547858558550929,-0.9815204835241326
-0.0332299247384071,1.013857126235962,-0.069269098341465,-0.6298826932907104,0.3381502330303192,0.3547303080558777,0.0,0.0,-0.2034080212878846,-0.6873306548732374
-0.033777616918087,0.9993330240249634,-0.0735425502061843,-0.6500447392463684,0.3578434586524963,0.3938652276992798,0.0,0.0,0.7923903933540837,0.7837946141564649
-0.0346605293452739,0.985553741455078,-0.1057360768318176,-0.616868793964386,0.3762880563735962,0.3688917756080627,0.0,0.0,-0.4701665043830871,0.9677180051803588
-0.0354342460632324,0.9714087247848512,-0.0930317491292953,-0.6328829526901245,0.3929546177387237,0.333331286907196,0.0,0.0,-0.4244515895843506,0.98978853225708
-0.0360982902348041,0.95689058303833,-0.0803412646055221,-0.6491746306419373,0.4078833758831024,0.2985756993293762,0.0,0.0,-0.6906349062919617,0.9897065162658693
-0.0366554260253906,0.9420089721679688,-0.0679269060492515,-0.6649817824363708,0.4210510849952698,0.2633543014526367,0.0,0.0,-0.572620689868927,0.9916543960571288
-0.0371198654174804,0.9267452955245972,-0.0573972649872303,-0.6817061901092529,0.4329403340816498,0.2377849519252777,0.0,0.0,-0.4558351039886474,0.9986600875854492
-0.0374815948307514,0.911109209060669,-0.0456151440739631,-0.6978786587715149,0.4432338178157806,0.2058698683977127,0.0,0.0,-0.485975444316864,0.990941286087036
-0.0377412810921669,0.8951067924499512,-0.0338855125010013,-0.7137420773506165,0.4518875181674957,0.1730737388134002,0.0,0.0,-0.3740575313568115,0.9959678649902344
-0.0379243865609169,0.878739058971405,-0.0252034701406955,-0.7297146916389465,0.4594632089138031,0.1515146791934967,0.0,0.0,-0.4835445880889892,0.9959319829940796
-0.0380331054329872,0.8620024919509888,-0.0168266203254461,-0.745826005935669,0.4660322368144989,0.1313808411359787,0.0,0.0,-0.4336221218109131,0.9983174800872804
-0.0380512252449989,0.8448972702026367,-0.0065031154081225,-0.7618154287338257,0.4712191522121429,0.1037380546331405,0.0,0.0,-0.0108711123466491,0.99827241897583
-0.0379611030220985,0.8274404406547546,0.0061006126925349,-0.7768493890762329,0.4744467437267303,0.0645518079400062,0.0,0.0,-0.1135623455047607,0.9994394779205322
-0.037788487970829,0.80962073802948,0.0154979974031448,-0.7925899624824524,0.4764008820056915,0.0390829183161258,0.0,0.0,-0.0564249753952026,0.9985449314117432
-0.037510871887207,0.791442334651947,0.0276535153388977,-0.8079648613929749,0.4765203595161438,0.0023893075995147,0.0,0.0,-0.2097523212432861,0.9994684457778932
-0.0371455177664756,0.7729088068008423,0.0377660170197486,-0.8232861161231995,0.4751512706279754,-0.0273815281689167,0.0,0.0,0.2269234657287597,0.9999616146087646
-0.0367391593754291,0.7545806765556335,0.0431903190910816,-0.8137120008468628,0.4723166823387146,-0.0566917955875396,0.0,0.0,0.4005100727081299,0.9999547004699708
-0.0365069396793842,0.7363545298576355,0.0271405763924121,-0.8087208271026611,0.4679848253726959,-0.0866376832127571,0.0,0.0,-0.3049608469009399,0.9986283779144288
-0.0361777320504188,0.7177808880805969,0.0384681113064289,-0.8236461281776428,0.4618558585643768,-0.1225786581635475,0.0,0.0,0.6014139652252197,0.9999785423278807
-0.0359167084097862,0.6998254060745239,0.0328714437782764,-0.7957925796508789,0.4544033408164978,-0.1490505635738372,0.0,0.0,0.1173471212387085,0.999750018119812
-0.0357607826590538,0.6823042035102844,0.0237350743263959,-0.7760910391807556,0.4454576373100281,-0.1789141446352005,0.0,0.0,-0.1707615256309509,0.9998502731323242
-0.0355288498103618,0.6644185185432434,0.0324905589222908,-0.7919922471046448,0.4353142976760864,-0.2028670608997345,0.0,0.0,0.3524746894836426,0.9890477657318116
-0.0352916717529296,0.6466010808944702,0.0343420431017875,-0.788638710975647,0.4237793385982513,-0.2306997776031494,0.0,0.0,-0.317712128162384,0.9904181957244872
-0.0349814407527446,0.6284122467041016,0.0427077859640121,-0.8049294948577881,0.411159485578537,-0.2523968517780304,0.0,0.0,0.6264163255691528,0.8834843635559082
-0.0346714034676551,0.6106288433074951,0.0436930283904075,-0.7867498993873596,0.3975355625152588,-0.2724784016609192,0.0,0.0,-0.1440368890762329,0.7797075510025024
-0.0342891700565815,0.5924679636955261,0.0519560202956199,-0.8033758401870728,0.3828723728656769,-0.2932640016078949,0.0,0.0,0.5125892162322998,0.1475178003311157
-0.0340243354439735,0.5744063258171082,0.0396627113223075,-0.7992643117904663,0.3688795864582062,-0.2798559963703155,0.0,0.0,0.6878707408905029,0.8670462369918823
-0.0340326316654682,0.5567353963851929,0.0137156695127487,-0.7817010879516602,0.3535214066505432,-0.307163655757904,0.0,0.0,0.2467367649078369,0.6508316993713379
-0.0341901779174804,0.5396012663841248,-0.0004802621551789,-0.7578439712524414,0.337483286857605,-0.320762425661087,0.0,0.0,-0.095993161201477,0.4819365739822387
-0.0343374237418174,0.5220518112182617,2.567096453276463e-05,-0.7765989899635315,0.3220818936824798,-0.3080270886421203,0.0,0.0,-0.006244957447052,0.8927347660064697
-0.034408189356327,0.5041317939758301,0.0090067517012357,-0.7929598093032837,0.305401474237442,-0.3336086571216583,0.0,0.0,0.826988697052002,0.0351850986480712
-0.0347270965576171,0.4864986538887024,-0.0158867016434669,-0.7804208397865295,0.2888756096363067,-0.330517441034317,0.0,0.0,0.9525423049926758,0.7716927528381348
-0.0353219993412494,0.4695797860622406,-0.042230449616909,-0.7486286163330078,0.2711514234542846,-0.354484498500824,0.0,0.0,0.3388432264328003,0.8169889450073242
-0.0359567627310752,0.4530138969421386,-0.0451651103794574,-0.7329774498939514,0.2524357736110687,-0.3743138909339905,0.0,0.0,-0.0019606351852416,0.816683292388916
-0.0365388877689838,0.4360614717006683,-0.0391609482467174,-0.7502805590629578,0.2330483943223953,-0.3877480030059814,0.0,0.0,0.3959527015686035,0.6604913473129272
-0.0371124260127544,0.4194487929344177,-0.0376415774226188,-0.7353463768959045,0.2130867838859558,-0.399232268333435,0.0,0.0,0.938035011291504,0.5252187252044678
-0.0377799980342388,0.4030905365943908,-0.0464056618511676,-0.7242295145988464,0.1925797760486602,-0.4101402163505554,0.0,0.0,0.6537027359008789,0.7988573312759399
-0.0383711829781532,0.3868290483951568,-0.0378582663834095,-0.720114529132843,0.1712391376495361,-0.4268129765987396,0.0,0.0,0.915414333343506,0.6025228500366211
-0.0390198715031147,0.3707317113876343,-0.0428367964923381,-0.7130428552627563,0.149218201637268,-0.4404188096523285,0.0,0.0,0.9145736694335938,0.8745862245559692
-0.039748478680849,0.3556056320667267,-0.0496307350695133,-0.6701042652130127,0.1260509639978408,-0.4633451104164123,0.0,0.0,0.3119549751281738,0.5047885179519653
-0.0404528602957725,0.3410561978816986,-0.0469031929969787,-0.6448220610618591,0.1026595532894134,-0.4678281247615814,0.0,0.0,0.1250370740890503,-0.4521006941795349
-0.0412931442260742,0.326912373304367,-0.0607079863548278,-0.6271780133247375,0.0795387551188469,-0.4624159932136535,0.0,0.0,-0.8430728316307068,-0.1074241995811462
-0.0421374328434467,0.3123549818992615,-0.0616913959383964,-0.6459437608718872,0.057039588689804,-0.4499832689762115,0.0,0.0,-0.5141147375106812,-0.2453209161758422
-0.0429868698120117,0.2973834574222564,-0.0628007277846336,-0.6647061109542847,0.0351592525839805,-0.4376067519187927,0.0,0.0,0.2265044450759887,0.0161484479904174
-0.0439327247440815,0.2826338112354278,-0.0727015286684036,-0.6551677584648132,0.0135466242209076,-0.4322525560855865,0.0,0.0,0.6555378437042236,-0.7753520607948303
-0.0450171455740928,0.2684882879257202,-0.0886164233088493,-0.6286261081695557,-0.0060258917510509,-0.3914506435394287,0.0,0.0,-0.5179470181465149,0.2762143611907959
-0.0461102500557899,0.2539265155792236,-0.0901006832718849,-0.6473749876022339,-0.0249903239309787,-0.3792887330055237,0.0,0.0,0.4633400440216064,-0.6019501686096191
-0.0471638664603233,0.2397192567586898,-0.0881689637899398,-0.6318098902702332,-0.0419700667262077,-0.3395946621894836,0.0,0.0,0.850257396697998,-0.1577869653701782
-0.0481860153377056,0.2256669104099273,-0.0857595577836036,-0.6250854730606079,-0.0582283586263656,-0.3251662254333496,0.0,0.0,0.8290824890136719,-0.9145680665969848
-0.0491533279418945,0.2118533253669738,-0.0829344168305397,-0.6145333051681519,-0.0718800351023674,-0.2730334401130676,0.0,0.0,0.7419123649597168,-0.2657397985458374
-0.049936294555664,0.1985042840242386,-0.0658257752656936,-0.5939354300498962,-0.0842272341251373,-0.2469440251588821,0.0,0.0,0.8370656967163086,-0.6083661317825317
-0.0505797378718853,0.1853710561990738,-0.0541446208953857,-0.5843038558959961,-0.094347171485424,-0.2023986130952835,0.0,0.0,0.9735807180404664,-0.9262253046035768
-0.0512348189949989,0.1731754392385482,-0.0577216856181621,-0.5425403118133545,-0.102059781551361,-0.154252141714096,0.0,0.0,0.9803122282028198,-0.9177851676940918
-0.0518454536795616,0.1619268953800201,-0.055792711675167,-0.5003029108047485,-0.1072976738214492,-0.1047576889395713,0.0,0.0,0.9883679151535034,-0.8049558997154236
-0.0522895827889442,0.1514410376548767,-0.0416779294610023,-0.4662372171878814,-0.1100120246410369,-0.0542868189513683,0.0,0.0,0.8117561340332031,-0.7139779925346375
-0.0526514053344726,0.1410490870475769,-0.0357010252773761,-0.4619005620479584,-0.1104861944913864,-0.0094836000353097,0.0,0.0,0.898003339767456,-0.33016437292099
-0.0530293472111225,0.1311173290014267,-0.0375784188508987,-0.441426157951355,-0.1107045412063598,-0.0043669831939041,0.0,0.0,0.8293087482452393,-0.6808968782424927
-0.0532757751643657,0.1221881508827209,-0.0265680309385061,-0.3967115581035614,-0.1087956950068473,0.0381769947707653,0.0,0.0,0.3356454372406006,-0.2408117651939392
-0.0535139068961143,0.1135262548923492,-0.0261588543653488,-0.3848017454147339,-0.1064637526869773,0.0466386303305625,0.0,0.0,0.6923954486846924,-0.6520155072212219
-0.0538775436580181,0.1056943535804748,-0.0401966422796249,-0.3478189706802368,-0.1026538461446762,0.0761980041861534,0.0,0.0,0.1277885437011718,-0.6261841058731079
-0.0541999824345111,0.0981522649526596,-0.0379290804266929,-0.3348263800144195,-0.0970190465450286,0.1126957759261131,0.0,0.0,0.3970038890838623,0.6634376049041748
-0.054483987390995,0.0911402553319931,-0.0331327691674232,-0.3113437592983246,-0.0923328474164009,0.0937241166830062,0.0,0.0,-0.0939231514930725,0.4390769004821777
-0.0547949783504009,0.0837069600820541,-0.0362738445401191,-0.3300591707229614,-0.0872003957629203,0.1026490777730941,0.0,0.0,0.5617309808731079,0.7308299541473389
-0.055061150342226,0.0765490382909774,-0.0307044871151447,-0.3178945779800415,-0.0831467285752296,0.0810731276869773,0.0,0.0,0.6755118370056152,0.557884693145752
-0.0553877837955951,0.06989236921072,-0.0357086583971977,-0.2956880629062652,-0.0801301822066307,0.0603308379650116,0.0,0.0,0.7557393312454224,0.858262300491333
-0.0558082573115825,0.0636575520038604,-0.0434382148087024,-0.277029424905777,-0.0787524729967117,0.0275543592870235,0.0,0.0,0.502086877822876,0.7227202653884888
-0.056044578552246,0.0579631887376308,-0.0241300817579031,-0.2530573010444641,-0.0782608985900878,0.0098315402865409,0.0,0.0,-0.2705076336860657,0.6528279781341553
-0.0562559142708778,0.0518349520862102,-0.0205194111913442,-0.2723971903324127,-0.0788687616586685,-0.01215729303658,0.0,0.0,0.6379656791687012,0.8891994953155518
-0.0562091842293739,0.046395931392908,0.0065273521468043,-0.2418331503868103,-0.0806991010904312,-0.0366070419549942,0.0,0.0,-0.29593425989151,0.3955361843109131
-0.0561954490840435,0.0405355542898178,0.0029346817173063,-0.2605485618114471,-0.0822490751743316,-0.0309993680566549,0.0,0.0,0.573021411895752,0.4504135847091675
-0.0560133941471576,0.035453163087368,0.0188831910490989,-0.2259178310632705,-0.0829196870326995,-0.0134122818708419,0.0,0.0,0.0689483880996704,0.7863864898681641
-0.0557159408926963,0.0304953679442405,0.0317569896578788,-0.2204608023166656,-0.0849065482616424,-0.0397373661398887,0.0,0.0,-0.0875178575515747,0.6610805988311768
-0.055401898920536,0.0251162871718406,0.034521572291851,-0.2392503172159195,-0.0880037322640419,-0.0619437508285045,0.0,0.0,0.4013969898223877,-0.219875156879425
-0.0550141334533691,0.0203074067831039,0.0415035746991634,-0.2138905674219131,-0.0907064080238342,-0.0540537647902965,0.0,0.0,0.2275501489639282,-0.3463588953018188
-0.054572869092226,0.0155780650675296,0.046456940472126,-0.210334911942482,-0.0930089652538299,-0.0460512600839138,0.0,0.0,0.4419001340866089,-0.4733801484107971
-0.0542252548038959,0.0112484069541096,0.0374871715903282,-0.1926020979881286,-0.0957159027457237,-0.054138533771038,0.0,0.0,0.4994535446166992,0.2482542991638183
-0.053903866559267,0.0079628443345427,0.0164749305695295,-0.1450866311788559,-0.0802242457866668,0.3097937703132629,1.0,0.0,0.6443318128585815,0.0801377296447753
-0.0534556396305561,0.0057009910233318,0.01300960034132,-0.0991274192929267,-0.048726450651884,0.6299840211868286,1.0,0.0,0.5616738796234131,0.2531483173370361
-0.0529728904366493,0.0037628985010087,0.0171483121812343,-0.0854157507419586,-0.0179804172366857,0.6149207353591919,1.0,0.0,0.4259060621261596,0.6765720844268799
-0.0523066520690918,0.00187018874567,0.0366115383803844,-0.0840262621641159,0.0116470716893672,0.5925496816635132,0.0,0.0,0.3759520053863525,0.966377019882202
-0.051516056060791,0.0004286980547476,0.0509143248200416,-0.0645169243216514,0.0394358709454536,0.5557764768600464,0.0,1.0,0.3571321964263916,0.9531793594360352
-0.0507784858345985,-6.003618182148784e-05,0.0588879957795143,-0.0223847813904285,0.0530798658728599,0.2715394496917724,0.0,1.0,-0.8620324730873108,0.6360411643981934
-0.0501782409846782,-0.0005476259975694,0.063069924712181,-0.0215752981603145,0.0500432588160038,-0.0607737228274345,0.0,1.0,-0.5229859352111816,-0.2848601341247558
