x_pos,y_pos,x_vel,y_vel,angle,ang_vel,leg_1,leg_2,main_booster,lat_booster
-0.001519012497738,1.4033429622650146,-0.153967335820198,-0.3367674052715301,0.0018413857324048,0.0363289713859558,0.0,0.0,0.2998335910137708,-0.8181058396161068
-0.0030530928634107,1.396047592163086,-0.1569910049438476,-0.3242435455322265,0.0053901653736829,0.0709829404950141,0.0,0.0,-0.8286586520597685,0.8838089531132316
-0.0044992445036768,1.3884644508361816,-0.1461314857006073,-0.3370364904403686,0.0068887025117874,0.0299734212458133,0.0,0.0,0.8981561440777996,0.5841139395751991
-0.0060469629243016,1.3814576864242554,-0.1547818779945373,-0.3114098906517029,0.006897390820086,0.0001740229636197,0.0,0.0,-0.0280872950817296,-0.8063554485139807
-0.0076427459716796,1.374171257019043,-0.1609654873609542,-0.3238505125045776,0.0082616731524467,0.0272882133722305,0.0,0.0,0.2450990037016083,0.7544687550435747
-0.0090645793825387,1.367218255996704,-0.142320841550827,-0.3090220391750335,0.0083945114165544,0.0026573988143354,0.0,0.0,0.2634883302004294,-0.8833005343758777
-0.0105790141969919,1.360644817352295,-0.1534455567598343,-0.2921628654003143,0.0103750079870224,0.0396135710179805,0.0,0.0,0.404904484907983,0.7835938022323202
-0.0118951797485351,1.3546205759048462,-0.1324023306369781,-0.2677565813064575,0.0111469971016049,0.0154416058212518,0.0,0.0,0.1745558748559161,-0.9362115856255168
-0.0133024211972951,1.3492156267166138,-0.143512412905693,-0.2402426302433014,0.0139003628864884,0.0550725273787975,0.0,0.0,0.9859535731341508,0.8431761172601504
-0.0146576883271336,1.3448452949523926,-0.1367524713277816,-0.1942493021488189,0.0151177123188972,0.0243487618863582,0.0,0.0,-0.9892267272313636,-0.760659905812183
-0.0160657875239849,1.3401925563812256,-0.1434977948665619,-0.2068145722150802,0.0177740864455699,0.0531326048076152,0.0,0.0,-0.7049546760315548,0.9057184065412788
-0.0173961631953716,1.335258722305298,-0.1338463574647903,-0.2192916721105575,0.0185773912817239,0.0160676352679729,0.0,0.0,-0.3589627479487669,0.7761876473484435
-0.018654441460967,1.3300493955612185,-0.1249108538031578,-0.2315170615911483,0.017671663314104,-0.0181163251399993,0.0,0.0,0.47007472100692,0.9405987340815104
-0.0197766311466693,1.325027585029602,-0.1096677035093307,-0.2231686115264892,0.0151472445577383,-0.0504928342998027,0.0,0.0,0.7896436579844641,-0.8441534420763284
-0.0208135601133108,1.321074366569519,-0.1033369898796081,-0.175692543387413,0.0148024158552289,-0.0068975514732301,0.0,0.0,0.3757639317982837,-0.9423537635080004
-0.0218266490846872,1.3172001838684082,-0.1031346172094345,-0.1721995025873184,0.0166002884507179,0.0359607562422752,0.0,0.0,0.2264424811010801,-0.5302290069144048
-0.0227838512510061,1.3140051364898682,-0.0990415588021278,-0.142047643661499,0.0198810063302516,0.0656202435493469,0.0,0.0,0.2114748456119832,0.6754658018276865
-0.0235797874629497,1.3109397888183594,-0.0819314569234848,-0.1362728029489517,0.0221926011145114,0.0462362356483936,0.0,0.0,0.2805925371824933,0.8475290999383125
-0.0242403987795114,1.3085389137268066,-0.0669926553964614,-0.1067136600613594,0.0231085587292909,0.0183207876980304,0.0,0.0,0.305949015484021,0.6739858859308032
-0.0249329563230276,1.3065264225006104,-0.0689181759953498,-0.0894382894039154,0.0227809958159923,-0.0065518370829522,0.0,0.0,0.7100603190388481,0.7536618795132828
-0.0254430770874023,1.3054119348526,-0.049681682139635,-0.0495145581662654,0.0214759595692157,-0.0261032972484827,0.0,0.0,-0.6760197383051771,0.6830605060855388
-0.0259018894284963,1.304013729095459,-0.0433967933058738,-0.0621118582785129,0.019015084952116,-0.0492216758430004,0.0,0.0,0.8156969883628766,-0.967943660691744
-0.0262934677302837,1.3032324314117432,-0.0390993729233741,-0.0347235649824142,0.0189619623124599,-0.0010629262542352,0.0,0.0,0.9370581120792978,0.996842205412155
-0.0265257842838764,1.3027122020721436,-0.0215764492750167,-0.0231069345027208,0.0173175707459449,-0.032890535891056,0.0,0.0,-0.2529632964315245,-0.6148761049871175
-0.0268221851438283,1.301910400390625,-0.0297554228454828,-0.0356372147798538,0.0174326114356517,0.0023009018041193,0.0,0.0,0.468243163591977,-0.7118448236956851
-0.0273325927555561,1.3017425537109375,-0.0525832660496234,-0.0074761677533388,0.018959192559123,0.0305315740406513,0.0,0.0,0.2350990448196031,-0.6260163301230159
-0.0279033668339252,1.3021103143692017,-0.0601493529975414,0.0163057409226894,0.021995035931468,0.0607167482376098,0.0,0.0,0.4608011128818265,-0.8210166626241491
-0.0286883357912302,1.3032933473587036,-0.0833126902580261,0.0524969175457954,0.0267478208988904,0.095055766403675,0.0,0.0,0.246198215216038,-0.7003730651963627
-0.0296581275761127,1.3050705194473269,-0.1033252254128456,0.0788556635379791,0.0330101326107978,0.1252463310956955,0.0,0.0,0.7777208680653434,-0.7327381011187293
-0.030730914324522,1.3073464632034302,-0.1153141483664512,0.1009577512741088,0.0409525632858276,0.1588486582040786,0.0,0.0,-0.5621370742050218,-0.64158850068581
-0.0318558700382709,1.309346318244934,-0.1220666989684104,0.0885890498757362,0.0504118353128433,0.1891849040985107,0.0,0.0,-0.5053914785385132,0.9498543739318848
-0.0329177863895893,1.3110651969909668,-0.1143861413002014,0.0760950222611427,0.0585122816264629,0.1620092242956161,0.0,0.0,-0.6582440733909607,0.9065659046173096
-0.0339203849434852,1.312517166137695,-0.1071776896715164,0.0642535164952278,0.0653448179364204,0.1366508901119232,0.0,0.0,-0.446355402469635,0.7646033763885498
-0.034870721399784,1.3136868476867676,-0.1008559092879295,0.0517201945185661,0.0711134523153305,0.115372322499752,0.0,0.0,-0.5308896899223328,0.8012146949768066
-0.0357576385140419,1.314584255218506,-0.0931620225310325,0.0396614782512187,0.0755429565906524,0.0885899439454078,0.0,0.0,-0.4654992818832397,0.7384107112884521
-0.0365858078002929,1.3152128458023071,-0.0860690027475357,0.0277680251747369,0.0787598490715026,0.0643379613757133,0.0,0.0,-0.5197501182556152,0.5882761478424072
-0.0373700149357318,1.3155624866485596,-0.080855518579483,0.0154094872996211,0.0811647549271583,0.0480983220040798,0.0,0.0,-0.3248131275177002,0.5176019668579102
-0.0381113067269325,1.315640211105347,-0.0757593512535095,0.0033635369036346,0.0827837735414505,0.03238046169281,0.0,0.0,-0.2595518827438354,-0.2034387588500976
-0.0388522148132324,1.3154367208480835,-0.0760431885719299,-0.0091541390866041,0.0847178474068641,0.0386811085045337,0.0,0.0,-0.4935715198516845,0.6604382991790771
-0.0395379066467285,1.3149597644805908,-0.0694421380758285,-0.021247386932373,0.0855923891067504,0.0174906458705663,0.0,0.0,-0.6044089198112488,0.6623713970184326
-0.0401794426143169,1.3142127990722656,-0.0642672479152679,-0.0332093685865402,0.0857008248567581,0.0021687382832169,0.0,0.0,-0.6851579546928406,0.6641933917999268
-0.0407559387385845,1.313191056251526,-0.0564725920557975,-0.045339960604906,0.0845394358038902,-0.0232283007353544,0.0,0.0,-0.7312915325164795,0.5855810642242432
-0.0412758812308311,1.311888575553894,-0.049784131348133,-0.057764247059822,0.0823520570993423,-0.04374760389328,0.0,0.0,-0.6805172562599182,0.2953035831451416
-0.0417925827205181,1.3103049993515017,-0.0498031750321388,-0.0702821984887123,0.0804940909147262,-0.0371591933071613,0.0,0.0,-0.9327679872512816,0.5534019470214844
-0.0422646515071392,1.3084385395050049,-0.0446198470890522,-0.0828160196542739,0.0779417976737022,-0.0510459952056407,0.0,0.0,-0.9487895965576172,0.41206955909729
-0.0427322387695312,1.306290864944458,-0.0445177070796489,-0.0953340306878089,0.0757233053445816,-0.044369913637638,0.0,0.0,-0.9381912350654602,0.5862481594085693
-0.0431436523795127,1.3038647174835205,-0.037943348288536,-0.1076706573367118,0.0725555568933487,-0.0633548498153686,0.0,0.0,-0.9316051602363586,0.5698177814483643
-0.0435131080448627,1.301167607307434,-0.0331519357860088,-0.1196950823068618,0.0688007026910781,-0.0750972032546997,0.0,0.0,-0.8975874185562134,-0.0174828171730041
-0.0438761711120605,1.298189401626587,-0.0328549407422542,-0.1322134882211685,0.0653848201036453,-0.0683174729347229,0.0,0.0,-0.8796985149383545,0.619124174118042
-0.0441848747432231,1.294932842254639,-0.0265632066875696,-0.1445524394512176,0.0611204616725444,-0.0852871388196945,0.0,0.0,-0.937163233757019,0.0972378253936767
-0.0444858558475971,1.2913951873779297,-0.026129325851798,-0.157070979475975,0.0571976490318775,-0.0784562304615974,0.0,0.0,-0.8814455270767212,-0.3293757438659668
-0.0447783470153808,1.28757643699646,-0.025625392794609,-0.1695892065763473,0.0536173954606056,-0.0716049969196319,0.0,0.0,-0.9821174144744872,0.4975920915603637
-0.0450615882873535,1.28347647190094,-0.0250505171716213,-0.1821071058511734,0.0503805540502071,-0.0647368878126144,0.0,0.0,-0.9785736203193665,0.8302443027496338
-0.0452692992985248,1.2791080474853516,-0.0161518715322017,-0.1940063536167144,0.0458255000412464,-0.0911013931035995,0.0,0.0,-0.9778026342391968,0.3028092384338379
-0.0454662330448627,1.274458408355713,-0.0154330115765333,-0.2065247148275375,0.0416150242090225,-0.0842093750834465,0.0,0.0,-0.934911608695984,0.7107930183410645
-0.0456043258309364,1.2695274353027344,-0.0086997523903846,-0.2190185487270355,0.0365602225065231,-0.1010958179831504,0.0,0.0,-0.9840173721313475,0.3876500129699707
-0.0457304008305072,1.2643153667449951,-0.0078353425487875,-0.2315370440483093,0.0318505726754665,-0.094193197786808,0.0,0.0,-0.9958956241607666,0.4408677816390991
-0.0458436012268066,1.2588220834732056,-0.0068979957140982,-0.2440550923347473,0.0274860523641109,-0.0872902274131774,0.0,0.0,-0.9116050601005554,0.4742590188980102
-0.0459430702030658,1.2530477046966553,-0.0058877887204289,-0.2565727531909942,0.0234665386378765,-0.0803901925683021,0.0,0.0,-0.9952248930931092,-0.2705451250076294
-0.0460284240543842,1.2469919919967651,-0.0048049641773104,-0.2690900862216949,0.0197917222976684,-0.0734963193535804,0.0,0.0,-0.8980894088745117,0.0739232301712036
-0.0460986122488975,1.2406548261642456,-0.0036499232519418,-0.281607061624527,0.0164611507207155,-0.0666114166378974,0.0,0.0,-0.9833021759986876,-0.0186954140663146
-0.0461531654000282,1.2340363264083862,-0.0024232191499322,-0.2941237390041351,0.0134741710498929,-0.059739738702774,0.0,0.0,-0.9619773030281068,0.5165886878967285
-0.0461419112980365,1.227136254310608,0.0050566978752613,-0.3066425919532776,0.0095920208841562,-0.0776433795690536,0.0,0.0,-0.9978212118148804,0.123613953590393
-0.0461134910583496,1.2199547290802002,0.0064244628883898,-0.3191593885421753,0.0060516530647873,-0.0708071887493133,0.0,0.0,-0.9910417795181274,0.3011348247528076
-0.0460673347115516,1.212491750717163,0.0078613180667161,-0.3316758573055267,0.0028519632760435,-0.0639938116073608,0.0,0.0,-0.993116855621338,-0.092402160167694
-0.0460026748478412,1.204747438430786,0.0093661230057477,-0.3441920578479767,-8.372569027415011e-06,-0.0572068318724632,0.0,0.0,-0.99791157245636,0.0907953977584838
-0.0459188446402549,1.1967215538024902,0.0109376031905412,-0.3567080199718475,-0.0025308765470981,-0.0504498295485973,0.0,0.0,-0.9891932606697084,0.2658870220184326
-0.0458151809871196,1.1884140968322754,0.012574354186654,-0.3692237436771393,-0.0047172154299914,-0.0437264591455459,0.0,0.0,-0.95807546377182,-0.2311657071113586
-0.0456912033259868,1.1798251867294312,0.0142748430371284,-0.3817392289638519,-0.0065692327916622,-0.0370405092835426,0.0,0.0,-0.994739294052124,-0.594603955745697
-0.0456006042659282,1.170952558517456,0.0092098386958241,-0.3943400681018829,-0.006721950136125,-0.0030542141757905,0.0,0.0,-0.9955891370773317,-0.2021543979644775
-0.045488454401493,1.161798357963562,0.0110327508300542,-0.4068551659584045,-0.0065446938388049,0.0035450519062578,0.0,0.0,-0.9970527291297911,-0.3591675758361816
-0.0453542694449424,1.152362585067749,0.0129141239449381,-0.4193702638149261,-0.0060399565845727,0.0100947050377726,0.0,0.0,-0.9970818758010864,-0.6047980189323425
-0.0452553741633892,1.1426522731781006,0.0075651481747627,-0.431555300951004,-0.0037504094652831,0.0457909703254699,0.0,0.0,-0.98769348859787,-0.1481561064720153
-0.0451334007084369,1.1326606273651123,0.0095574278384447,-0.4440709054470062,-0.0011390063446015,0.0522281229496002,0.0,0.0,-0.9660682082176208,-0.1360883712768554
-0.044987678527832,1.122387409210205,0.0116019751876592,-0.4565867483615875,0.001791090122424,0.0586019530892372,0.0,0.0,-0.9396509528160096,0.2078826427459716
-0.0448178276419639,1.111832857131958,0.0136965485289692,-0.4691027700901031,0.0050364648923277,0.0649074986577034,0.0,0.0,-0.98384690284729,-0.3681005239486694
-0.0446233749389648,1.1009968519210815,0.0158388279378414,-0.4816190600395202,0.0085934316739439,0.0711395144462585,0.0,0.0,-0.9489409923553468,0.651796817779541
-0.0443531051278114,1.0898858308792114,0.0244052018970251,-0.4938371777534485,0.0111796893179416,0.0517249703407287,0.0,0.0,-0.9517480134963988,0.1853822469711303
-0.0440574660897254,1.0784934759140017,0.0266356281936168,-0.5063532590866089,0.0140693606808781,0.0577932186424732,0.0,0.0,-0.9762590527534484,0.3947772979736328
-0.043736170977354,1.0668197870254517,0.0289063546806573,-0.5188696384429932,0.0172578860074281,0.0637706220149993,0.0,0.0,-0.8855292201042175,0.2202690839767456
-0.0433887466788291,1.0548646450042725,0.0312147941440343,-0.5313861966133118,0.0207404308021068,0.0696509554982185,0.0,0.0,-0.9360904097557068,0.8009424209594727
-0.042947482317686,1.0426371097564695,0.042032741010189,-0.5434680581092834,0.0228116624057292,0.0414243414998054,0.0,0.0,-0.9135910868644714,0.2705740928649902
-0.0424795150756835,1.0301283597946167,0.0444085374474525,-0.5559840798377991,0.0251661445945501,0.0470898523926734,0.0,0.0,-0.6855457425117493,0.7393472194671631
-0.0419315323233604,1.017343282699585,0.0534799695014953,-0.568250298500061,0.0264610517770051,0.0258982572704553,0.0,0.0,-0.8318353891372681,-0.2261453866958618
-0.0413565635681152,1.0042765140533447,0.055912047624588,-0.5807662606239319,0.0280270297080278,0.0313196033239364,0.0,0.0,-0.4634778499603271,0.4543420076370239
-0.0407544150948524,0.990928590297699,0.0583679862320423,-0.5932824015617371,0.0298573840409517,0.036606915295124,0.0,0.0,-0.8822331428527832,0.4787807464599609
-0.0401247963309288,0.977299153804779,0.0608448572456836,-0.6057985424995422,0.0319449789822101,0.0417517349123954,0.0,0.0,-0.6761111617088318,0.2809152603149414
-0.0394677147269248,0.9633881449699402,0.0633396953344345,-0.618314802646637,0.0342822335660457,0.046745266765356,0.0,0.0,-0.7386310696601868,0.3121919631958008
-0.0387830734252929,0.9491958618164062,0.0658494681119918,-0.6308311820030212,0.0368611551821231,0.0515783540904521,0.0,0.0,-0.8737058639526367,0.574906587600708
-0.0380147919058799,0.934720814228058,0.0754072591662406,-0.6433709263801575,0.0382654257118701,0.0280854888260364,0.0,0.0,-0.9172555208206176,0.2820088863372803
-0.0372189506888389,0.9199643731117249,0.0779375955462455,-0.6558870077133179,0.0398938730359077,0.0325688533484935,0.0,0.0,-0.7296635508537292,0.8160388469696045
-0.0363279357552528,0.9049367308616638,0.0889699757099151,-0.6679018139839172,0.0400292202830314,0.0027067877817898,0.0,0.0,-0.79692542552948,-0.3764593005180359
-0.0354094505310058,0.8896275162696838,0.0915081873536109,-0.6804177165031433,0.0403692163527011,0.0067997789010405,0.0,0.0,-0.6876247525215149,-0.130848228931427
-0.034463595598936,0.874036967754364,0.0940454378724098,-0.6929336190223694,0.0409033223986625,0.0106817204505205,0.0,0.0,-0.7532525062561035,0.5684471130371094
-0.0334495529532432,0.8581655621528625,0.1017305850982666,-0.7053813338279724,0.0405884161591529,-0.0062980353832244,0.0,0.0,-0.7409350275993347,-0.3591160774230957
-0.0324084274470806,0.8420129418373108,0.1042558327317237,-0.7178971767425537,0.040444865822792,-0.0028709219768643,0.0,0.0,-0.8195599913597107,-0.2395085096359253
-0.0313405022025108,0.8255786299705505,0.1067699193954467,-0.730413019657135,0.0404604710638523,0.0003123637870885,0.0,0.0,-0.1528710126876831,0.9586913585662842
-0.0301862712949514,0.8088752627372742,0.1167924627661705,-0.742336094379425,0.0391080342233181,-0.0270487256348133,0.0,0.0,-0.5418630242347717,-0.1911908984184265
-0.0290058143436908,0.7918903827667236,0.1192736402153968,-0.7548518776893616,0.0378887318074703,-0.0243859756737947,0.0,0.0,-0.4636001586914062,-0.4693103432655334
-0.0277996063232421,0.7746241092681885,0.1217328757047653,-0.7673676609992981,0.0367887429893016,-0.0219996199011802,0.0,0.0,-0.7735621333122253,0.1312508583068847
-0.0265680309385061,0.7570762038230896,0.1241664737462997,-0.7798833847045898,0.0357937403023242,-0.019899982959032,0.0,0.0,-0.5347532033920288,0.1591157913208007
-0.0253114700317382,0.7392465472221375,0.1265706121921539,-0.7923990488052368,0.0348888970911502,-0.018096949905157,0.0,0.0,-0.4260226488113403,-0.831291139125824
-0.02410888671875,0.7211324572563171,0.1190923079848289,-0.8051067590713501,0.0360326580703258,0.0228752829134464,0.0,0.0,-0.637259840965271,0.8343446254730225
-0.022832965478301,0.7027373313903809,0.1276409924030304,-0.8175564408302307,0.0359907746315002,-0.0008376607438549,0.0,0.0,-0.7024341225624084,-0.3609535694122314
-0.0215335842221975,0.6840607523918152,0.129933163523674,-0.8300718665122986,0.03599189594388,2.228581979579758e-05,0.0,0.0,-0.4031129479408264,-0.5858966112136841
-0.0202529914677143,0.6650951504707336,0.1269705593585968,-0.8429399728775024,0.0370669178664684,0.0215005110949277,0.0,0.0,-0.05824875831604,0.0688710212707519
-0.0189503673464059,0.6458480358123779,0.1291676163673401,-0.8554552793502808,0.0381517000496387,0.0216956064105033,0.0,0.0,0.2528480291366577,0.0003933906555175
-0.0176660530269145,0.6272004842758179,0.1274156868457794,-0.8288095593452454,0.0391489565372467,0.0199451949447393,0.0,0.0,-0.0605604648590087,-0.2116938233375549
-0.0163612365722656,0.6082712411880493,0.1295005083084106,-0.8413248062133789,0.0401217676699161,0.0194562152028083,0.0,0.0,0.7103450298309326,-0.597602367401123
-0.0150229455903172,0.5899621248245239,0.1314618289470672,-0.8138048052787781,0.0424563512206077,0.0466917306184768,0.0,0.0,0.0908402204513549,0.1368752717971801
-0.0136934276670217,0.5721790194511414,0.1306770592927932,-0.7904264330863953,0.0447098053991794,0.0450688973069191,0.0,0.0,-0.5935603380203247,-0.0947892665863037
-0.0123457908630371,0.5541142821311951,0.1325601041316986,-0.8029418587684631,0.0468868091702461,0.0435401126742363,0.0,0.0,0.6414628028869629,-0.0891891717910766
-0.0109224319458007,0.5364561676979065,0.139855071902275,-0.7848840951919556,0.049340434372425,0.0490725114941597,0.0,0.0,0.56325364112854,-0.1323105096817016
-0.009627342224121,0.5193843841552734,0.127679094672203,-0.7588065266609192,0.0511479042470455,0.0361494421958923,0.0,0.0,0.3367007970809936,-0.416447639465332
-0.0084422109648585,0.5026469230651855,0.1173044443130493,-0.7439298033714294,0.0523473285138607,0.0239882506430149,0.0,0.0,0.1004310846328735,-0.4884929656982422
-0.0072769164107739,0.4861891567707062,0.115524336695671,-0.7314945459365845,0.0533361956477165,0.0197774749249219,0.0,0.0,0.3031681776046753,-0.7221029996871948
-0.0061552999541163,0.4700758159160614,0.1098387613892555,-0.7162312269210815,0.0556346885859966,0.0459696874022483,0.0,0.0,-0.1722727417945861,-0.2961820363998413
-0.0050219534896314,0.4536808729171753,0.1111915856599807,-0.7287461161613464,0.0577570125460624,0.0424465984106063,0.0,0.0,0.5995986461639404,0.0688680410385131
-0.0038220405112951,0.4380037486553192,0.1175995469093322,-0.6968527436256409,0.0601243712007999,0.0473471209406852,0.0,0.0,-0.1268227100372314,0.1537648439407348
-0.002612781478092,0.422044962644577,0.1187373250722885,-0.7093674540519714,0.0622854344546794,0.0432213172316551,0.0,0.0,0.4224681854248047,0.0116196870803833
-0.0013575553894042,0.4062117636203766,0.1233042329549789,-0.703792929649353,0.0644795298576355,0.0438815653324127,0.0,0.0,0.7950400114059448,-0.4581787586212158
