x_pos,y_pos,x_vel,y_vel,angle,ang_vel,leg_1,leg_2,main_booster,lat_booster
-0.0015460014110431,1.4033702611923218,-0.1560690701007843,-0.3355549275875091,0.0013167839497327,0.025941427797079,0.0,0.0,0.7581369975883423,0.991155953923962
-0.0029758452437818,1.3963208198547363,-0.1419202983379364,-0.3133071064949035,0.0002679428143892,-0.0209782980382442,0.0,0.0,-0.6186849742110989,-0.7287020180977284
-0.0044734952971339,1.389011025428772,-0.1493694931268692,-0.3248775899410248,-0.0001270596985705,-0.0079010669142007,0.0,0.0,0.3296194383886806,-0.8433230980313633
-0.0061701773665845,1.3820472955703735,-0.1703431010246276,-0.3094963133335113,0.0005451703909784,0.0134457852691411,0.0,0.0,0.2861484249958135,-0.7531160633101901
-0.0078372955322265,1.3755929470062256,-0.1685949563980102,-0.2868561744689941,0.0024001013953238,0.0371024496853351,0.0,0.0,-0.555856161881382,0.5961170950374144
-0.0094715114682912,1.368883728981018,-0.163350373506546,-0.2981912195682525,0.0023366210516542,-0.0012699388898909,0.0,0.0,-0.2627193329188797,0.9883123063820838
-0.011055564507842,1.3619204759597778,-0.1559636443853378,-0.3094778060913086,-7.874063157942146e-05,-0.048311673104763,0.0,0.0,0.3259876725799064,0.6764185894070512
-0.0124783515930175,1.355483889579773,-0.138242170214653,-0.2860790491104126,-0.0040623019449412,-0.0796786546707153,0.0,0.0,-0.2597657706014322,-0.924025126697028
-0.0140006067231297,1.3488034009933472,-0.1496124416589737,-0.2969196140766144,-0.0066481479443609,-0.051721554249525,0.0,0.0,-0.5706163180266841,0.7054366958941324
-0.0154931070283055,1.3418726921081543,-0.1447464376688003,-0.3080570101737976,-0.0110995145514607,-0.0890358313918113,0.0,0.0,0.484813631063679,0.5161149891770571
-0.0168816559016704,1.3354878425598145,-0.133066713809967,-0.2838292717933655,-0.0168198682367801,-0.1144174188375473,0.0,0.0,0.3713179045338997,0.6830236191408479
-0.018170166760683,1.3295023441314695,-0.1213436350226402,-0.2661264538764953,-0.0242430865764617,-0.1484780609607696,0.0,0.0,0.5118488389599982,0.6691031659634376
-0.0192861557006835,1.3242199420928955,-0.1025576442480087,-0.2349396347999572,-0.0331828594207763,-0.1788119971752166,0.0,0.0,0.5073862884355629,-0.9667156962204736
-0.0204227454960346,1.319161295890808,-0.1061607971787452,-0.2250118851661682,-0.0405952110886573,-0.1482607424259185,0.0,0.0,-0.3972664614802852,-0.8353686011780316
-0.0216364860534667,1.3138610124588013,-0.1146865040063858,-0.2357673943042755,-0.0472041703760623,-0.1321912705898285,0.0,0.0,-0.8915333529550218,0.6750203240383679
-0.0228146556764841,1.3082948923110962,-0.1090679541230201,-0.2476760596036911,-0.0558643974363803,-0.1732207834720611,0.0,0.0,-0.6558542366304483,-0.513121215593719
-0.0240510944277048,1.302484393119812,-0.1152210682630539,-0.2585780024528503,-0.0642017424106597,-0.1667621582746505,0.0,0.0,-0.3133241102786934,0.8372839324504393
-0.0252336505800485,1.2964061498641968,-0.1073021739721298,-0.2706454992294311,-0.0750631541013717,-0.2172479331493377,0.0,0.0,-0.2614751268073862,-0.5108756297588339
-0.0264773368835449,1.2900841236114502,-0.1138085275888443,-0.2815374433994293,-0.0855339169502258,-0.2094339579343795,0.0,0.0,0.5923169026017194,0.5043080996965382
-0.0277451518923044,1.2843306064605713,-0.1145305857062339,-0.2564581632614136,-0.0977010503411293,-0.2433644235134124,0.0,0.0,-0.2365450906986006,-0.8912391841256975
-0.0290955547243356,1.2783395051956177,-0.1237501129508018,-0.267045646905899,-0.1089280769228935,-0.2245605885982513,0.0,0.0,-0.254460613237927,-0.5167566394089772
-0.0305140502750873,1.2721000909805298,-0.131114974617958,-0.2781286835670471,-0.1196087002754211,-0.2136314362287521,0.0,0.0,-0.79039868823397,-0.9993370165314328
-0.0320222862064838,1.265617847442627,-0.1412126123905182,-0.2888916432857513,-0.1291867345571518,-0.1915775835514068,0.0,0.0,-0.0682977409717975,0.7509321142695329
-0.0334938988089561,1.2588624954223633,-0.1354172676801681,-0.3012934625148773,-0.1409020125865936,-0.2343264818191528,0.0,0.0,0.6155904028807491,0.8471309900163904
-0.0349921211600303,1.2528114318847656,-0.135687917470932,-0.2703356742858886,-0.1550111621618271,-0.2822086215019226,0.0,0.0,0.4802456332379567,0.9637669377549531
-0.0364947319030761,1.247445821762085,-0.1336405724287033,-0.2403028011322021,-0.171641319990158,-0.332603394985199,0.0,0.0,0.5242626081084498,0.608024189061128
-0.0378598198294639,1.242811679840088,-0.1182769387960434,-0.2081739604473114,-0.1899369806051254,-0.3659128546714782,0.0,0.0,0.98875920403372,0.5526773381509695
-0.0391860008239746,1.2394330501556396,-0.112408697605133,-0.152876541018486,-0.2102819383144378,-0.4068992733955383,0.0,0.0,-0.6535202012881427,0.7145488080405047
-0.040496252477169,1.2357990741729736,-0.1093614920973777,-0.1647382378578186,-0.2322039753198623,-0.4384408891201019,0.0,0.0,0.5110144862025583,0.826097065719066
-0.0416899695992469,1.2325518131256104,-0.0957029238343238,-0.1482270509004593,-0.2562793493270874,-0.4815075397491455,0.0,0.0,-0.4582245922252368,0.7105831058069001
-0.0428542122244834,1.229045867919922,-0.0910219550132751,-0.1604718118906021,-0.2822821140289306,-0.520055890083313,0.0,0.0,-0.7527403235435486,-0.9997875094413756
-0.0441327095031738,1.2253267765045166,-0.1044069305062294,-0.1700061857700348,-0.3064506947994232,-0.4833721220493316,0.0,0.0,-0.5824519395828247,-0.999291181564331
-0.0455222129821777,1.2214114665985107,-0.117492638528347,-0.178698718547821,-0.3287455141544342,-0.4458963871002197,0.0,0.0,-0.5481915473937988,-0.998421311378479
-0.0470240600407123,1.2172831296920776,-0.1305824816226959,-0.1880737096071243,-0.3492428064346313,-0.4099455773830414,0.0,0.0,0.3556509017944336,-0.9951855540275574
-0.048436164855957,1.213666915893555,-0.123282715678215,-0.165191650390625,-0.3681376874446869,-0.3778981268405914,0.0,0.0,0.3543741703033447,-0.997870922088623
-0.0497083663940429,1.210710048675537,-0.1109509691596031,-0.1356937289237976,-0.3854093551635742,-0.3454334139823913,0.0,0.0,-0.5593106150627136,-0.9896994233131408
-0.0510853752493858,1.2075456380844116,-0.1231036186218261,-0.1446699202060699,-0.4009999632835388,-0.3118115961551666,0.0,0.0,0.7668399810791016,-0.8174377679824829
-0.0521890632808208,1.205273151397705,-0.0971107929944992,-0.1048131808638572,-0.4152508378028869,-0.2850175499916076,0.0,0.0,0.7857931852340698,-0.9803297519683838
-0.0530644431710243,1.2040859460830688,-0.0757940933108329,-0.0562637411057949,-0.4279561936855316,-0.2541072964668274,0.0,0.0,0.7952353954315186,-0.87747722864151
-0.053725529462099,1.2035727500915527,-0.0557571277022361,-0.0259955003857612,-0.4392149746417999,-0.2251756489276886,0.0,0.0,0.1766012907028198,-0.8895412087440491
-0.0543202385306358,1.2036694288253784,-0.0504508987069129,0.0014429185539484,-0.4490657746791839,-0.1970151662826538,0.0,0.0,-0.5377079248428345,-0.9418453574180604
-0.0549969673156738,1.2035516500473022,-0.0597168989479541,-0.0078136529773473,-0.4577859044075012,-0.1744025498628616,0.0,0.0,-0.1394926309585571,-0.9048997163772584
-0.0557583793997764,1.2032133340835571,-0.0692710131406784,-0.0173141732811927,-0.4653594195842743,-0.1514701247215271,0.0,0.0,-0.2074635624885559,-0.878698468208313
-0.0566001906991004,1.2026609182357788,-0.0783305317163467,-0.0265259221196174,-0.4718208611011505,-0.1292292326688766,0.0,0.0,-0.528386116027832,-0.9168055653572084
-0.0575418472290039,1.201899528503418,-0.0898040682077407,-0.0353301167488098,-0.4766639173030853,-0.0968610197305679,0.0,0.0,-0.2604546546936035,-0.8014720678329468
-0.058565903455019,1.2009193897247314,-0.0990621745586395,-0.0447220169007778,-0.4803785383701324,-0.0742924511432647,0.0,0.0,-0.8376920819282532,-0.9269883632659912
-0.0596775040030479,1.199728012084961,-0.1090225577354431,-0.0536898300051689,-0.4827592968940735,-0.047614999115467,0.0,0.0,-0.4406299591064453,-0.9172998070716858
-0.0608893409371376,1.198352932929993,-0.1207534298300743,-0.0612706206738948,-0.4832409918308258,-0.009634019806981,0.0,0.0,-0.1606499552726745,-0.797308087348938
-0.0621941573917865,1.1967850923538208,-0.1315386295318603,-0.0693145617842674,-0.4820647537708282,0.0235246382653713,0.0,0.0,0.0945633649826049,-0.7520123720169067
-0.0634375587105751,1.1954632997512815,-0.1264458447694778,-0.0580080710351467,-0.4797122478485107,0.0470494888722896,0.0,0.0,0.1634066104888916,-0.747590184211731
-0.0644726753234863,1.1943855285644531,-0.1067814230918884,-0.0467720851302146,-0.4760815799236297,0.0726132690906524,0.0,0.0,-0.0123031735420227,-0.7985284328460693
-0.06559419631958,1.1931076049804688,-0.116742119193077,-0.0552217327058315,-0.4709846079349518,0.1019402518868446,0.0,0.0,-0.3456361889839172,-0.7401475310325623
-0.0667860954999923,1.1916067600250244,-0.1246071234345436,-0.0648818761110305,-0.4649936258792877,0.1198198422789573,0.0,0.0,-0.2964968085289001,-0.6504372358322144
-0.0680479034781456,1.18989360332489,-0.1325325220823288,-0.0740391537547111,-0.4580009579658508,0.1398535817861557,0.0,0.0,-0.2333781719207763,-0.4446209669113159
-0.0693362206220626,1.1879286766052246,-0.1348658055067062,-0.085358627140522,-0.4513614773750305,0.1327899098396301,0.0,0.0,-0.1926589012145996,-0.7750457525253296
-0.0707147568464279,1.1857551336288452,-0.145309180021286,-0.0942192524671554,-0.4431950449943542,0.1633285731077194,0.0,0.0,0.065638780593872,-0.3706569671630859
-0.0718436241149902,1.183987379074097,-0.1203267723321914,-0.0762319937348365,-0.4350818693637848,0.1622632443904876,0.0,0.0,-0.3661050796508789,-0.5872188806533813
-0.0730292350053787,1.181992769241333,-0.1265982091426849,-0.0861904770135879,-0.4263461232185364,0.1747147440910339,0.0,0.0,-0.2370121479034423,-0.4452369213104248
-0.0742397308349609,1.1797462701797483,-0.1288265287876129,-0.0975098088383674,-0.4179221391677856,0.1684788763523101,0.0,0.0,-0.4250397682189941,-0.4900326728820801
-0.0754746422171592,1.1772480010986328,-0.131022423505783,-0.1088281348347663,-0.4097979962825775,0.162482663989067,0.0,0.0,-0.3177722096443176,-0.6054345965385437
-0.0767747908830642,1.1745190620422363,-0.1383727639913559,-0.1188974231481552,-0.4008201360702514,0.1795569360256195,0.0,0.0,-0.2006464600563049,-0.5640813708305359
-0.07814522087574,1.1715710163116455,-0.1464433968067169,-0.1283940970897674,-0.3907511532306671,0.2013791054487228,0.0,0.0,-0.1870524287223816,0.3037128448486328
-0.0795384421944618,1.1683714389801023,-0.1485289633274078,-0.1397129446268081,-0.3809421062469482,0.1961815059185028,0.0,0.0,0.1349952220916748,0.1751840114593505
-0.0807826071977615,1.1654971837997437,-0.1334818452596664,-0.125353530049324,-0.3713033497333526,0.1927747428417205,0.0,0.0,-0.2695501446723938,-0.1526427268981933
-0.082048512995243,1.1623708009719849,-0.1354781687259674,-0.1366704553365707,-0.3618945479393005,0.1881758868694305,0.0,0.0,0.1949917078018188,0.5787791013717651
-0.0832340270280838,1.1596205234527588,-0.1259889900684356,-0.1203841418027877,-0.3540582656860351,0.15672567486763,0.0,0.0,-0.3629102706909179,-0.0629854798316955
-0.0844401344656944,1.1566174030303955,-0.1278823167085647,-0.131697416305542,-0.3464195430278778,0.1527744382619857,0.0,0.0,-0.7523863911628723,0.2731658220291137
-0.0856661796569824,1.1533615589141846,-0.1297195851802826,-0.1430098414421081,-0.3389613926410675,0.1491632014513015,0.0,0.0,-0.1793633103370666,0.4146054983139038
-0.0869112983345985,1.1498528718948364,-0.1314970850944519,-0.1543214619159698,-0.3316662907600403,0.1459017544984817,0.0,0.0,-0.6718407273292542,0.4163906574249267
-0.088174819946289,1.1460909843444824,-0.1332110911607742,-0.1656323075294494,-0.3245163559913635,0.1429987847805023,0.0,0.0,-0.0815581083297729,0.3879759311676025
-0.0894558876752853,1.1420761346817017,-0.1348576247692108,-0.1769424527883529,-0.3174932301044464,0.1404617875814438,0.0,0.0,-0.1160005331039428,0.8429149389266968
-0.0906870812177658,1.1377767324447632,-0.1280364096164703,-0.1900171637535095,-0.3123839795589447,0.1021848544478416,0.0,0.0,0.0534819364547729,0.8769235610961914
-0.0917929634451866,1.134014368057251,-0.1137156710028648,-0.1665450036525726,-0.3091387748718261,0.0649037808179855,0.0,0.0,0.3958395719528198,0.9189132452011108
-0.0926287621259689,1.1306297779083252,-0.0848933607339859,-0.1501445323228836,-0.3077773749828338,0.0272279866039752,0.0,0.0,-0.5438863635063171,-0.0419340133666992
-0.0934783965349197,1.1269911527633667,-0.0862269848585128,-0.161448672413826,-0.3064672946929931,0.0262015517801046,0.0,0.0,0.0424067974090576,-0.3627420663833618
-0.0942379981279373,1.123372197151184,-0.0773848444223404,-0.1605388522148132,-0.3049910068511963,0.0295260213315486,0.0,0.0,-0.6101169586181641,-0.4881371259689331
-0.0950091332197189,1.1194992065429688,-0.0785371735692024,-0.1718420535326004,-0.3035279214382171,0.0292614363133907,0.0,0.0,0.122208833694458,0.0637179613113403
-0.0956352204084396,1.1161456108093262,-0.0640043020248413,-0.1487607657909393,-0.3020854890346527,0.0288489647209644,0.0,0.0,-0.2860910892486572,-0.6437792778015137
-0.0963111892342567,1.1125632524490356,-0.0701262205839157,-0.1586901694536209,-0.2994761765003204,0.052186518907547,0.0,0.0,0.1110327243804931,0.0023874044418334
-0.09690523147583,1.109547734260559,-0.0616303570568561,-0.1335660964250564,-0.297173261642456,0.0460590906441211,0.0,0.0,-0.1206302046775817,-0.8472607135772705
-0.0975852981209755,1.1063052415847778,-0.0723174437880516,-0.1432432532310485,-0.2927252948284149,0.0889592245221138,0.0,0.0,0.3771237134933471,0.6559840440750122
-0.0979944244027137,1.1037216186523438,-0.044089637696743,-0.1141922622919082,-0.2894603312015533,0.0652999505400657,0.0,0.0,-0.2332973480224609,-0.520595133304596
-0.0984537154436111,1.1009039878845217,-0.0503918826580047,-0.1243456378579139,-0.2848645448684692,0.0919158458709716,0.0,0.0,-0.0648707151412963,0.8498353958129883
-0.0988566428422927,1.0978095531463623,-0.043351586908102,-0.1369328051805496,-0.2817215323448181,0.0628599971532821,0.0,0.0,-0.1627733707427978,0.2275643348693847
-0.0992610901594162,1.0944606065750122,-0.043621078133583,-0.1482333093881607,-0.2784504294395447,0.0654214099049568,0.0,0.0,0.3737010955810547,-0.1578491330146789
-0.0994627028703689,1.0915247201919556,-0.0238239709287881,-0.1297923028469085,-0.2747004330158233,0.0749996751546859,0.0,0.0,-0.3140939474105835,-0.74623042345047
-0.099718764424324,1.0883501768112185,-0.0308305528014898,-0.1401194781064987,-0.2693457305431366,0.1070942506194114,0.0,0.0,-0.2767723798751831,0.1375162601470947
-0.099972054362297,1.08492112159729,-0.0307240448892116,-0.1514206379652023,-0.2638183236122131,0.1105482727289199,0.0,0.0,-0.7233977913856506,0.4078637361526489
-0.1002210602164268,1.0812373161315918,-0.0304900053888559,-0.1627217680215835,-0.2581045925617218,0.1142749041318893,0.0,0.0,-0.8010265827178955,-0.459643006324768
-0.1004643440246582,1.0772993564605713,-0.0301283039152622,-0.17402283847332,-0.2521915137767792,0.1182613149285316,0.0,0.0,-0.7240062355995178,0.0801705121994018
-0.1007005721330642,1.0731066465377808,-0.0296393632888793,-0.18532395362854,-0.2460667788982391,0.1224947571754455,0.0,0.0,-0.3083500862121582,0.3595743179321289
-0.1009284034371376,1.0686593055725098,-0.0290241576731205,-0.1966251581907272,-0.2397186458110809,0.1269625574350357,0.0,0.0,-0.8080475926399231,0.6374776363372803
-0.1010869964957237,1.0639381408691406,-0.0208229385316371,-0.2090327441692352,-0.2346867173910141,0.1006384491920471,0.0,0.0,-0.8023688793182373,0.440969705581665
-0.1012346297502517,1.058962345123291,-0.0199596732854843,-0.2203327566385269,-0.2294098138809204,0.105538010597229,0.0,0.0,-0.796391487121582,0.708989143371582
-0.1013203635811805,1.0537121295928955,-0.0127469254657626,-0.2326951622962951,-0.2251841723918914,0.0845129042863845,0.0,0.0,-0.9087707996368408,0.0946424007415771
-0.101392462849617,1.04820716381073,-0.0116456886753439,-0.2439943999052047,-0.2206943333148956,0.0897966772317886,0.0,0.0,-0.9689828753471376,0.6647498607635498
-0.1014005690813064,1.042430400848389,-0.0042403354309499,-0.2562301456928253,-0.2172186076641082,0.0695146471261978,0.0,0.0,-0.8652141094207764,0.1208604574203491
-0.1013925522565841,1.0363988876342771,-0.0029144422151148,-0.2675288021564483,-0.2134616822004318,0.0751381069421768,0.0,0.0,-0.984220802783966,-0.5392311811447144
-0.1014024764299392,1.0301265716552734,-0.0059216530062258,-0.2780623137950897,-0.2084856927394867,0.0995196774601936,0.0,0.0,-0.932991862297058,-0.8302005529403687
-0.101463034749031,1.023627758026123,-0.0130892824381589,-0.2878616452217102,-0.2013912200927734,0.1418891847133636,0.0,0.0,-0.9819703698158264,0.587536096572876
-0.1014642715454101,1.0168664455413818,-0.0064695738255977,-0.299651026725769,-0.1950095146894455,0.1276341080665588,0.0,0.0,-0.985781192779541,-0.284119963645935
-0.1014452949166297,1.0098507404327393,-0.0047445786185562,-0.3109520375728607,-0.1883186995983123,0.1338164210319519,0.0,0.0,-0.9561728835105896,0.7234091758728027
-0.1013594642281532,1.0025681257247925,0.0027688553091138,-0.3229448199272156,-0.1824830770492553,0.1167124062776565,0.0,0.0,-0.9263360500335692,0.2296993732452392
-0.1012515053153038,0.9950308799743652,0.0046668453142046,-0.3342455327510834,-0.1763270050287246,0.123121365904808,0.0,0.0,-0.9921860098838806,0.6686241626739502
-0.1010587662458419,0.9872266054153442,0.0143780009821057,-0.3462866842746734,-0.1714192032814026,0.0981562584638595,0.0,0.0,-0.989969789981842,0.6575067043304443
-0.100786305963993,0.9791470766067504,0.0234557129442691,-0.3586565256118774,-0.1676364541053772,0.0756550356745719,0.0,0.0,-0.9704713821411132,-0.5930787324905396
-0.1005239486694336,0.9708262085914612,0.02122138813138,-0.3692564368247986,-0.1626144796609878,0.1004392132163047,0.0,0.0,-0.9096006751060486,0.7823500633239746
-0.1001768112182617,0.9622427225112916,0.0308566093444824,-0.3810779154300689,-0.158757209777832,0.0771457701921463,0.0,0.0,-0.9907753467559814,0.0378065109252929
-0.0998036414384841,0.9534041285514832,0.0331076756119728,-0.3923772871494293,-0.1545575410127639,0.0839935541152954,0.0,0.0,-0.978767991065979,-0.1906254887580871
-0.0994039550423622,0.9443109631538392,0.0354164130985736,-0.4036769866943359,-0.1500120460987091,0.090909905731678,0.0,0.0,-0.9602858424186708,0.4905158281326294
-0.0989771857857704,0.9349629878997804,0.0377788990736007,-0.4149770140647888,-0.1451175957918167,0.0978891253471374,0.0,0.0,-0.9900869727134703,0.5338263511657715
-0.0984761267900466,0.9253549575805664,0.0460108444094657,-0.4266333281993866,-0.1410438865423202,0.0814746022224426,0.0,0.0,-0.9742333889007568,-0.1306485533714294
-0.0979470238089561,0.9154919981956482,0.0484700314700603,-0.4379332363605499,-0.1366156935691833,0.0885637253522872,0.0,0.0,-0.9943146109580994,0.2373747825622558
-0.097389318048954,0.9053745865821838,0.0509723536670208,-0.4492334723472595,-0.1318306773900985,0.0957003533840179,0.0,0.0,-0.9917829632759094,0.7060515880584717
-0.0967591255903244,0.894991934299469,0.0589679069817066,-0.4610993266105652,-0.1277974098920822,0.0806654021143913,0.0,0.0,-0.9135501384735109,-0.4197428822517395
-0.0960994735360145,0.8843546509742737,0.0615473799407482,-0.4723995625972748,-0.1234032660722732,0.0878830254077911,0.0,0.0,-0.9698169231414796,0.0715472698211669
-0.0954099670052528,0.8734627366065979,0.0641610771417617,-0.4837001264095306,-0.1186465471982956,0.0951345786452293,0.0,0.0,-0.9609398245811462,0.4155400991439819
-0.0946904197335243,0.8623161911964417,0.0668063908815383,-0.4950011074542999,-0.1135257557034492,0.1024158000946044,0.0,0.0,-0.9274412989616394,0.6902072429656982
-0.0938770323991775,0.8509072661399841,0.0774164423346519,-0.5067681670188904,-0.1096385195851326,0.0777450501918792,0.0,0.0,-0.8679114580154419,0.4355101585388183
-0.093033030629158,0.8392437696456909,0.0801181048154831,-0.518068790435791,-0.1053848266601562,0.0850737765431404,0.0,0.0,-0.9478332996368408,0.2846403121948242
