x_pos,y_pos,x_vel,y_vel,angle,ang_vel,leg_1,leg_2,main_booster,lat_booster
-0.0015215873718261,1.4033759832382202,-0.1544152200222015,-0.3352903723716736,0.0020240603480488,0.0399458743631839,0.0,0.0,-0.4117836058591966,-0.4887662655469003
-0.0030411719344556,1.3956068754196167,-0.1541912257671356,-0.3453027606010437,0.0042366017587482,0.0442558415234088,0.0,0.0,0.8184053723735034,0.3535908137044069
-0.0044133188202977,1.3882567882537842,-0.1403945982456207,-0.326682984828949,0.0073799467645585,0.0628727674484252,0.0,0.0,-0.9675043468464068,0.3441474544175366
-0.0057831765152513,1.3806581497192385,-0.1403760910034179,-0.3377323150634765,0.0107351196929812,0.0671097487211227,0.0,0.0,-0.0786996268732356,-0.9364189636863776
-0.0072084427811205,1.3728134632110596,-0.1476031094789505,-0.3486920297145843,0.0157468523830175,0.1002438068389892,0.0,0.0,-0.1764783978295621,-0.2364111211494863
-0.0086313243955373,1.3647209405899048,-0.1475437581539154,-0.3597334623336792,0.0209440626204013,0.1039536967873573,0.0,0.0,0.3361132642049447,-0.0587211000025489
-0.010079669766128,1.3570802211761477,-0.1501746475696563,-0.3396717607975006,0.026227667927742,0.1056817919015884,0.0,0.0,0.3749620147700481,0.2866443125774405
-0.0114150997251272,1.350003719329834,-0.1396428644657135,-0.3146294355392456,0.0322644636034965,0.1207469925284385,0.0,0.0,-0.886635271565352,-0.2967652493978353
-0.0127477645874023,1.3426793813705444,-0.1395091265439987,-0.3256759345531463,0.0384487695991992,0.1236974596977233,0.0,0.0,0.7491253950744263,-0.7852570582669324
-0.014169692993164,1.336261510848999,-0.1501597166061401,-0.2854683995246887,0.0463224314153194,0.1574877649545669,0.0,0.0,0.0289310268532465,0.6945826062205452
-0.0154896732419729,1.3301589488983154,-0.1387451589107513,-0.2714456617832184,0.0529992915689945,0.1335498839616775,0.0,0.0,0.7581425147469754,-0.7139922331745202
-0.0168105121701955,1.3246513605117798,-0.1405673921108245,-0.2450984269380569,0.0613952465355396,0.1679344177246093,0.0,0.0,-0.2264665537886352,-0.6924438461947628
-0.0181710235774517,1.318895936012268,-0.1457002162933349,-0.2562120854854584,0.070966362953186,0.1914398074150085,0.0,0.0,-0.5155859681633004,0.0862373458864819
-0.0195280071347951,1.312893629074097,-0.1454325765371322,-0.2672567963600158,0.0806256383657455,0.1932025253772735,0.0,0.0,0.3692407445135031,0.5686989713309885
-0.0207647327333688,1.307692289352417,-0.1326437592506408,-0.2316729128360748,0.0895169451832771,0.1778423935174942,0.0,0.0,-0.219354603672182,-0.9549826155296336
-0.0220583919435739,1.3022243976593018,-0.139948770403862,-0.2436864823102951,0.1000319719314575,0.2103195190429687,0.0,0.0,0.928755052009428,0.6722074681567456
-0.0232234001159667,1.298041582107544,-0.1262264400720596,-0.1865761131048202,0.1097114011645317,0.1936060786247253,0.0,0.0,0.1168832097913783,0.095416645411378
-0.0243160240352153,1.294005036354065,-0.1194848418235778,-0.1801827996969223,0.1198885813355445,0.2035617083311081,0.0,0.0,-0.4185089974542804,-0.7292503827643886
-0.0254526138305664,1.2897199392318726,-0.1251331865787506,-0.1914103478193283,0.1313176155090332,0.228601261973381,0.0,0.0,-0.5857415625155498,-0.7859957983604607
-0.0266544334590435,1.2851744890213013,-0.1334333717823028,-0.2032500952482223,0.1445509642362594,0.2646906673908233,0.0,0.0,0.5283137600376722,-0.4144795017623417
-0.0278347972780466,1.2814407348632812,-0.1318391859531402,-0.1673421263694763,0.158351719379425,0.2760400772094726,0.0,0.0,-0.3087098099789194,-0.8048801935801749
-0.0290712360292673,1.2774418592453003,-0.1390051841735839,-0.1794322878122329,0.1737420856952667,0.3078344464302063,0.0,0.0,0.452588599065431,0.0244384305435271
-0.0302730556577444,1.2739347219467163,-0.1360227465629577,-0.1578048765659332,0.1896630674600601,0.3184482455253601,0.0,0.0,-0.2283758647519795,-0.6141324640884644
-0.0315108299255371,1.2701635360717771,-0.140651062130928,-0.1698517203330993,0.2066703587770462,0.3401764035224914,0.0,0.0,0.3794275536944147,0.8334888310347398
-0.0329206474125385,1.2669174671173096,-0.1559736877679824,-0.146437868475914,0.2218305617570877,0.3032310605049133,0.0,0.0,0.9248898467568544,0.181124356640476
-0.0346674919128418,1.2645490169525146,-0.1888476461172104,-0.1074613779783248,0.2361858934164047,0.2871068120002746,0.0,0.0,-0.0428157928892065,-0.5125271751824714
-0.0364474281668663,1.2619240283966064,-0.1930969655513763,-0.1191666573286056,0.2515404820442199,0.3070917427539825,0.0,0.0,0.6177948058454494,0.4216550046260473
-0.0385457053780555,1.26017963886261,-0.2242704927921295,-0.0800663158297538,0.2662716805934906,0.2946242392063141,0.0,0.0,-0.4505902187711472,-0.880351816710282
-0.0407201759517192,1.2581636905670166,-0.2338801920413971,-0.0926758721470832,0.2831283211708069,0.3371326327323913,0.0,0.0,-0.4877646869559426,-0.5920492725550616
-0.0429336540400981,1.2558809518814087,-0.2388676106929779,-0.1049647778272628,0.3011887669563293,0.3612083792686462,0.0,0.0,-0.8047565954104297,0.4271154394513136
-0.0451400764286518,1.253353476524353,-0.2380194962024688,-0.1160279065370559,0.3192026913166046,0.3602787256240845,0.0,0.0,-0.7912720441818237,0.9940917491912842
-0.0472730621695518,1.250607967376709,-0.2288533896207809,-0.1255359798669815,0.3354060351848602,0.3240668773651123,0.0,0.0,-0.9084014296531676,0.9664312601089478
-0.0493385307490825,1.2476576566696167,-0.2203205823898315,-0.1343937218189239,0.3498391807079315,0.2886636853218078,0.0,0.0,-0.8146791458129883,0.9944788217544556
-0.0513280853629112,1.2444883584976196,-0.2108818292617797,-0.1438049972057342,0.3624026179313659,0.2512684464454651,0.0,0.0,-0.8873411417007446,0.9952073097229004
-0.0532344803214073,1.2411168813705444,-0.2004745453596115,-0.1523666381835937,0.3728037178516388,0.2080222815275192,0.0,0.0,-0.8729545474052429,0.9860293865203856
-0.0550595298409462,1.2375482320785522,-0.1902675926685333,-0.1606536358594894,0.3810429275035858,0.164784088730812,0.0,0.0,-0.9044523239135742,0.9762556552886964
-0.0568059906363487,1.2337677478790283,-0.1805223226547241,-0.1696005910634994,0.3873000741004944,0.1251424252986908,0.0,0.0,-0.980331301689148,0.9619534015655518
-0.0584703460335731,1.229791283607483,-0.1702633500099182,-0.1777749359607696,0.3913722336292267,0.0814431458711624,0.0,0.0,-0.9069294333457948,0.9835838079452516
-0.0600611679255962,1.2256176471710205,-0.1610375791788101,-0.1860390454530716,0.393466055393219,0.0418762192130088,0.0,0.0,-0.9669216275215148,0.8953151702880859
-0.0615741722285747,1.221238613128662,-0.1513831913471222,-0.1946471631526947,0.3935556709766388,0.0017921145772561,0.0,0.0,-0.9921090602874756,0.9644017219543456
-0.0630214661359787,1.2166541814804075,-0.1432049572467804,-0.2033329606056213,0.3919293582439422,-0.0325263701379299,0.0,0.0,-0.9738110899925232,0.9310013055801392
-0.0643761605024337,1.211869716644287,-0.1317232102155685,-0.2116163223981857,0.3879229128360748,-0.0801290199160575,0.0,0.0,-0.966653048992157,0.956634283065796
-0.0656367316842079,1.2068766355514526,-0.1200906485319137,-0.2203045636415481,0.3815719485282898,-0.1270193457603454,0.0,0.0,-0.9948232769966124,0.8801772594451904
-0.0668111816048622,1.2016788721084597,-0.1094213351607322,-0.2288883626461029,0.3730457723140716,-0.170523852109909,0.0,0.0,-0.9980423450469972,0.7563815116882324
-0.0679208785295486,1.196255445480347,-0.1014884337782859,-0.2385985553264618,0.3630166053771972,-0.2005830258131027,0.0,0.0,-0.996890664100647,0.7630932331085205
-0.0689572319388389,1.1906120777130127,-0.0924666374921798,-0.2480340003967285,0.3512491285800934,-0.2353502511978149,0.0,0.0,-0.9939300417900084,0.4809427261352539
-0.0699823349714279,1.1847217082977295,-0.0912387371063232,-0.2590812742710113,0.3394241631031036,-0.2364997416734695,0.0,0.0,-0.9953026175498962,-0.068164587020874
-0.0709960013628006,1.1785845756530762,-0.0899939015507698,-0.270128846168518,0.3275445997714996,-0.2375917136669159,0.0,0.0,-0.998474895954132,0.2746497392654419
-0.0719980224967002,1.1722006797790527,-0.0887329652905464,-0.2811767160892486,0.3156136870384216,-0.238618329167366,0.0,0.0,-0.9753672480583192,0.050299048423767
-0.0729882270097732,1.1655700206756592,-0.0874567702412605,-0.2922248840332031,0.3036350905895233,-0.2395718842744827,0.0,0.0,-0.9980295896530152,0.1422624588012695
-0.073966309428215,1.158692717552185,-0.0861661583185195,-0.3032733201980591,0.291612833738327,-0.240444928407669,0.0,0.0,-0.9941300749778748,0.2417025566101074
-0.0749320983886718,1.1515686511993408,-0.0848619565367698,-0.3143220543861389,0.2795513272285461,-0.2412301003932953,0.0,0.0,-0.989142656326294,0.258463978767395
-0.0758854895830154,1.144197940826416,-0.0835449546575546,-0.3253709971904754,0.2674552798271179,-0.2419203817844391,0.0,0.0,-0.994482159614563,0.2791199684143066
-0.0768262892961502,1.1365808248519895,-0.0822159424424171,-0.3364202678203583,0.2553298771381378,-0.2425088137388229,0.0,0.0,-0.9969388246536256,0.1875461339950561
-0.0777543038129806,1.128717064857483,-0.0808756947517395,-0.3474697470664978,0.2431804537773132,-0.2429887354373932,0.0,0.0,-0.994841694831848,0.478307843208313
-0.0786694511771202,1.1206068992614746,-0.0795249789953231,-0.3585194647312164,0.231012761592865,-0.2433537989854812,0.0,0.0,-0.9961346983909608,0.7597494125366211
-0.0795050635933876,1.112281084060669,-0.0697771161794662,-0.3679350018501282,0.2170562446117401,-0.2791300415992737,0.0,0.0,-0.9825263619422911,0.5397769212722778
-0.0802765861153602,1.1037287712097168,-0.062001995742321,-0.377947449684143,0.2017567157745361,-0.305990993976593,0.0,0.0,-0.9144994616508484,0.160334825515747
-0.0810347571969032,1.0949312448501587,-0.0606220662593841,-0.3890047371387481,0.1864580512046814,-0.3059731721878052,0.0,0.0,-0.7460302114486694,0.0850889682769775
-0.0817794799804687,1.085888385772705,-0.0592347495257854,-0.4000621736049652,0.1711671501398086,-0.3058175146579742,0.0,0.0,-0.7443740367889404,0.4739522933959961
-0.0825104713439941,1.076600193977356,-0.0578407272696495,-0.4111197590827942,0.1558911949396133,-0.3055189847946167,0.0,0.0,-0.6896525025367737,-0.493964672088623
-0.0832276344299316,1.0670669078826904,-0.0564406737685203,-0.4221773743629455,0.1406375169754028,-0.3050729036331177,0.0,0.0,-0.8701125979423523,-0.4555757641792297
-0.0839306861162185,1.0572881698608398,-0.055035226047039,-0.4332350790500641,0.1254137605428695,-0.304474800825119,0.0,0.0,-0.9614956974983216,-0.0787686705589294
-0.0846196189522743,1.0472643375396729,-0.0536250248551368,-0.444292813539505,0.1102277189493179,-0.3037206828594208,0.0,0.0,-0.930729866027832,-0.803564190864563
-0.0853562355041503,1.0369786024093628,-0.0599954612553119,-0.4561909139156341,0.096671923995018,-0.2711159586906433,0.0,0.0,-0.8052710294723511,-0.1603283286094665
-0.0860781669616699,1.026447057723999,-0.0585781522095203,-0.4672447443008423,0.0831699147820472,-0.2700403332710266,0.0,0.0,-0.9846441149711608,-0.8319051265716553
-0.0868493095040321,1.0156711339950562,-0.0651495903730392,-0.4783099591732025,0.0713252127170562,-0.2368939369916916,0.0,0.0,-0.9872826337814332,-0.5502716898918152
-0.0876427665352821,1.0046380758285522,-0.0684033781290054,-0.4898757934570312,0.0604990236461162,-0.2165238857269287,0.0,0.0,-0.8674903512001038,0.0403416156768798
-0.0884212478995323,0.9933581948280334,-0.0669790357351303,-0.5009241104125977,0.0497518256306648,-0.2149441242218017,0.0,0.0,-0.9058660268783568,-0.3409391641616821
-0.0891846641898155,0.9818317294120787,-0.0655532255768776,-0.5119722485542297,0.0390922464430332,-0.2131916582584381,0.0,0.0,-0.8888181447982788,0.3885339498519897
-0.0899329185485839,0.9700583219528198,-0.0641264915466308,-0.5230201482772827,0.0285289976745843,-0.211264967918396,0.0,0.0,-0.8845182061195374,-0.9661518931388856
-0.0907383933663368,0.9580366015434264,-0.0718023106455802,-0.534160315990448,0.0198940616101026,-0.1726987063884735,0.0,0.0,-0.8930394053459167,-0.3358701467514038
-0.0915284156799316,0.9457675218582152,-0.0703755021095275,-0.5452049374580383,0.0113729191944003,-0.1704225987195968,0.0,0.0,-0.9601196646690368,-0.9651039838790894
-0.0923700332641601,0.9332496523857116,-0.0773623958230018,-0.5563129782676697,0.0046594403684139,-0.1342695355415344,0.0,0.0,-0.9215315580368042,-0.621332049369812
-0.0932480841875076,0.9204787611961364,-0.0824509114027023,-0.5675908327102661,-0.0006178005132824,-0.1055448651313781,0.0,0.0,-0.9153210520744324,-0.3582957983016968
-0.094110295176506,0.9074596762657166,-0.0810278803110122,-0.5786313414573669,-0.0057548317126929,-0.1027407869696617,0.0,0.0,-0.9991806149482728,-0.977830410003662
-0.0950384140014648,0.8941836953163147,-0.0898295789957046,-0.5900658965110779,-0.0086966603994369,-0.0588364377617836,0.0,0.0,-0.9926653504371644,-0.953876256942749
-0.0960271805524826,0.8806688189506531,-0.09800935536623,-0.6006657481193542,-0.0095574660226702,-0.0172161869704723,0.0,0.0,-0.9819558262825012,0.7274301052093506
-0.0969348922371864,0.8669118285179138,-0.0884073600172996,-0.6114329695701599,-0.0118907643482089,-0.0466658994555473,0.0,0.0,-0.9862369894981384,0.5036311149597168
-0.0977942496538162,0.8529111742973328,-0.0829243212938308,-0.62227863073349,-0.0148641541600227,-0.059467427432537,0.0,0.0,-0.949013352394104,-0.7450324892997742
-0.0987093895673751,0.8386561274528503,-0.0905128642916679,-0.6335698962211609,-0.0158549658954143,-0.0198163576424121,0.0,0.0,-0.996519148349762,-0.1146709322929382
-0.0996086150407791,0.8241525888442993,-0.0891129523515701,-0.6446079015731812,-0.0166545268148183,-0.0159910935908556,0.0,0.0,-0.94135981798172,0.7754204273223877
-0.1004408821463584,0.809399425983429,-0.0813157111406326,-0.6557197570800781,-0.018537389114499,-0.0376573577523231,0.0,0.0,-0.9102294445037842,0.6971704959869385
-0.1012069731950759,0.7943993806838989,-0.073633387684822,-0.6667052507400513,-0.0214731283485889,-0.0587146766483783,0.0,0.0,-0.8513200283050537,-0.2932104468345642
-0.1019570380449295,0.7791511416435242,-0.0722539126873016,-0.6777436137199402,-0.0241938531398773,-0.0544143430888652,0.0,0.0,-0.5827032923698425,-0.1429008841514587
-0.1026911735534668,0.7636545300483704,-0.0708827227354049,-0.6887817978858948,-0.0266919936984777,-0.049963004887104,0.0,0.0,-0.3724645376205444,-0.3140345811843872
-0.1034093871712684,0.7479094862937927,-0.0695205926895141,-0.6998199224472046,-0.0289602316915988,-0.0453647710382938,0.0,0.0,-0.6396143436431885,-0.6803359389305115
-0.1041572540998458,0.7319130301475525,-0.073890246450901,-0.7109689712524414,-0.029847253113985,-0.0177403856068849,0.0,0.0,0.0750250816345214,-0.0887857675552368
-0.1047824844717979,0.716221034526825,-0.0623179003596305,-0.69742751121521,-0.0300475619733333,-0.0040064817294478,0.0,0.0,0.592326283454895,-0.484707236289978
-0.1052461639046669,0.7008444666862488,-0.0470446348190307,-0.6833918690681458,-0.0293758958578109,0.0134334620088338,0.0,0.0,0.1439250707626342,0.3089756965637207
-0.1056826561689376,0.6859995126724243,-0.0445718690752983,-0.659758985042572,-0.0284654293209314,0.0182091630995273,0.0,0.0,-0.0529735088348388,-0.4754362106323242
-0.1061035171151161,0.6709060072898865,-0.0432684049010276,-0.6707965135574341,-0.027291839942336,0.023471837863326,0.0,0.0,0.0267586708068847,-0.0304306745529174
-0.1064200401306152,0.6561826467514038,-0.0334726199507713,-0.6543409824371338,-0.0254912767559289,0.0360110662877559,0.0,0.0,-0.8582465648651123,0.5267059803009033
-0.1066723838448524,0.6412034630775452,-0.0261050909757614,-0.6657286882400513,-0.0246396586298942,0.0170323643833398,0.0,0.0,0.1255800724029541,-0.387198805809021
-0.1069367378950119,0.626497209072113,-0.0274045579135417,-0.6535881161689758,-0.0236737392842769,0.0193183161318302,0.0,0.0,-0.2478911876678466,0.0935347080230712
-0.1071857437491417,0.6115426421165466,-0.0261671654880046,-0.6646257638931274,-0.0224228948354721,0.0250168032944202,0.0,0.0,-0.3328114748001098,0.4940676689147949
-0.1074195876717567,0.596339762210846,-0.0249494742602109,-0.6756633520126343,-0.0208824146538972,0.0308095701038837,0.0,0.0,-0.1244771480560302,0.7203453779220581
-0.1075932532548904,0.5808935761451721,-0.0180699340999126,-0.6864877343177795,-0.0201840307563543,0.0139674022793769,0.0,0.0,0.5932857990264893,0.1940542459487915
-0.1076545715332031,0.5662056803703308,-0.0075363600626587,-0.6527760624885559,-0.0187993459403514,0.0276938676834106,0.0,0.0,-0.5049726366996765,0.8582311868667603
-0.1076394096016883,0.551273763179779,0.0013845397625118,-0.6636350750923157,-0.018667459487915,0.0026376163586974,0.0,0.0,-0.2919589281082153,-0.2071625590324401
-0.1076098456978797,0.536093533039093,0.0025084947701543,-0.6746726632118225,-0.0182302296161651,0.0087447892874479,0.0,0.0,0.3021013736724853,0.8597028255462646
-0.1075135245919227,0.5212493538856506,0.0106328185647726,-0.6597540378570557,-0.0192145444452762,-0.0196864921599626,0.0,0.0,-0.3744759559631347,0.1994447708129882
-0.10740327835083,0.5061566829681396,0.0116997733712196,-0.6707916259765625,-0.0198876168578863,-0.0134612973779439,0.0,0.0,0.9465678930282592,0.014714241027832
-0.1074445694684982,0.4917464256286621,-0.0029308372177183,-0.6404737830162048,-0.0210670791566371,-0.0235890187323093,0.0,0.0,-0.0184895396232604,0.9550490379333496
-0.1073836311697959,0.4770905375480652,0.0092287082225084,-0.6514169573783875,-0.0241638794541358,-0.0619359128177166,0.0,0.0,0.4891120195388794,-0.5740023851394653
-999.0,0.4626795053482055,0.0111435446888208,-0.6405158638954163,-0.0256625656038522,-0.0299737956374883,0.0,0.0,0.6895604133605957,0.7826542854309082
-0.1069333106279373,0.4491873979568481,0.0378625765442848,-0.5996935963630676,-0.0280873943120241,-0.0484965294599533,0.0,0.0,0.2653201818466186,-0.4850586652755737
-0.1065678596496582,0.4363387823104858,0.0387537851929664,-0.5710936188697815,-0.0302733704447746,-0.0437193252146244,0.0,0.0,-0.2298508882522583,0.2657161951065063
-0.1061907783150672,0.4232416450977325,0.0396012812852859,-0.5821313858032227,-0.0321387164294719,-0.0373071357607841,0.0,0.0,0.5766339302062988,-0.0270042419433593
-0.1057118400931358,0.4107218980789184,0.0491195023059845,-0.556461751461029,-0.0333464667201042,-0.0241550635546445,0.0,0.0,0.8587162494659424,0.8411056995391846
-0.1051335334777832,0.3993362188339233,0.0604350492358207,-0.5060874819755554,-0.035923171788454,-0.0515341535210609,0.0,0.0,-0.3731497526168823,-0.6692363619804382
-0.1045924201607704,0.387710690498352,0.0551844723522663,-0.5167204737663269,-0.036981713026762,-0.0211707782000303,0.0,0.0,-0.4631563425064087,-0.3397864103317261
-0.1040414795279502,0.375836580991745,0.0558400973677635,-0.5277576446533203,-0.0377208329737186,-0.0147823793813586,0.0,0.0,0.1827590465545654,0.856870174407959
-0.1034980788826942,0.3643808364868164,0.0565517544746398,-0.5092016458511353,-0.0399050861597061,-0.0436850227415561,0.0,0.0,-0.1007826924324035,0.1460809707641601
-0.1029459983110427,0.3526766002178192,0.0570971295237541,-0.5202390551567078,-0.0417728908360004,-0.0373561754822731,0.0,0.0,-0.0290141701698303,-0.0709314346313476
-0.102385900914669,0.3407238721847534,0.0575839355587959,-0.5312763452529907,-0.0433263629674911,-0.0310695022344589,0.0,0.0,0.3209333419799804,0.2950345277786255
-0.1017791777849197,0.3291604220867157,0.0618356987833976,-0.513963520526886,-0.0444720797240734,-0.0229140315204858,0.0,0.0,0.0334426164627075,-0.1711601614952087
-0.1010739356279373,0.3176801204681396,0.0709782019257545,-0.5102505087852478,-0.0449311733245849,-0.0091815656051039,0.0,0.0,-0.1922140121459961,0.1064392328262329
-0.1003627777099609,0.3059512376785278,0.0712766200304031,-0.5212875008583069,-0.0450848713517189,-0.0030739703215658,0.0,0.0,0.797086238861084,-0.412170946598053
-0.0995794311165809,0.2952868342399597,0.0780613273382186,-0.4739682078361511,-0.044811088591814,0.0054756053723394,0.0,0.0,-0.3007208108901977,-0.6265726685523987
