x_pos,y_pos,x_vel,y_vel,angle,ang_vel,leg_1,leg_2,main_booster,lat_booster
-0.0014800071949139,1.4033522605895996,-0.1498932540416717,-0.3363533318042755,0.0016813002293929,0.0331595912575721,0.0,0.0,0.1927655935287475,0.6865326166152954
-0.0028213500045239,1.396031618118286,-0.1344073414802551,-0.3253631293773651,0.0019617301877588,0.0056096618063747,0.0,0.0,-0.4718160629272461,0.5703041553497314
-0.0040644644759595,1.3884339332580566,-0.1231374964118003,-0.3376685082912445,0.0007977298810146,-0.023282203823328,0.0,0.0,-0.4894587397575378,0.2371118068695068
-0.0052644731476902,1.3805642127990725,-0.118753969669342,-0.3497725427150726,-0.000435494876001,-0.0246666930615901,0.0,0.0,-0.1400991678237915,0.1036089658737182
-0.0064216614700853,1.3724219799041748,-0.1143956407904625,-0.3618757426738739,-0.0017412352608516,-0.0261173490434885,0.0,0.0,-0.2463120222091674,0.6975245475769043
-0.0074688913300633,1.3640064001083374,-0.1016144901514053,-0.3740327656269073,-0.004815976601094,-0.0615004301071167,0.0,0.0,-0.1135505437850952,0.1732953786849975
-0.0084736822172999,1.3553186655044556,-0.0973060727119445,-0.3861359059810638,-0.0079669700935482,-0.0630254298448562,0.0,0.0,-0.5445075631141663,0.3178102970123291
-0.0094366073608398,1.3463586568832395,-0.0930287465453147,-0.3982390761375427,-0.0111977159976959,-0.0646209046244621,0.0,0.0,-0.6080138683319092,0.2032020092010498
-0.0103579517453908,1.3371267318725586,-0.0887844562530517,-0.4103424847126007,-0.014510235749185,-0.066256396472454,0.0,0.0,-0.5878921747207642,-0.0664555430412292
-0.0112380031496286,1.3276225328445437,-0.0845754593610763,-0.4224459528923034,-0.0179067868739366,-0.0679370835423469,0.0,0.0,-0.7358800768852234,-0.4585794806480407
-0.0120772365480661,1.3178460597991943,-0.0804041698575019,-0.4345495104789734,-0.0213895738124847,-0.069661721587181,0.0,0.0,-0.2159293889999389,-0.3261922597885132
-0.0128760337829589,1.3077977895736694,-0.0762731060385704,-0.4466532766819,-0.0249606911092996,-0.0714287012815475,0.0,0.0,-0.3625969290733337,-0.446190595626831
-0.0136348726227879,1.2974772453308103,-0.0721849277615547,-0.4587571322917938,-0.0286221709102392,-0.0732362046837806,0.0,0.0,-0.969263792037964,-0.462050199508667
-0.0143542289733886,1.2868845462799072,-0.0681424215435981,-0.4708611667156219,-0.0323759540915489,-0.0750821977853775,0.0,0.0,-0.6959183812141418,-0.8257643580436707
-0.0150843616575002,1.2760307788848877,-0.0703873261809349,-0.4824509918689728,-0.0349678322672843,-0.0518422834575176,0.0,0.0,-0.5015208721160889,-0.8804728388786316
-0.0158331878483295,1.264897346496582,-0.0736003369092941,-0.494848370552063,-0.0362279154360294,-0.0252043269574642,0.0,0.0,-0.9824932813644408,-0.4367406964302063
-0.0165441520512104,1.2534916400909424,-0.0697204619646072,-0.506951630115509,-0.0375862419605255,-0.0271691344678401,0.0,0.0,-0.6855474710464478,-0.8386203050613403
-0.0172686576843261,1.241809368133545,-0.0722557455301284,-0.5192127823829651,-0.0377729423344135,-0.0037345911841839,0.0,0.0,-0.9266682267189026,-0.3911041021347046
-0.017956543713808,1.2298550605773926,-0.0684989839792251,-0.5313159227371216,-0.0380611717700958,-0.0057652620598673,0.0,0.0,-0.8048854470252991,-0.7883450388908386
-0.018679141998291,1.2176319360733032,-0.0736608207225799,-0.5432114005088806,-0.0366757474839687,0.0277110077440738,0.0,0.0,-0.7318540811538696,-0.5538086891174316
-0.0194009784609079,1.2051424980163574,-0.0743579044938087,-0.5550296306610107,-0.0345267951488494,0.0429829359054565,0.0,0.0,-0.8795354962348938,0.5854203701019287
-0.0200413707643747,1.1923751831054688,-0.0649059116840362,-0.5674165487289429,-0.0336692556738853,0.0171523429453372,0.0,0.0,-0.3571985960006714,-0.6582744121551514
-0.0206889156252145,1.1793367862701416,-0.0665559321641922,-0.5794456005096436,-0.0318901799619197,0.0355849787592887,0.0,0.0,-0.7890339493751526,0.0857373476028442
-0.0213037487119436,1.1660261154174805,-0.0631669759750366,-0.5915490388870239,-0.0302182454615831,0.0334414057433605,0.0,0.0,-0.8293130397796631,-0.224012017250061
-0.0218864437192678,1.1524431705474854,-0.0598610714077949,-0.6036525964736938,-0.028653260320425,0.031302835792303,0.0,0.0,-0.5784384608268738,-0.3030287623405456
-0.022438621148467,1.1385667324066162,-0.0566829033195972,-0.6167093515396118,-0.0271957125514745,0.0291506443172693,0.0,0.0,-0.8927947282791138,0.0249910354614257
-0.0229603759944438,1.1244179010391235,-0.0535513646900653,-0.6288106441497803,-0.0258457623422145,0.026999220252037,0.0,0.0,-0.955341637134552,-0.3105760812759399
-0.0234529487788677,1.1099969148635864,-0.0505153462290763,-0.640911877155304,-0.0246033985167741,0.0248472895473241,0.0,0.0,-0.7092505097389221,-0.1020944118499755
-0.0239172931760549,1.0953037738800049,-0.0475786887109279,-0.6530131101608276,-0.0234685130417346,0.0226978380233049,0.0,0.0,-0.8425803780555725,-0.3453075885772705
-0.024354362860322,1.0803382396697998,-0.0447451546788215,-0.6651142835617065,-0.0224408563226461,0.0205531604588031,0.0,0.0,-0.8403663039207458,-0.5386480093002319
-0.0248064044862985,1.0651081800460815,-0.0471901670098304,-0.6768679022789001,-0.0204816590994596,0.0391841903328895,0.0,0.0,-0.6736055612564087,0.1985054016113281
-0.0252333637326955,1.0496058464050293,-0.0445738174021244,-0.6889693140983582,-0.0186288058757781,0.0370569042861461,0.0,0.0,-0.5892590880393982,-0.3639885187149048
-0.0256362911313772,1.0338313579559326,-0.0420712493360042,-0.7010705471038818,-0.0168816912919282,0.0349424742162227,0.0,0.0,-0.067718505859375,0.4065421819686889
-0.0260165221989154,1.017784595489502,-0.0396857298910617,-0.7131717801094055,-0.015239511616528,0.0328436531126499,0.0,0.0,-0.4697088003158569,0.232637882232666
-0.0263751037418842,1.0014655590057373,-0.0374203138053417,-0.7252729535102844,-0.0137013616040349,0.0307628903537988,0.0,0.0,-0.5668207406997681,-0.2482293844223022
-0.0267133712768554,0.984874427318573,-0.0352778360247612,-0.7373741269111633,-0.0122662177309393,0.0287030283361673,0.0,0.0,-0.5128472447395325,0.3860242366790771
-0.0270324703305959,0.96801096200943,-0.0332608930766582,-0.7494751811027527,-0.010932876728475,0.0266667120158672,0.0,0.0,-0.4324376583099365,0.0661556720733642
-0.0273337364196777,0.9508752822875975,-0.0313717946410179,-0.7615763545036316,-0.0097000449895858,0.0246567241847515,0.0,0.0,-0.7588751316070557,0.3011033535003662
-0.027618408203125,0.9334673881530762,-0.0296125598251819,-0.773677408695221,-0.0085662491619586,0.0226757116615772,0.0,0.0,0.0829132795333862,0.4324817657470703
-0.0278657916933298,0.9163846373558044,-0.0258768107742071,-0.7592270970344543,-0.0074442499317228,0.0224400460720062,0.0,0.0,-0.152821660041809,0.3925018310546875
-0.0280992500483989,0.8990296721458435,-0.0243821255862712,-0.7713281512260437,-0.0064179948531091,0.020525163039565,0.0,0.0,0.2723973989486694,0.4895834922790527
-0.0282223708927631,0.8820063471794128,-0.0137015786021947,-0.7565901279449463,-0.0050459285266697,0.027441319078207,0.0,0.0,-0.3145920038223266,0.3600739240646362
-0.0283341407775878,0.8647105693817139,-0.0124756172299385,-0.7686911821365356,-0.0037657564971596,0.0256034918129444,0.0,0.0,-0.5243141651153564,0.464918851852417
-0.0284359939396381,0.84714275598526,-0.0113847088068723,-0.780792236328125,-0.0025753322988748,0.0238083712756633,0.0,0.0,-0.2481840848922729,0.1468836069107055
-0.0285290721803903,0.8293027281761169,-0.0104288421571254,-0.7928932905197144,-0.001472404692322,0.022058580070734,0.0,0.0,-0.0601864457130432,0.7082300186157227
-0.0285545345395803,0.811182975769043,-0.0020394008606672,-0.8053226470947266,-0.0019703989382833,-0.0099598318338394,0.0,0.0,0.3770908117294311,0.0299409627914428
-0.0285223964601755,0.7933495044708252,0.0035689852666109,-0.7925971150398254,-0.0023157319519668,-0.0069066560827195,0.0,0.0,-0.0597699880599975,0.5660667419433594
-0.0284489635378122,0.7752496600151062,0.0086961910128593,-0.8044348359107971,-0.0036564774345606,-0.0268150363117456,0.0,0.0,-0.1395015716552734,-0.5387391448020935
-0.0284241680055856,0.7568827867507935,0.0025925056543201,-0.8163087368011475,-0.0037669469602406,-0.0022093751467764,0.0,0.0,0.5343921184539795,0.4669314622879028
-0.0284150131046772,0.7389523386955261,0.0011916544754058,-0.7969127893447876,-0.0040424498729407,-0.0055099702440202,0.0,0.0,0.1736139059066772,0.5238580703735352
-0.0282501224428415,0.7213568687438965,0.0176750682294368,-0.7820202708244324,-0.005207484588027,-0.0233006067574024,0.0,0.0,-0.5657016634941101,0.0132194757461547
-0.028085421770811,0.703489363193512,0.0177146680653095,-0.7941213250160217,-0.0064402916468679,-0.0246560405939817,0.0,0.0,-0.0262321233749389,-0.2828570604324341
-0.027922248467803,0.6853494644165039,0.0176312364637851,-0.8062223196029663,-0.0077374968677759,-0.0259440839290618,0.0,0.0,-0.4928467273712158,-0.3145543336868286
-0.0277617461979389,0.6669373512268066,0.0174275338649749,-0.8183233737945557,-0.0090955914929509,-0.0271618925034999,0.0,0.0,-0.1068734526634216,-0.3192774057388305
-0.0276050567626953,0.6482531428337097,0.0171065405011177,-0.8304244875907898,-0.010510928928852,-0.0283067412674427,0.0,0.0,0.1558009386062622,0.2492479085922241
-0.0275164600461721,0.6297921538352966,0.0106479013338685,-0.8205060958862305,-0.0122889652848243,-0.0355604663491249,0.0,0.0,0.0197646617889404,-0.066513180732727
-0.0273698810487985,0.6117956042289734,0.0162389315664768,-0.799859344959259,-0.0138480719178915,-0.031181925907731,0.0,0.0,-0.2861349582672119,-0.6356700658798218
-0.0272690765559673,0.5935302376747131,0.0107233645394444,-0.8118008971214294,-0.0144781190901994,-0.0126011203974485,0.0,0.0,0.1052488088607788,-0.1493679881095886
-0.0271183010190725,0.5758175849914551,0.0155295301228761,-0.7872320413589478,-0.0149182071909308,-0.0088019426912069,0.0,0.0,0.2890640497207641,-0.4208340644836426
-0.0270266532897949,0.5587536692619324,0.0099257472902536,-0.758407473564148,-0.0156701207160949,-0.0150382574647665,0.0,0.0,0.1097946166992187,-0.5377374291419983
-0.0269454959779977,0.5417858362197876,0.0077506587840616,-0.7541177868843079,-0.0153172258287668,0.0070579797029495,0.0,0.0,0.0431236028671264,-0.1044844985008239
-0.0269316677004098,0.52521151304245,0.0013508789706975,-0.7366360425949097,-0.0152850160375237,0.0006441613077186,0.0,0.0,-0.2753154039382934,-0.2005828619003296
-0.0269293785095214,0.5083649754524231,0.0002165514451917,-0.7487369179725647,-0.015275883488357,0.0001827812666306,0.0,0.0,0.5756540298461914,0.0712106227874755
-0.0269081108272075,0.4921223521232605,0.0020343796350061,-0.7218925952911377,-0.015180991962552,0.0018977855797857,0.0,0.0,0.1417783498764038,-0.3447756767272949
-0.0268902778625488,0.476022869348526,0.0016712102806195,-0.7155324220657349,-0.0150743015110492,0.0021335377823561,0.0,0.0,0.2478636503219604,-0.0371904969215393
-0.0269731525331735,0.4603227376937866,-0.0079420618712902,-0.6977871060371399,-0.0154082495719194,-0.0066791637800633,0.0,0.0,0.6848838329315186,0.3057959079742431
-0.0270351413637399,0.4456587731838226,-0.0059575508348643,-0.6517316699028015,-0.0156438574194908,-0.0047120763920247,0.0,0.0,-0.9292234182357788,0.0093721151351928
-0.0271122939884662,0.4307225942611694,-0.0074762823060154,-0.6638325452804565,-0.0158770103007555,-0.0046629002317786,0.0,0.0,-0.1385343074798584,0.0386219024658203
-0.0272050853818655,0.4155141711235046,-0.0090602915734052,-0.6759334206581116,-0.0161022786051034,-0.0045052031055092,0.0,0.0,0.8827166557312012,-0.1104792356491088
-0.0274128913879394,0.4008450508117676,-0.020055916160345,-0.6519677639007568,-0.0168102290481328,-0.0141588617116212,0.0,0.0,0.6591691970825195,0.4876735210418701
-0.027718162164092,0.3869259655475616,-0.0294023416936397,-0.6186429262161255,-0.0179257858544588,-0.0223113261163234,0.0,0.0,0.3129173517227173,0.6558442115783691
-0.0279529578983783,0.3734753727912903,-0.0210962798446416,-0.5978326797485352,-0.0202745050191879,-0.0469741374254226,0.0,0.0,0.1030294895172119,0.6479475498199463
-0.028239632025361,0.3606069087982178,-0.0248884595930576,-0.5719874501228333,-0.0240031741559505,-0.0745734423398971,0.0,0.0,0.3750873804092407,-0.4910939931869507
-0.0284717567265033,0.3481848537921905,-0.0197604354470968,-0.5521495938301086,-0.0274128559976816,-0.0681937113404274,0.0,0.0,0.0241024494171142,-0.6022434830665588
-0.0287870410829782,0.3358524143695831,-0.029305201023817,-0.5481529831886292,-0.0296129025518894,-0.0440007075667381,0.0,0.0,-0.5885800123214722,0.6939311027526855
-0.0290603637695312,0.323237657546997,-0.0235920753329992,-0.5607315301895142,-0.0333020575344562,-0.0737830698490142,0.0,0.0,0.516523003578186,-0.3088230490684509
-0.0293714515864849,0.3108193874359131,-0.027291040867567,-0.5520123243331909,-0.0370718464255332,-0.0753959268331527,0.0,0.0,0.4577506780624389,-0.821803092956543
-0.0297492034733295,0.2991895675659179,-0.0356546528637409,-0.516936719417572,-0.039157960563898,-0.0417224317789077,0.0,0.0,-0.5995464324951172,-0.4480612277984619
-0.0301465038210153,0.2872874736785888,-0.0376918576657772,-0.5290377736091614,-0.0411788672208786,-0.0404180586338043,0.0,0.0,0.5535752773284912,-0.0342400670051574
-0.0306375510990619,0.2762714624404907,-0.0466385632753372,-0.4896679222583771,-0.0436169542372226,-0.0487616881728172,0.0,0.0,-0.3638214468955993,0.4476193189620971
-0.0311486236751079,0.2649832963943481,-0.0487259440124034,-0.5017690062522888,-0.0459783598780632,-0.0472277924418449,0.0,0.0,0.4152004718780517,0.806279182434082
-0.0315462127327919,0.254437655210495,-0.0358734652400016,-0.4688188731670379,-0.049808070063591,-0.0765944346785545,0.0,0.0,-0.1139225363731384,-0.7578357458114624
-0.0320340171456337,0.2436249107122421,-0.0467789694666862,-0.4806317090988159,-0.0517882369458675,-0.0396033488214015,0.0,0.0,-0.0885068178176879,0.3448154926300049
-0.0325422286987304,0.2325399518013,-0.048918567597866,-0.4927324950695038,-0.0536750257015228,-0.0377353839576244,0.0,0.0,0.6550891399383545,-0.6280896663665771
-0.0330958366394043,0.2222401946783065,-0.0547893568873405,-0.4577886760234833,-0.0542431250214576,-0.0113623049110174,0.0,0.0,-0.4485763311386108,0.5533022880554199
-0.0336199775338172,0.2116641402244568,-0.0506680719554424,-0.47011199593544,-0.0559677630662918,-0.0344928465783596,0.0,0.0,-0.2050851583480835,-0.693245530128479
-0.0342175476253032,0.200813353061676,-0.0594611056149005,-0.4822692275047302,-0.0562592633068561,-0.0058299107477068,0.0,0.0,0.3925831317901611,0.3553693294525146
-0.034738540649414,0.1901918053627014,-0.0522789135575294,-0.4720588624477386,-0.0560748651623725,0.0036876637022942,0.0,0.0,0.3204439878463745,0.7962424755096436
-0.0350586883723735,0.1799648553133011,-0.0308757461607456,-0.4545761942863464,-0.057199403643608,-0.0224910825490951,0.0,0.0,0.5577890872955322,-0.3446950912475586
-0.0352467522025108,0.1700111478567123,-0.0184070877730846,-0.4424034059047699,-0.0575921908020973,-0.0078556071966886,0.0,0.0,-0.1014617085456848,-0.4670746326446533
-0.0354551300406456,0.1597850620746612,-0.0205683168023824,-0.4545036554336548,-0.0578566789627075,-0.0052895853295922,0.0,0.0,0.6299765110015869,0.2442191839218139
-0.0356099121272563,0.1504046320915222,-0.0154871735721826,-0.4169078469276428,-0.0578473061323165,0.0001876246387837,0.0,0.0,-0.0085570216178894,-0.3002434372901916
-0.0357847213745117,0.1407518237829208,-0.0176305063068866,-0.4290080666542053,-0.0577010214328765,0.0029256683774292,0.0,0.0,0.6493387222290039,0.1612856388092041
-0.0358600616455078,0.1313059478998184,-0.0083000250160694,-0.4197877943515777,-0.0569480657577514,0.0150593947619199,0.0,0.0,0.2773311138153076,-0.4525253772735595
-0.0359732620418071,0.1221807077527046,-0.0120390998199582,-0.4055362343788147,-0.0562382228672504,0.0141968308016657,0.0,0.0,0.4548447132110595,-0.157838761806488
-0.0359888076782226,0.1139147132635116,-0.0027712234295904,-0.3673325777053833,-0.0550351031124591,0.0240621827542781,0.0,0.0,0.118016242980957,-0.7231479287147522
-0.0360775962471962,0.1059591397643089,-0.0116787012666463,-0.3534784913063049,-0.0522581785917282,0.0555381886661052,0.0,0.0,0.356987714767456,-0.4346605539321899
-0.0362531654536724,0.0987181067466735,-0.0200474224984645,-0.3217401504516601,-0.0497987531125545,0.0491886995732784,0.0,0.0,-0.2317778468132019,0.4415748119354248
-0.0364474281668663,0.0912047699093818,-0.0220779180526733,-0.3338409066200256,-0.0471807941794395,0.0523593798279762,0.0,0.0,0.1166176795959472,0.3417497873306274
-0.0366723053157329,0.0841814577579498,-0.0251330882310867,-0.3120656311511993,-0.0445686988532543,0.0522419326007366,0.0,0.0,0.0220688581466674,0.8482365608215332
-0.0368877425789833,0.0775856599211692,-0.022638602182269,-0.2931157052516937,-0.0434838905930519,0.0216962527483701,0.0,0.0,-0.0052416324615478,0.8844500780105591
-0.0370538718998432,0.0707101225852966,-0.0161781385540962,-0.3055908977985382,-0.0439195297658443,-0.0087127601727843,0.0,0.0,0.2087126970291137,0.5532394647598267
-0.0372680649161338,0.0642254650592804,-0.0198548678308725,-0.2882537245750427,-0.0454678945243358,-0.0309672597795724,0.0,0.0,0.394160509109497,0.1835527420043945
-0.0376060493290424,0.0581393577158451,-0.0318089686334133,-0.2705532312393188,-0.0474318228662014,-0.0392784923315048,0.0,0.0,0.3345429897308349,0.2230026721954345
-0.0378476157784462,0.0526446215808391,-0.0227446183562278,-0.2442567646503448,-0.0488259419798851,-0.0278821736574172,0.0,0.0,-0.4521359205245971,0.6480056047439575
-0.0380491241812706,0.0468677133321762,-0.0174778215587139,-0.2568390965461731,-0.0514657609164714,-0.0527962744235992,0.0,0.0,0.2076109647750854,0.2946760654449463
-0.0381317138671875,0.0416457019746303,-0.0062700249254703,-0.2321590036153793,-0.0534371882677078,-0.0394283048808574,0.0,0.0,-0.2551365494728088,-0.2362755537033081
-0.0382296554744243,0.036151323467493,-0.0079818535596132,-0.2442594021558761,-0.0552288964390754,-0.0358341410756111,0.0,0.0,0.49383544921875,0.8608274459838867
-0.0380864143371582,0.0315341316163539,0.0174911431968212,-0.205327957868576,-0.0583596490323543,-0.0626150518655777,0.0,0.0,-0.4422926902770996,-0.0264015197753906
-0.0379575714468956,0.0266447160392999,0.0158709771931171,-0.2174287587404251,-0.0613075755536556,-0.0589585974812507,0.0,0.0,0.1013728380203247,-0.0836798548698425
-0.037813950330019,0.0222982503473758,0.0171784423291683,-0.1932928413152694,-0.0640935748815536,-0.0557201318442821,0.0,0.0,-0.3409285545349121,-0.1669333577156067
-0.0376836769282817,0.0176794864237308,0.0156563520431518,-0.2053933888673782,-0.0666941255331039,-0.0520110912621021,0.0,0.0,0.26955246925354,-0.3959721326828003
-0.0374809280037879,0.0133094163611531,0.0224229954183101,-0.1943208128213882,-0.0688216760754585,-0.0425511263310909,0.0,0.0,0.4094172716140747,0.4584972858428955
-0.037358283996582,0.009467170573771,0.0147115439176559,-0.1708835810422897,-0.0712443068623542,-0.0484524741768837,0.0,0.0,0.0747269392013549,0.188784122467041
-0.037306785583496,0.0058624241501092,0.0077928542159497,-0.1603390276432037,-0.0738646388053894,-0.0524065680801868,1.0,0.0,0.6431398391723633,0.4151084423065185
-0.0372017845511436,0.0031970953568816,0.0046619134955108,-0.1184372082352638,-0.0672943145036697,0.1324431598186493,1.0,0.0,0.6331784725189209,-0.4070061445236206
-0.0369547829031944,0.001433668192476,0.006853184197098,-0.0776805728673935,-0.049613706767559,0.3536600768566131,1.0,0.0,-0.1075615882873535,0.2668690681457519
-0.0366585738956928,-0.0003066921199206,0.0036208622623234,-0.0766967087984085,-0.0239065438508987,0.5141878128051758,1.0,0.0,0.1366388797760009,0.341876745223999
-0.0362655632197856,-0.0015156888402998,0.0103480378165841,-0.053529817610979,0.004711216315627,0.5723946690559387,1.0,0.0,0.3468954563140869,0.9100627899169922
-0.0360301956534385,-0.0014528536703437,0.0178216453641653,0.0027464143931865,0.0102810254320502,0.1113137975335121,1.0,1.0,-0.5255148410797119,0.1238622665405273
