x_pos,y_pos,x_vel,y_vel,angle,ang_vel,leg_1,leg_2,main_booster,lat_booster
-0.0014877319335937,1.4032379388809204,-0.1512233018875122,-0.3414326012134552,0.0021934050600975,0.0432990305125713,0.0,0.0,-0.5969272011947662,-0.9458552704375738
-0.0030121803283691,1.3951876163482666,-0.1567821502685547,-0.3578044474124908,0.0064870035275816,0.0858807787299156,0.0,0.0,0.1594229471188033,0.5624662801680831
-0.0043641091324388,1.3871729373931885,-0.1390672624111175,-0.35622438788414,0.0103175565600395,0.0766182020306587,0.0,0.0,-0.3915093143712695,-0.7441779172043992
-0.0057643889449536,1.3787685632705688,-0.1461383402347564,-0.3735832870006561,0.0163598917424678,0.120857760310173,0.0,0.0,0.9876372215222124,0.5625900019009944
-0.0069519998505711,1.371161699295044,-0.1247151270508766,-0.3381586968898773,0.0222432296723127,0.1176776438951492,0.0,0.0,-0.0770496922265928,0.8606253424705521
-0.0080451015383005,1.3631700277328491,-0.1135893911123275,-0.3552540838718414,0.0264884363859891,0.0849119275808334,0.0,0.0,0.0560266691559623,0.624140373228127
-0.0091084484010934,1.355346918106079,-0.1098131909966468,-0.3477535545825958,0.0299300793558359,0.0688391849398613,0.0,0.0,0.8702309780318778,-0.9586857854363549
-0.0100799556821584,1.3482437133789062,-0.1033451333642005,-0.3158359825611114,0.0360619388520717,0.1226482987403869,0.0,0.0,0.6318096177297803,-0.5753345821029581
-0.0111431125551462,1.341996669769287,-0.114089235663414,-0.2778520286083221,0.0437540709972381,0.1538568288087844,0.0,0.0,0.9840140195293718,-0.6075908232117893
-0.0123019218444824,1.3366719484329224,-0.1253360658884048,-0.2369571775197982,0.0531048402190208,0.1870326697826385,0.0,0.0,-0.9298326992887882,-0.8970230322856468
-0.0135350227355957,1.3309580087661743,-0.1347481310367584,-0.2543941438198089,0.064438596367836,0.2266957461833953,0.0,0.0,-0.7203313691275783,-0.6416845528930802
-0.0148310661315917,1.3248544931411743,-0.1426380723714828,-0.2718827426433563,0.0773554742336273,0.2583610415458679,0.0,0.0,-0.5512422671536175,-0.8115124598237722
-0.0162005424499511,1.3183656930923462,-0.1517089158296585,-0.2892213761806488,0.0919939279556274,0.292795717716217,0.0,0.0,0.3108325985224509,-0.9998708852468476
-0.0176382064819335,1.3119035959243774,-0.1609986424446106,-0.288347989320755,0.1091129705309867,0.3424123525619507,0.0,0.0,-0.4153324296613672,0.9637368310311548
-0.019015884026885,1.305084466934204,-0.1530417501926422,-0.3042672276496887,0.1243204623460769,0.3041775822639465,0.0,0.0,-0.279372309737625,0.6562151131584796
-0.0203685760498046,1.2978858947753906,-0.1494419574737548,-0.3211776912212372,0.1384473294019699,0.2825633883476257,0.0,0.0,0.8522353820766151,0.9520134199427626
-0.0216506961733102,1.2917909622192385,-0.141205683350563,-0.2721495330333709,0.1514202803373336,0.259483277797699,0.0,0.0,0.0927161395356592,0.7391477726805589
-0.0228494647890329,1.2857108116149902,-0.1319101005792617,-0.2714958488941192,0.1634716987609863,0.241049975156784,0.0,0.0,0.0792343437288858,0.8654353897178196
-0.0240413658320903,1.280065894126892,-0.1299515217542648,-0.2521085441112518,0.174263134598732,0.2158484458923339,0.0,0.0,0.023649857875704,0.9434835026727844
-0.0253308303654193,1.2745578289031982,-0.1382818520069122,-0.2459236681461334,0.1836411207914352,0.1875768005847931,0.0,0.0,0.9388199195231272,0.8925609056224744
-0.0266053192317485,1.270037293434143,-0.1357623040676117,-0.2019610404968261,0.1919997185468673,0.1671867668628692,0.0,0.0,-0.4677110620077958,0.6499048221992771
-0.0278853420168161,1.2651430368423462,-0.1354231536388397,-0.2184912711381912,0.1994822770357132,0.14966481924057,0.0,0.0,0.2817479665866012,-0.6009764859295156
-0.0292466171085834,1.2605037689208984,-0.1454016119241714,-0.2074670940637588,0.2088284194469452,0.1869396269321441,0.0,0.0,-0.0588009141577414,0.5073746743158037
-0.0306263919919729,1.2554882764816284,-0.1465322226285934,-0.2241411805152893,0.2174829095602035,0.1731051653623581,0.0,0.0,-0.2190518775070495,0.6054040282022075
-0.0320360176265239,1.2501018047332764,-0.1490212082862854,-0.2406052201986313,0.2256452739238739,0.1632617861032486,0.0,0.0,0.7453467366235542,0.6522062715470651
-0.0337889678776264,1.2453620433807373,-0.1820868849754333,-0.2117103487253189,0.2325319647789001,0.1377338171005249,0.0,0.0,0.9280312940392704,0.7326758679346297
-0.0357465744018554,1.2415010929107666,-0.2015166282653808,-0.1725176125764846,0.2383786886930465,0.116934597492218,0.0,0.0,0.043355942366331,0.5670296176623657
-0.037945844233036,1.238003849983215,-0.2248343527317047,-0.1562351584434509,0.24336639046669,0.0997540727257728,0.0,0.0,-0.4000912665357041,-0.7069528444035647
-0.0402853973209857,1.2341029644012451,-0.2409635782241821,-0.1745466291904449,0.2505022883415222,0.1427182257175445,0.0,0.0,-0.8899471637628908,0.7200322769899061
-0.0426465049386024,1.2298352718353271,-0.2421416938304901,-0.1907156109809875,0.2566448450088501,0.1228513121604919,0.0,0.0,0.2669265635371873,-0.8858241820096737
-0.045302677899599,1.2261143922805786,-0.2737766206264496,-0.1668242812156677,0.2649807929992676,0.1667181551456451,0.0,0.0,-0.9379915595054626,0.9886218309402466
-0.047970674932003,1.2220301628112793,-0.2736290991306305,-0.182773157954216,0.2719697654247284,0.1397803276777267,0.0,0.0,-0.9440348148345948,0.923591375350952
-0.0506595596671104,1.2175949811935425,-0.2744951844215393,-0.1981765478849411,0.2777164280414581,0.1149338632822036,0.0,0.0,-0.9319972395896912,0.9945814609527588
-0.0533604621887207,1.2127950191497805,-0.2742940783500671,-0.2141396552324295,0.2820384204387665,0.0864390581846237,0.0,0.0,-0.938196301460266,0.9896228313446044
-0.0560670867562294,1.2076451778411863,-0.273204505443573,-0.2293682545423507,0.2846546471118927,0.0523242950439453,0.0,0.0,-0.9791303277015686,0.9819939136505128
-0.0587820038199424,1.2021509408950806,-0.2723682522773742,-0.244361475110054,0.2855565249919891,0.0180376507341861,0.0,0.0,-0.9270367622375488,0.9945924282073976
-0.0615084655582904,1.1962982416152954,-0.271972119808197,-0.259992241859436,0.2848656773567199,-0.0138169918209314,0.0,0.0,-0.9576979279518129,0.9850146770477296
-0.0642425566911697,1.1901021003723145,-0.2709804773330688,-0.2749071717262268,0.2823611497879028,-0.0500906519591808,0.0,0.0,-0.9487868547439576,0.986501932144165
-0.0669955238699913,1.1835616827011108,-0.2713159918785095,-0.2899255454540252,0.2782800793647766,-0.08162122964859,0.0,0.0,-0.961125910282135,0.982742190361023
-0.0697579383850097,1.176670789718628,-0.2705129981040954,-0.3051885068416595,0.2724010348320007,-0.1175811141729354,0.0,0.0,-0.9566189050674438,0.8723466396331787
-0.0725554451346397,1.169424533843994,-0.2728445827960968,-0.3207841217517853,0.2653344869613647,-0.1413307040929794,0.0,0.0,-0.9666944146156312,0.9506783485412598
-0.0753540992736816,1.1618270874023438,-0.2709525227546692,-0.336076945066452,0.2562076151371002,-0.1825376749038696,0.0,0.0,-0.9139217138290404,0.9431796073913574
-0.07815732806921,1.1538678407669067,-0.2694321572780609,-0.3518793284893036,0.2451142817735672,-0.2218662947416305,0.0,0.0,-0.8191545605659485,0.9127182960510254
-0.0809693336486816,1.145553469657898,-0.2683854401111603,-0.3674461245536804,0.2320965081453323,-0.2603554129600525,0.0,0.0,-0.9188967943191528,0.8964993953704834
-0.0838065147399902,1.1368681192398071,-0.2694150805473327,-0.3838307559490204,0.2176038026809692,-0.2898540794849396,0.0,0.0,-0.9157251715660096,0.9399181604385376
-0.0866562873125076,1.1278162002563477,-0.2687796950340271,-0.4000013768672943,0.2012644112110138,-0.3267883658409118,0.0,0.0,-0.9466619491577148,0.8182005882263184
-0.0895280838012695,1.118399143218994,-0.2692997753620147,-0.4162085652351379,0.1832795292139053,-0.3596978187561035,0.0,0.0,-0.9627808332443236,0.9419615268707277
-0.0924346894025802,1.1086268424987793,-0.2713205516338348,-0.4320508241653442,0.1638924032449722,-0.3877429068088531,0.0,0.0,-0.9072340130805968,0.9425188302993774
-0.0953784957528114,1.0984957218170166,-0.2736197113990783,-0.4481050074100494,0.1431486904621124,-0.4148746132850647,0.0,0.0,-0.9577901363372804,0.7855300903320312
-0.0983569175004959,1.0879950523376465,-0.2755845189094543,-0.4647059738636017,0.1209889724850654,-0.443194717168808,0.0,0.0,-0.9506915807724,0.8253687620162964
-0.1013494506478309,1.077129602432251,-0.2749677896499634,-0.4811210632324219,0.0968652442097663,-0.4824749827384949,0.0,0.0,-0.974050760269165,-0.2691438198089599
-0.1044369712471962,1.065885305404663,-0.2844482064247131,-0.4983503222465515,0.0727951377630233,-0.4814020693302154,0.0,0.0,-0.9640038013458252,0.9004507064819336
-0.1075351685285568,1.0542669296264648,-0.2833872139453888,-0.515289306640625,0.0466385707259178,-0.5231316685676575,0.0,0.0,-0.9756473302841188,-0.0678853392601013
-0.1107290238142013,1.0422712564468384,-0.2929034233093261,-0.5325269103050232,0.0204902030527591,-0.522967517375946,0.0,0.0,-0.951388418674469,0.8555049896240234
-0.1139338463544845,1.0298982858657837,-0.291835606098175,-0.5497629046440125,-0.0077950959093868,-0.5657061338424683,0.0,0.0,-0.9381378889083862,-0.7925757765769958
-0.1173071861267089,1.0171459913253784,-0.3104998171329498,-0.5671198964118958,-0.0342916287481784,-0.529930830001831,0.0,0.0,-0.9633151888847352,-0.1634004116058349
-0.1207764595746994,1.0040165185928345,-0.3200548887252807,-0.5843592882156372,-0.0608484409749507,-0.5311363935470581,0.0,0.0,-0.9244916439056396,0.6899991035461426
-0.1242746338248252,0.990507185459137,-0.3212009072303772,-0.6018162369728088,-0.0891756117343902,-0.566543698310852,0.0,0.0,-0.7915085554122925,-0.6145998239517212
-0.1279108971357345,0.9766337871551514,-0.3360593914985657,-0.6184669137001038,-0.1165326237678527,-0.5471405386924744,0.0,0.0,-0.806411623954773,-0.6342107653617859
-0.1316991746425628,0.9623989462852478,-0.3526391386985779,-0.6349166035652161,-0.1425880789756775,-0.5211093425750732,0.0,0.0,-0.656558096408844,-0.4150782823562622
-0.1355835944414138,0.947786509990692,-0.3622173070907593,-0.6521552801132202,-0.1687913835048675,-0.5240663290023804,0.0,0.0,0.071786880493164,0.4770050048828125
-0.1395521163940429,0.9334865808486938,-0.3702630996704101,-0.6387959718704224,-0.195464089512825,-0.5334542989730835,0.0,0.0,-0.559764564037323,-0.3472309708595276
-0.1436167657375335,0.9188096523284912,-0.3798423409461975,-0.6560381054878235,-0.2223251909017563,-0.5372224450111389,0.0,0.0,-0.2067035436630249,-0.3413839340209961
-0.1477777510881424,0.9037563800811768,-0.3894195258617401,-0.6732816100120544,-0.2493940144777298,-0.541377067565918,0.0,0.0,0.0520651340484619,-0.2997869849205017
-0.151966854929924,0.8886959552764893,-0.3922318816184997,-0.6741139888763428,-0.2766661942005157,-0.5454438328742981,0.0,0.0,-0.1125259399414062,-0.7387163043022156
-0.1563196182250976,0.8732882142066956,-0.4103032648563385,-0.689731240272522,-0.3023763000965118,-0.5142022967338562,0.0,0.0,-0.4788677096366882,-0.8164154291152954
-0.1608257293701172,0.8575395941734314,-0.4271402359008789,-0.7050142884254456,-0.3267358541488647,-0.487191379070282,0.0,0.0,0.6776168346405029,-0.58465975522995
-0.1652931272983551,0.8418068289756775,-0.4245301187038421,-0.7044206261634827,-0.3499642014503479,-0.4645669460296631,0.0,0.0,0.7392030954360962,-0.7200130820274353
-0.1695706397294998,0.8269825577735901,-0.4069286286830902,-0.6640827059745789,-0.371935099363327,-0.439417690038681,0.0,0.0,0.7034745216369629,-0.825892984867096
-0.1739284545183181,0.8125512599945068,-0.4162493348121643,-0.6466071009635925,-0.3927024006843567,-0.4153462946414947,0.0,0.0,0.6849902868270874,-0.6064651012420654
-0.1782547980546951,0.7987849116325378,-0.4139164388179779,-0.6171438097953796,-0.4127784967422485,-0.401521772146225,0.0,0.0,0.354865550994873,-0.5016927123069763
-0.1824835836887359,0.7853478193283081,-0.4050243496894836,-0.6025391221046448,-0.4320854246616363,-0.3861390650272369,0.0,0.0,0.8474013805389404,-0.692048966884613
-0.1866012513637542,0.7729554176330566,-0.3947662115097046,-0.5561132431030273,-0.4506481289863586,-0.3712538480758667,0.0,0.0,0.6087920665740967,-0.6872512698173523
-0.1905483305454254,0.760925829410553,-0.3789635300636291,-0.5398263335227966,-0.4679796993732452,-0.3466311991214752,0.0,0.0,0.846097469329834,-0.5100889801979065
-0.1944667845964431,0.7491508722305298,-0.3767555654048919,-0.5285102725028992,-0.4847332537174225,-0.3350717425346374,0.0,0.0,0.673145055770874,-0.6892040371894836
-0.1983115226030349,0.7374106645584106,-0.3705844283103943,-0.5267461538314819,-0.5002745985984802,-0.3108271658420563,0.0,0.0,0.7206130027770996,-0.7464665174484253
-0.2021674662828445,0.72581547498703,-0.3728121519088745,-0.5200713872909546,-0.5147126913070679,-0.2887620031833648,0.0,0.0,0.5973725318908691,-0.7312986254692078
-0.2057966738939285,0.7148944139480591,-0.351235419511795,-0.4898525774478912,-0.5280085802078247,-0.2659182250499725,0.0,0.0,0.6531276702880859,-0.512299656867981
-0.2090689241886139,0.7046187520027161,-0.3164266645908355,-0.4609407782554626,-0.5403913855552673,-0.2476560175418853,0.0,0.0,0.7840049266815186,-0.7716385126113892
-0.212144523859024,0.69525146484375,-0.2976914942264557,-0.420316606760025,-0.5517900586128235,-0.2279736697673797,0.0,0.0,0.8564087152481079,-0.8511760234832764
-0.21531543135643,0.6861475706100464,-0.3082278668880462,-0.4082911610603332,-0.5620923638343811,-0.2060457020998001,0.0,0.0,0.8647968769073486,-0.7460206151008606
-0.2181101739406585,0.6778060793876648,-0.271757423877716,-0.3739989399909973,-0.5711147785186768,-0.1804477870464325,0.0,0.0,0.9683923721313475,-0.7932558059692383
-0.2207905352115631,0.6701036691665649,-0.2612122297286987,-0.345281571149826,-0.5791460871696472,-0.1606263220310211,0.0,0.0,0.9675593376159668,-0.7598633170127869
-0.2232302725315094,0.6631410717964172,-0.2380528450012207,-0.3120491802692413,-0.5861364603042603,-0.1398069560527801,0.0,0.0,0.9940385818481444,-0.7742718458175659
-0.2253579199314117,0.6569163203239441,-0.2078821659088134,-0.2788296639919281,-0.5919366478919983,-0.1160037517547607,0.0,0.0,0.9486582279205322,-0.8334985971450806
-0.2271559685468673,0.6511232256889343,-0.1762428879737854,-0.2590724229812622,-0.5961787104606628,-0.0848414152860641,0.0,0.0,0.9917834997177124,-0.8046387434005737
-0.2288435399532318,0.6454795598983765,-0.1663162261247635,-0.2519432306289673,-0.5990931391716003,-0.0582891404628753,0.0,0.0,0.880887508392334,-0.7950639128684998
-0.230322316288948,0.6399704813957214,-0.1466659605503082,-0.2453914731740951,-0.6005398035049438,-0.0289327390491962,0.0,0.0,0.9535727500915528,-0.8870128393173218
-0.2314097434282302,0.6348106265068054,-0.1090297847986221,-0.2291984260082245,-0.6002014875411987,0.0067659593187272,0.0,0.0,0.966482162475586,-0.8879788517951965
-0.2322315275669098,0.6297476291656494,-0.0839325115084648,-0.2242244184017181,-0.5981040596961975,0.0419481135904789,0.0,0.0,0.7970058917999268,-0.8725234270095825
-0.232741504907608,0.6253827214241028,-0.0539328269660472,-0.1926649510860443,-0.5945978760719299,0.0701238363981247,0.0,0.0,-0.2954866886138916,-0.9253349900245668
-0.2333933860063552,0.620698094367981,-0.0693381279706955,-0.2063477039337158,-0.589664101600647,0.0986754596233367,0.0,0.0,0.0738866329193115,-0.8585667014122009
-0.2338668406009674,0.6161504983901978,-0.0526586957275867,-0.199756920337677,-0.5833631753921509,0.1260184943675995,0.0,0.0,0.1052249670028686,-0.8802101016044617
-0.2343008518218994,0.6114775538444519,-0.049914825707674,-0.2048401236534118,-0.5756716728210449,0.1538299471139907,0.0,0.0,0.0389816761016845,-0.8983681797981262
-0.2347377240657806,0.6069121956825256,-0.0514847934246063,-0.1995643228292465,-0.5665253400802612,0.1829267591238021,0.0,0.0,-0.6018871665000916,-0.8252622485160828
-0.235301211476326,0.602017343044281,-0.0650884956121444,-0.2138770520687103,-0.5563299059867859,0.2039084434509277,0.0,0.0,-0.4465993642807007,-0.874427318572998
-0.2360071688890457,0.5967965126037598,-0.0806487202644348,-0.2279170155525207,-0.5446827411651611,0.2329435050487518,0.0,0.0,-0.3126966953277588,-0.8833708763122559
-0.2368620932102203,0.5912656188011169,-0.0971847474575042,-0.2411585003137588,-0.5312417149543762,0.268820971250534,0.0,0.0,-0.0451690554618835,0.0528205633163452
-0.2377965003252029,0.5853534936904907,-0.1047907844185829,-0.2583727538585663,-0.5182918906211853,0.2589967250823974,0.0,0.0,0.5180364847183228,-0.0413257479667663
-0.2385102212429046,0.5799947381019592,-0.0821658000349998,-0.2341156899929046,-0.5060627460479736,0.2445832192897796,0.0,0.0,0.0638347864151001,-0.6101531982421875
-0.2391592562198639,0.5749689340591431,-0.0764260292053222,-0.2191709727048874,-0.4931024014949798,0.259207010269165,0.0,0.0,0.1762804985046386,-0.5253452062606812
-0.2397691756486892,0.5700715780258179,-0.0731079131364822,-0.2133825570344925,-0.4795710146427154,0.2706277668476105,0.0,0.0,-0.0392943620681762,-0.3411632776260376
-0.2404522895812988,0.5647927522659302,-0.0800659731030464,-0.2305957973003387,-0.4665380716323852,0.2606595158576965,0.0,0.0,-0.0396174192428588,0.0751421451568603
-0.2412070333957672,0.5591323971748352,-0.086839959025383,-0.2478077262639999,-0.4540052115917206,0.250657320022583,0.0,0.0,0.6029298305511475,-0.2370577454566955
-0.2416332215070724,0.5539624094963074,-0.0540384426712989,-0.2261107861995697,-0.4414990246295929,0.2501238286495209,0.0,0.0,0.1972745656967163,-0.2007864713668823
-0.241972729563713,0.548744797706604,-0.0451616123318672,-0.2284116595983505,-0.429290771484375,0.2441648244857788,0.0,0.0,0.0617436170578002,-0.1503571271896362
-0.2420891225337982,0.5437557101249695,-0.0228448845446109,-0.218366727232933,-0.4171567261219024,0.2426811009645462,0.0,0.0,-0.0041184425354003,-0.5085634589195251
-0.2423057556152343,0.5384136438369751,-0.0334811955690383,-0.2339861541986465,-0.4044285118579864,0.254563421010971,0.0,0.0,0.3157118558883667,0.1681551933288574
-0.2422114312648773,0.5335609912872314,-0.0024714805185794,-0.2123306840658188,-0.3916835486888885,0.2548994719982147,0.0,0.0,-0.2409906983375549,-0.1754416823387146
-0.2421762496232986,0.5283263325691223,-0.0079631311818957,-0.2295399457216262,-0.3794488310813904,0.2446945905685424,0.0,0.0,-0.0160071849822998,-0.235649824142456
-0.2421978414058685,0.5227094292640686,-0.0132111366838216,-0.2467478662729263,-0.3677260279655456,0.2344562709331512,0.0,0.0,0.1288396120071411,-0.2749509811401367
-0.2420416325330734,0.517440915107727,0.0048254807479679,-0.2314256280660629,-0.3563252389431,0.2280158251523971,0.0,0.0,-0.1966384053230285,-0.2357277870178222
-0.2419372498989105,0.5117897391319275,8.717738091945648e-05,-0.2486312836408615,-0.3454397320747375,0.2177100926637649,0.0,0.0,0.3462690114974975,-0.5578474402427673
-0.2418547123670578,0.50654536485672,-0.002516474109143,-0.2305410653352737,-0.3341560065746307,0.2256746292114257,0.0,0.0,0.4725534915924072,-0.4594576358795166
-0.2417763173580169,0.5016245245933533,-0.0019711898639798,-0.2164663225412368,-0.3239201307296753,0.2047177255153656,0.0,0.0,0.1838777065277099,-0.4192677736282348
-0.2416278421878814,0.4969023466110229,0.0055688433349132,-0.2078274935483932,-0.3142760396003723,0.1928820163011551,0.0,0.0,0.0971547365188598,-0.1775267720222473
-0.2413946092128753,0.4922943115234375,0.0144426571205258,-0.2029076218605041,-0.3050742447376251,0.1840356290340423,0.0,0.0,0.2220039367675781,-0.3572748899459839
-0.2410277426242828,0.4876397848129272,0.0278597436845302,-0.205038771033287,-0.2959494590759277,0.1824955493211746,0.0,0.0,-0.4860700368881225,-0.0188731551170349
-0.2406963407993316,0.4826017916202545,0.0247956495732069,-0.2222386449575424,-0.2873499691486358,0.1719900518655777,0.0,0.0,0.0562669038772583,-0.1451243758201599
-0.2402359992265701,0.4779150784015655,0.0381071083247661,-0.2067553102970123,-0.2792033553123474,0.1629325151443481,0.0,0.0,-0.7805622816085815,-0.2512739300727844
