x_pos,y_pos,x_vel,y_vel,angle,ang_vel,leg_1,leg_2,main_booster,lat_booster
-0.0015835762023925,1.40324604511261,-0.1608223021030426,-0.3410704433917999,0.0022042905911803,0.0435145571827888,0.0,0.0,-0.1513885855674743,0.8365340232849121
-0.0031565665267407,1.3952128887176514,-0.1580570638179779,-0.3570311963558197,0.002942924387753,0.0147750321775674,0.0,0.0,-0.0459957718849182,0.7803750038146973
-0.004715824034065,1.3867955207824707,-0.1551434099674224,-0.3741083145141601,0.0021762317046523,-0.0153354676440358,0.0,0.0,-0.2123167514801025,0.6357767581939697
-0.006296157836914,1.3779975175857544,-0.1566152721643448,-0.391016811132431,0.0007733493694104,-0.0280601941049098,0.0,0.0,0.0183498859405517,0.7104763984680176
-0.0077911377884447,1.3694264888763428,-0.1471011787652969,-0.380933403968811,-0.0015886734472587,-0.0472453571856021,0.0,0.0,0.6828913688659668,0.6031956672668457
-0.0091488836333155,1.3613054752349854,-0.1329463422298431,-0.3609384000301361,-0.004388378933072,-0.0559989735484123,0.0,0.0,-0.3886550664901733,0.0685451030731201
-0.0105687137693166,1.3528059720993042,-0.1395079940557479,-0.3777631521224975,-0.0068369363434612,-0.0489755570888519,0.0,0.0,0.1186542510986328,0.0857617855072021
-0.0119467731565237,1.3445842266082764,-0.1361531615257263,-0.3654206395149231,-0.0084607359021902,-0.0324793979525566,0.0,0.0,-0.0628842115402221,0.5567893981933594
-0.0133442878723144,1.335989236831665,-0.13734832406044,-0.3820074200630188,-0.0108318403363227,-0.0474266223609447,0.0,0.0,-0.0514048933982849,0.6725375652313232
-0.0147513393312692,1.327019453048706,-0.1373018771409988,-0.3986867070198059,-0.0142086585983634,-0.0675427019596099,0.0,0.0,0.1453073024749755,0.7743682861328125
-0.0160859115421772,1.3182871341705322,-0.1288724094629287,-0.3881489634513855,-0.0187415592372417,-0.0906660109758377,0.0,0.0,-0.2552424073219299,0.2369657754898071
-0.0174833294004201,1.309176683425903,-0.1354649066925048,-0.4049756228923797,-0.0229709316045045,-0.0845950692892074,0.0,0.0,0.2573815584182739,0.6961196660995483
-0.0187655445188283,1.3004839420318604,-0.1230155080556869,-0.3864283859729767,-0.0281184259802103,-0.1029593795537948,0.0,0.0,-0.5775179266929626,0.155910849571228
-0.0201106071472167,1.2914129495620728,-0.1295994520187378,-0.4032568037509918,-0.0329861007630825,-0.0973620638251304,0.0,0.0,-0.0925928354263305,0.2320677042007446
-0.0215188972651958,1.2819637060165403,-0.136176198720932,-0.4200760722160339,-0.0375874526798725,-0.0920353904366493,0.0,0.0,-0.0103092789649963,0.7768709659576416
-0.0229181293398141,1.2721229791641235,-0.1336826384067535,-0.437530517578125,-0.0437594577670097,-0.1234514266252517,0.0,0.0,0.3534643650054931,0.5144674777984619
-0.02418689802289,1.2629499435424805,-0.1201489940285682,-0.4079082310199737,-0.0504160448908805,-0.1331438720226287,0.0,0.0,-0.4169488549232483,0.4684765338897705
-0.0255187042057514,1.2533984184265137,-0.1266801506280899,-0.4247401058673858,-0.0568492822349071,-0.1286765187978744,0.0,0.0,-0.4940464496612549,0.3155891895294189
-0.0269134528934955,1.2434691190719604,-0.1331913769245147,-0.4415600001811981,-0.0630747750401496,-0.1245209723711013,0.0,0.0,-0.8062496781349182,0.3069243431091308
-0.0283711440861225,1.2331615686416626,-0.139680877327919,-0.4583824574947357,-0.0691089332103729,-0.1206937804818153,0.0,0.0,-0.0877764225006103,-0.3766286969184875
-0.0298916809260845,1.2224758863449097,-0.1461455821990966,-0.4752056896686554,-0.0749688744544982,-0.1172094717621803,0.0,0.0,0.7261378765106201,0.0237083435058593
-0.0314281471073627,1.2121021747589111,-0.1479549705982208,-0.4613543748855591,-0.0806153863668441,-0.1129405498504638,0.0,0.0,-0.5935038924217224,0.4900300502777099
-0.0330272689461708,1.201349854469299,-0.1543610095977783,-0.478182852268219,-0.086123801767826,-0.1101780161261558,0.0,0.0,-0.0189530849456787,0.7420276403427124
-0.0346240997314453,1.1902028322219849,-0.152591273188591,-0.4958398938179016,-0.0931648090481758,-0.1408326625823974,0.0,0.0,-0.3200849294662475,0.8868668079376221
-0.0362297073006629,1.1786730289459229,-0.1522061675786972,-0.5129736065864563,-0.1014546975493431,-0.1658128201961517,0.0,0.0,0.8950376510620117,0.8375648260116577
-0.0379329696297645,1.167971968650818,-0.1600052565336227,-0.476339727640152,-0.1117024794220924,-0.2049557715654373,0.0,0.0,-0.1836833953857422,0.3176922798156738
-0.0396982207894325,1.1568938493728638,-0.1662696897983551,-0.4931664168834686,-0.1218913868069648,-0.2037782669067382,0.0,0.0,-0.1785678267478943,0.8692739009857178
-0.0414709076285362,1.145437717437744,-0.1657048016786575,-0.5101427435874939,-0.1333972066640854,-0.2301161289215088,0.0,0.0,-0.7649120688438416,0.5362019538879395
-0.0432714447379112,1.1336029767990112,-0.1676986515522003,-0.5271466970443726,-0.1457231193780899,-0.2465179711580276,0.0,0.0,0.1375337839126587,0.7001510858535767
-0.045046042650938,1.1218791007995603,-0.1636859029531479,-0.5224666595458984,-0.1594728231430053,-0.2749940454959869,0.0,0.0,0.2441296577453613,-0.5133346915245056
-0.0468041412532329,1.110734939575195,-0.1631070673465728,-0.4967023730278015,-0.1721840053796768,-0.2542236447334289,0.0,0.0,-0.527381420135498,-0.1067872643470764
-0.0486223213374614,1.0992145538330078,-0.1691037118434906,-0.5135348439216614,-0.1849419176578521,-0.2551584541797638,0.0,0.0,-0.5114896297454834,-0.2725480198860168
-0.0505002960562706,1.0873181819915771,-0.1750368177890777,-0.5303678512573242,-0.1977676600217819,-0.2565148472785949,0.0,0.0,0.0875914096832275,0.0721948146820068
-0.052431870251894,1.0754075050354004,-0.1801589876413345,-0.531157374382019,-0.2108762562274933,-0.2621718347072601,0.0,0.0,-0.4320715665817261,-0.5635542869567871
-0.0544643402099609,1.0631353855133057,-0.191264122724533,-0.5471810102462769,-0.2229902893304824,-0.2422805726528167,0.0,0.0,0.5765109062194824,-0.8574677109718323
-0.0564414970576763,1.051565170288086,-0.1873706132173538,-0.5158382654190063,-0.2334737032651901,-0.2096681594848632,0.0,0.0,-0.6232849955558777,-0.3841824531555176
-0.0584762580692768,1.0396182537078855,-0.1930136978626251,-0.5326685309410095,-0.2441064566373825,-0.2126551419496536,0.0,0.0,-0.7109735012054443,-0.4299499988555908
-0.0605680458247661,1.0272947549819946,-0.1985759735107422,-0.5494996309280396,-0.254907876253128,-0.2160274982452392,0.0,0.0,0.5445780754089355,-0.220486044883728
-0.062553122639656,1.0157526731491089,-0.187581181526184,-0.514923095703125,-0.2660668790340423,-0.2231793403625488,0.0,0.0,-0.2375487685203552,-0.6885987520217896
-0.0646434798836708,1.003855586051941,-0.1992461681365966,-0.5305757522583008,-0.2761016190052032,-0.2006947696208953,0.0,0.0,0.2646478414535522,-0.2213940024375915
-0.0667048469185829,0.992475688457489,-0.195790022611618,-0.5077630877494812,-0.2867374420166015,-0.2127165347337722,0.0,0.0,-0.7427682280540466,-0.568672239780426
-0.0688547119498252,0.9807336330413818,-0.2053259164094925,-0.5238043069839478,-0.2966962158679962,-0.1991753131151199,0.0,0.0,-0.6107310056686401,-0.6461375951766968
-0.0711002349853515,0.9686272144317628,-0.2157174348831176,-0.5398914813995361,-0.3058161437511444,-0.1823985874652862,0.0,0.0,0.8910274505615234,-0.6433135271072388
-0.0731481537222862,0.9569762945175172,-0.1972880661487579,-0.5194167494773865,-0.3135891258716583,-0.1554598659276962,0.0,0.0,-0.3445122241973877,-0.0619382858276367
-0.0752475708723068,0.9449490904808044,-0.2021840512752533,-0.5362474918365479,-0.3216480016708374,-0.1611782163381576,0.0,0.0,0.8666014671325684,-0.7398813962936401
-0.0772816687822341,0.9330763220787048,-0.1969422996044159,-0.5291313529014587,-0.3283799588680267,-0.1346392929553985,0.0,0.0,-0.3219344615936279,-0.782265305519104
-0.079418659210205,0.9208495616912842,-0.2083205431699752,-0.544640302658081,-0.3339933156967163,-0.1122671365737915,0.0,0.0,0.8495420217514038,-0.8403003215789795
-0.081489086151123,0.9096778631210328,-0.2027723491191864,-0.4975171387195587,-0.33846515417099,-0.0894366577267646,0.0,0.0,-0.20853853225708,-0.774855375289917
-0.083675667643547,0.8981727957725525,-0.2159246504306793,-0.5119798183441162,-0.3413315415382385,-0.0573276355862617,0.0,0.0,0.7144515514373779,-0.397425889968872
-0.0857527703046798,0.8870481848716736,-0.2045455873012542,-0.4951839745044708,-0.3446480631828308,-0.0663301423192024,0.0,0.0,-0.3572819232940674,-0.7368610501289368
-0.0879167541861534,0.8755690455436707,-0.2139945477247238,-0.5107654929161072,-0.3471738696098327,-0.0505158826708793,0.0,0.0,-0.024562656879425,-0.555294394493103
-0.0901690497994422,0.8637409806251526,-0.2236635386943817,-0.5260688066482544,-0.3488173484802246,-0.0328699722886085,0.0,0.0,0.3149881362915039,-0.008398950099945
-0.0922615975141525,0.8519904613494873,-0.2077126950025558,-0.5226190090179443,-0.3504364490509033,-0.0323818698525428,0.0,0.0,0.7857425212860107,-0.3697247505187988
-0.0940965637564659,0.8410762548446655,-0.1816077977418899,-0.4855384528636932,-0.3524264097213745,-0.039799015969038,0.0,0.0,0.1483933925628662,-0.754558265209198
-0.0958004966378212,0.8302294015884399,-0.1696777641773224,-0.4822555780410766,-0.3531707525253296,-0.0148867759853601,0.0,0.0,0.6978225708007812,-0.8451679348945618
-0.0975412353873252,0.8197748064994812,-0.1744645833969116,-0.4645518064498901,-0.3527673780918121,0.0080677289515733,0.0,0.0,0.7488522529602051,-0.7946525812149048
-0.0989828109741211,0.8101138472557068,-0.1458993554115295,-0.4289480447769165,-0.3509292006492615,0.0367637313902378,0.0,0.0,0.5028094053268433,-0.9492591619491576
-0.1001852005720138,0.8009090423583984,-0.1235743761062622,-0.4082877337932586,-0.3474216759204864,0.0701500549912452,0.0,0.0,0.7340397834777832,-0.8852828741073608
-0.1011098846793174,0.7925465703010559,-0.0972836837172508,-0.3705181777477264,-0.3423742055892944,0.1009486764669418,0.0,0.0,0.267471432685852,-0.7329988479614258
-0.1019807830452919,0.7847276926040649,-0.0928585454821586,-0.3461438715457916,-0.3363272547721863,0.1209389567375183,0.0,0.0,-0.835536777973175,-0.5943381786346436
-0.1029255837202072,0.7765492796897888,-0.1009149551391601,-0.3620050549507141,-0.3296073973178863,0.1343971192836761,0.0,0.0,-0.9694387316703796,-0.3423776030540466
-0.103901483118534,0.7679948210716248,-0.1036165803670883,-0.3788389861583709,-0.3233264088630676,0.1256191730499267,0.0,0.0,-0.5374656915664673,-0.1473833322525024
-0.1049071326851844,0.7590643167495728,-0.1061765700578689,-0.3956723511219024,-0.3174891471862793,0.1167457103729248,0.0,0.0,-0.2344868183135986,-0.8289375901222229
-0.1060004234313964,0.7497882843017578,-0.1160879582166671,-0.4108062386512756,-0.3104740083217621,0.140302300453186,0.0,0.0,-0.3353098034858703,-0.300922691822052
-0.1071207076311111,0.7401362061500549,-0.1183666586875915,-0.4276401698589325,-0.3039112389087677,0.1312553137540817,0.0,0.0,-0.9050858020782472,-0.6687787771224976
-0.1083271950483322,0.730137050151825,-0.1281411796808242,-0.4428593218326568,-0.2961631417274475,0.1549620330333709,0.0,0.0,-0.9816153645515442,-0.2293764948844909
-0.1095579117536544,0.719761848449707,-0.1301421225070953,-0.4596938192844391,-0.288875013589859,0.1457627117633819,0.0,0.0,-0.7730855345726013,-0.4577412009239197
-0.1108116135001182,0.7090108394622803,-0.1320057511329651,-0.476527601480484,-0.2820502817630768,0.1364945322275161,0.0,0.0,-0.0165827274322509,-0.1639726161956787
-0.1120870560407638,0.6978836059570312,-0.1337338536977768,-0.4933606684207916,-0.2756922245025635,0.1271616518497467,0.0,0.0,-0.428155243396759,-0.1310858726501464
-0.1133828163146972,0.6863803267478943,-0.1353285163640976,-0.5101931095123291,-0.2698038220405578,0.1177681908011436,0.0,0.0,-0.4143179655075073,-0.5453392267227173
-0.1147451400756836,0.6745226383209229,-0.1427694261074066,-0.5258179903030396,-0.2631125748157501,0.1338249742984771,0.0,0.0,-0.438601016998291,-0.7200832366943359
-0.1161769852042198,0.6623112559318542,-0.1506356298923492,-0.5414153933525085,-0.2555122375488281,0.1520071327686309,0.0,0.0,-0.6352935433387756,-0.2963190078735351
-0.1176256164908409,0.6497235894203186,-0.1518459171056747,-0.5582486391067505,-0.2483895570039749,0.1424532234668731,0.0,0.0,-0.7806023955345154,-0.6876546144485474
-0.1191357597708702,0.6367774605751038,-0.1587465107440948,-0.5740982890129089,-0.2405271828174591,0.1572473496198654,0.0,0.0,-0.2001757621765136,-0.000399887561798
-0.1206602081656456,0.6234552264213562,-0.1597150117158889,-0.5909313559532166,-0.2331470251083374,0.1476031243801117,0.0,0.0,-0.125864565372467,0.2719466686248779
-0.1221979111433029,0.6097566485404968,-0.160567432641983,-0.6077637076377869,-0.2262511104345321,0.1379180252552032,0.0,0.0,0.6142569780349731,0.0913856029510498
-0.1237033829092979,0.5961769223213196,-0.1567346155643463,-0.6026089191436768,-0.219984233379364,0.1253378689289093,0.0,0.0,0.6656925678253174,0.5437242984771729
-0.125011533498764,0.5833848118782043,-0.1354291141033172,-0.5678558349609375,-0.2153203189373016,0.0932785347104072,0.0,0.0,-0.8055321574211121,-0.1031853556632995
-0.126329705119133,0.5702160596847534,-0.1359559595584869,-0.5846847891807556,-0.2111459672451019,0.083487182855606,0.0,0.0,0.0464752912521362,0.0098179578781127
-0.1276180297136306,0.5574520230293274,-0.1321553289890289,-0.5668198466300964,-0.2077915370464325,0.067088559269905,0.0,0.0,-0.3564039468765259,-0.3333823084831238
-0.1289144456386566,0.544310986995697,-0.1324861347675323,-0.5836477279663086,-0.2049296200275421,0.0572383217513561,0.0,0.0,-0.1592706441879272,0.2741975784301758
-0.1302182227373123,0.5307930111885071,-0.1327256709337234,-0.6004753112792969,-0.2025615274906158,0.0473620668053627,0.0,0.0,0.9093084335327148,0.3419957160949707
-0.1315092146396637,0.5179105401039124,-0.1304291486740112,-0.5723730325698853,-0.2012301683425903,0.0266273412853479,0.0,0.0,-0.3767163157463074,0.0592604875564575
-0.1328059136867523,0.5046510696411133,-0.1304998695850372,-0.5891999006271362,-0.2003949135541916,0.016705160960555,0.0,0.0,0.240486741065979,-0.4726704955101013
-0.134011834859848,0.4917889833450317,-0.1208793073892593,-0.571611225605011,-0.2000983357429504,0.0059316484257578,0.0,0.0,0.3290306329727173,-0.6111061573028564
-0.1351003646850586,0.479229211807251,-0.1100292578339576,-0.5580527782440186,-0.1989251673221588,0.023463275283575,0.0,0.0,0.8055651187896729,0.5826252698898315
-0.1360471695661544,0.4668150246143341,-0.0942478403449058,-0.5517998933792114,-0.1993516385555267,-0.0085294395685195,0.0,0.0,0.0608845949172973,-0.0681638121604919
-0.1368871629238128,0.4543861150741577,-0.0833526402711868,-0.5524809956550598,-0.2000020444393158,-0.0130080338567495,0.0,0.0,0.6432859897613525,0.2934129238128662
-0.1374731063842773,0.4423716068267822,-0.0581298656761646,-0.5340443849563599,-0.200475662946701,-0.0094719398766756,0.0,0.0,0.7096762657165527,-0.4857898354530334
-0.1378382742404937,0.4305367469787597,-0.0362079218029975,-0.5260331630706787,-0.2007825523614883,-0.006137806456536,0.0,0.0,0.6662994623184204,-0.788439154624939
-0.1381199806928634,0.4194646775722503,-0.0289313942193985,-0.4919879138469696,-0.2000136524438858,0.0153780011460185,0.0,0.0,0.0738323926925659,-0.2719590663909912
-0.1382848769426345,0.4087343215942383,-0.0168467722833156,-0.4768553078174591,-0.1996530145406723,0.0072128577157855,0.0,0.0,0.4414206743240356,-0.780284583568573
-0.1382759064435959,0.3984676301479339,-0.0006919560255482,-0.4560827314853668,-0.1980457007884979,0.0321460179984569,0.0,0.0,-0.505101203918457,-0.8617475032806396
-0.1383237838745117,0.3878317773342132,-0.0073182261548936,-0.4723702073097229,-0.1955050826072693,0.0508122667670249,0.0,0.0,0.1078454256057739,-0.1090129613876342
-0.1383399069309234,0.3773315250873565,-0.0034730751067399,-0.4664314389228821,-0.1936290711164474,0.0375202149152755,0.0,0.0,-0.668713390827179,-0.183312177658081
-0.1383556425571441,0.3664542138576507,-0.002946053398773,-0.4832582473754883,-0.1922545582056045,0.0274901390075683,0.0,0.0,0.4289244413375854,0.015659213066101
-0.1382966935634613,0.3559302985668182,0.0051181954331696,-0.4676286280155182,-0.1914746761322021,0.0155972186475992,0.0,0.0,0.5013179779052734,-0.5565303564071655
-0.1382619887590408,0.3461461663246155,0.002369001507759,-0.4347082078456878,-0.1903674602508545,0.0221442822366952,0.0,0.0,-0.3958719372749328,-0.8195414543151855
-0.1382804811000824,0.336004763841629,-0.0038535646162927,-0.4504759907722473,-0.1883508563041687,0.0403321869671344,0.0,0.0,-0.0868600606918335,-0.2418774366378784
-0.1382983177900314,0.3254861533641815,-0.0032890785951167,-0.4673026502132416,-0.1868344247341156,0.0303286127746105,0.0,0.0,0.2982823848724365,-0.526323139667511
-0.1383159607648849,0.3154926002025604,-0.0036798443179577,-0.4439155459403991,-0.1849146336317062,0.0383959487080574,0.0,0.0,0.0362967252731323,-0.588580310344696
-0.1383388489484787,0.3055982589721679,-0.0048511861823499,-0.4394310414791107,-0.1823375523090362,0.0515415146946907,0.0,0.0,0.6736609935760498,0.0079398155212402
-0.1383669823408126,0.2962576448917389,-0.0043392195366322,-0.4149535298347473,-0.1808052361011505,0.0306462198495864,0.0,0.0,-0.7464550733566284,-0.3592730164527893
-0.1383948326110839,0.286539763212204,-0.003816143143922,-0.4317796528339386,-0.1797700077295303,0.02070471085608,0.0,0.0,0.3764865398406982,-0.5517915487289429
-0.1382636129856109,0.277317464351654,0.0112634357064962,-0.4096561670303345,-0.1779086589813232,0.0372269041836261,0.0,0.0,0.2408348321914672,-0.7924587726593018
-0.138094425201416,0.2681230008602142,0.0139265265315771,-0.4082865417003631,-0.1749063581228256,0.060046087950468,0.0,0.0,-0.0091433525085449,-0.1448842883110046
-0.1379257142543792,0.2585513591766357,0.0143685806542634,-0.4251129031181335,-0.1723974496126175,0.0501781776547431,0.0,0.0,-0.4096176624298095,-0.5829633474349976
-0.1378044188022613,0.2486196160316467,0.0089093958958983,-0.4410393834114074,-0.1691648513078689,0.0646522492170333,0.0,0.0,0.1406524181365966,0.0045852661132812
-0.1374877989292144,0.2391581386327743,0.0284650214016437,-0.4201505780220032,-0.1659667938947677,0.0639608353376388,0.0,0.0,0.0669475793838501,-0.6674540638923645
-0.1371077597141266,0.2298724800348281,0.0338938981294631,-0.412242591381073,-0.1618617624044418,0.0821009129285812,0.0,0.0,-0.1088334918022155,-0.515099823474884
-0.1367699652910232,0.2202248126268386,0.0291115399450063,-0.428286612033844,-0.1571963876485824,0.0933075100183487,0.0,0.0,0.4633433818817138,0.6118427515029907
-0.1362193077802658,0.2112135291099548,0.0519731342792511,-0.4001779854297638,-0.1541115343570709,0.0616973266005516,0.0,0.0,-0.0988543033599853,-0.5643680691719055
-0.1357103288173675,0.2018310874700546,0.0473087318241596,-0.4166302680969238,-0.1505316644906997,0.0715977698564529,0.0,0.0,0.3058862686157226,0.4201312065124511
-0.1352274864912033,0.1928178668022155,0.0456288829445838,-0.4003214538097381,-0.1478779017925262,0.0530751757323741,0.0,0.0,0.6045427322387695,-0.6465137600898743
-0.1348601281642913,0.1842085421085357,0.0335587337613105,-0.3823238611221313,-0.1447091549634933,0.0633750781416893,0.0,0.0,-0.5295352339744568,-0.2168260812759399
-0.1344978362321853,0.1752218604087829,0.033525887876749,-0.3991488814353943,-0.1420131474733352,0.0539201982319355,0.0,0.0,0.4380817413330078,-0.6530055403709412
-0.1341022551059723,0.1665517389774322,0.0359734371304512,-0.3850005269050598,-0.1384334117174148,0.071594700217247,0.0,0.0,0.4472705125808716,-0.2389324903488159
-0.1335561722517013,0.1579485088586807,0.0509411506354808,-0.3820290565490722,-0.1347899883985519,0.0728684365749359,0.0,0.0,0.5376880168914795,-0.8345767855644226
-0.1328964233398437,0.1499104648828506,0.0609549507498741,-0.3568001985549927,-0.1297889947891235,0.1000200659036636,0.0,0.0,0.2869546413421631,-0.4475134611129761
-0.132143884897232,0.1424258798360824,0.0705942884087562,-0.3322492837905884,-0.1251545995473861,0.092687651515007,0.0,0.0,-0.0783209204673767,-0.5535428524017334
