x_pos,y_pos,x_vel,y_vel,angle,ang_vel,leg_1,leg_2,main_booster,lat_booster
-0.0014828682178631,1.4031099081039429,-0.1497966945171356,-0.3471158146858215,0.0013435975415632,0.0264728013426065,0.0,0.0,-0.2177894711494445,0.840355634689331
-0.0028533935546875,1.3948044776916504,-0.1361476927995681,-0.3691272139549255,0.0004535552870947,-0.0178018864244222,0.0,0.0,-0.1470424532890319,0.4666252136230469
-0.0041830064728856,1.3859840631484983,-0.131663516163826,-0.3920155763626098,-0.0008237326983362,-0.025548156350851,0.0,0.0,0.0164796113967895,0.7645378112792969
-0.0054965019226074,1.377107858657837,-0.1280928403139114,-0.3945012986660003,-0.0040475791320204,-0.0644830018281936,0.0,0.0,-0.0186381340026855,0.2407307624816894
-0.0067692757584154,1.3677172660827637,-0.1236429437994957,-0.4173709154129028,-0.0076435324735939,-0.0719258114695549,0.0,0.0,0.0046690702438354,0.2709289789199829
-0.0079154968261718,1.3583070039749146,-0.1110254675149917,-0.4182587563991546,-0.0112059200182557,-0.0712541788816452,0.0,0.0,-0.0819169282913208,0.2942883968353271
-0.0090215681120753,1.3483823537826538,-0.1066378802061081,-0.4411291480064392,-0.0151250762864947,-0.0783904641866684,0.0,0.0,0.0951848030090332,0.3749787807464599
-0.0099820140749216,1.3385846614837646,-0.0922110080718994,-0.4355006814002991,-0.0189194418489933,-0.0758943632245063,0.0,0.0,-0.4884964227676391,0.1893973350524902
-0.0109028816223144,1.328272581100464,-0.0879063457250595,-0.4583726525306701,-0.0230517499148845,-0.082653671503067,0.0,0.0,-0.1443973779678344,-0.2197089791297912
-0.0117843626067042,1.31744647026062,-0.083649642765522,-0.481237918138504,-0.0275109820067882,-0.0891927331686019,0.0,0.0,-0.7120887637138367,-0.2914544343948364
-0.0126271247863769,1.3061062097549438,-0.0794464275240898,-0.5041047930717468,-0.0322861410677433,-0.0955120176076889,0.0,0.0,-0.7100996971130371,-0.8259464502334595
-0.0134889604523777,1.2942529916763306,-0.0825109034776687,-0.5268933773040771,-0.0359200872480869,-0.0726853683590889,0.0,0.0,0.5113561153411865,-0.9377457499504088
-0.0142287258058786,1.2828463315963743,-0.0720458924770355,-0.5070144534111023,-0.0378243923187255,-0.038089744746685,0.0,0.0,-0.5990206599235535,-0.2460983991622924
-0.014931296929717,1.2709251642227173,-0.068042404949665,-0.5298886895179749,-0.0400081202387809,-0.0436785891652107,0.0,0.0,0.1397310495376587,-0.6206936836242676
-0.0155144687741994,1.2593449354171753,-0.057257242500782,-0.5147043466567993,-0.0410529598593711,-0.020898975431919,0.0,0.0,-0.6898923516273499,-0.6658594012260437
-0.0161047931760549,1.2472450733184814,-0.0588169284164905,-0.5377776026725769,-0.041268341243267,-0.0043076048605144,0.0,0.0,-0.8706746697425842,0.1752302646636963
-0.0166597366333007,1.2346309423446655,-0.0550496205687522,-0.5606403946876526,-0.0417181961238384,-0.0089979358017444,0.0,0.0,-0.8039713501930237,-0.7456492185592651
-0.0172252655029296,1.221498966217041,-0.0570212192833423,-0.583631157875061,-0.0412559956312179,0.009244916960597,0.0,0.0,-0.7593397498130798,-0.7221028208732605
-0.0178046226501464,1.2078624963760376,-0.0594105347990989,-0.6060283780097961,-0.0397911705076694,0.0292992740869522,0.0,0.0,-0.8083049654960632,-0.7867682576179504
-0.0184213630855083,1.1937154531478882,-0.0647541135549545,-0.6286771893501282,-0.0367377363145351,0.0610740967094898,0.0,0.0,-0.8062126040458679,0.1425453424453735
-0.0190058704465627,1.1790542602539062,-0.061364322900772,-0.6515435576438904,-0.033849760890007,0.0577643923461437,0.0,0.0,-0.6236650943756104,-0.2938095331192016
-0.0195589065551757,1.1638785600662231,-0.0580747351050376,-0.6744101047515869,-0.0311071388423442,0.054857213050127,0.0,0.0,-0.8041884899139404,-0.0178174376487731
-0.0200813300907611,1.1481887102127075,-0.0548896007239818,-0.6972766518592834,-0.0284903217107057,0.0523412451148033,0.0,0.0,-0.3001563549041748,-0.6803752779960632
-0.0206217765808105,1.1319788694381714,-0.0577925257384777,-0.7203660607337952,-0.0247837249189615,0.0741382390260696,0.0,0.0,-0.6568903923034668,-0.0845813751220703
-0.0211335178464651,1.1152548789978027,-0.0548293590545654,-0.743232786655426,-0.0211620386689901,0.0724401324987411,0.0,0.0,-0.5772958397865295,0.2307971715927124
-0.0216176025569438,1.0979952812194824,-0.0520091950893402,-0.7670530676841736,-0.0176026970148086,0.0711867660284042,0.0,0.0,-0.5679926872253418,0.1773738861083984
-0.0220746044069528,1.0802212953567505,-0.0492653399705886,-0.7899178266525269,-0.0140837049111723,0.0703801289200782,0.0,0.0,0.1353759765625,0.1543786525726318
-0.0225872993469238,1.062785506248474,-0.0543987154960632,-0.7748954892158508,-0.0109980767592787,0.061712346971035,0.0,0.0,-0.2069588899612426,0.194311261177063
-0.023075008764863,1.0448354482650757,-0.0518945083022117,-0.7977598905563354,-0.0079078301787376,0.0618045516312122,0.0,0.0,0.5116918087005615,0.2787665128707886
-0.0235542301088571,1.0270404815673828,-0.0509904734790325,-0.7908734083175659,-0.0048791873268783,0.0605728439986705,0.0,0.0,0.3017466068267822,0.1207195520401001
-0.0239923484623432,1.009731650352478,-0.047000516206026,-0.7692710161209106,-0.0017322988715022,0.062937818467617,0.0,0.0,-0.2030785679817199,0.341754674911499
-0.0244084354490041,0.9919086694717408,-0.0448688343167305,-0.7921354174613953,0.0014872268075123,0.0643907189369201,0.0,0.0,0.233661413192749,-0.1495998501777649
-0.0248660091310739,0.974469006061554,-0.0488273873925209,-0.775100588798523,0.0045166932977736,0.0605894140899181,0.0,0.0,0.043817400932312,0.3020682334899902
-0.0253449436277151,0.9568566679954528,-0.0508905872702598,-0.782785177230835,0.0074771917425096,0.059209905564785,0.0,0.0,-0.0322393178939819,0.2282109260559082
-0.0258049014955759,0.9387299418449402,-0.0491407066583633,-0.8056495189666748,0.0105768563225865,0.06199337169528,0.0,0.0,0.5948656797409058,0.616858720779419
-0.0261870380491018,0.9211897253990172,-0.0403090082108974,-0.7795799970626831,0.0126544032245874,0.0415508635342121,0.0,0.0,0.2924661636352539,0.81679368019104
-0.0265154838562011,0.9036659598350524,-0.0334612801671028,-0.778837263584137,0.0132651552557945,0.0122148757800459,0.0,0.0,0.2895461320877075,0.7611446380615234
-0.0267423633486032,0.8865267634391785,-0.0220194868743419,-0.7617387175559998,0.0126055581495165,-0.0131917763501405,0.0,0.0,0.298345685005188,-0.4710127115249634
-0.0269938465207815,0.8698657155036926,-0.0245598908513784,-0.7404863834381104,0.0120244901627302,-0.0116212693974375,0.0,0.0,0.0334047079086303,-0.2279214262962341
-0.0272186286747455,0.8532609343528748,-0.0222176294773817,-0.7379904985427856,0.0117657706141471,-0.0051743029616773,0.0,0.0,0.0191811323165893,-0.7241776585578918
-0.0275698658078908,0.8368659615516663,-0.036539688706398,-0.7286794185638428,0.0131563562899827,0.0278115626424551,0.0,0.0,-0.2543079853057861,0.6147971153259277
-0.0278511047363281,0.8199563026428223,-0.0283175911754369,-0.7515407204627991,0.0133501822128891,0.0038767172954976,0.0,0.0,0.0781676769256591,0.0151025056838989
-0.0280611999332904,0.802840530872345,-0.0218032114207744,-0.7607078552246094,0.0141304451972246,0.0156054645776748,0.0,0.0,-0.0248318314552307,0.7053037881851196
-0.028196906670928,0.7852104902267456,-0.013019673526287,-0.7835591435432434,0.013585983775556,-0.0108891213312745,0.0,0.0,0.382789134979248,0.6656801700592041
-0.0283123962581157,0.767427921295166,-0.009917696006596,-0.7903168797492981,0.0119742937386035,-0.0322336591780185,0.0,0.0,0.4609394073486328,-0.2289933562278747
-0.028383444994688,0.749575138092041,-0.0060053118504583,-0.7934526205062866,0.0108890747651457,-0.0217043962329626,0.0,0.0,-0.2978847026824951,0.4228290319442749
-0.0284481048583984,0.7312079668045044,-0.0057235183194279,-0.8163166046142578,0.0101559050381183,-0.0146632492542266,0.0,0.0,0.1475450992584228,-0.2577375173568725
-0.0285913459956645,0.7131938338279724,-0.0135770766064524,-0.800624430179596,0.0094264354556798,-0.0145896552130579,0.0,0.0,-0.2256975173950195,0.7696149349212646
-0.0286825187504291,0.6946728229522705,-0.007554919924587,-0.8231489062309265,0.0078801410272717,-0.0309255607426166,0.0,0.0,-0.494509756565094,0.0212092399597167
-0.0287701599299907,0.675637423992157,-0.0075885476544499,-0.8460128903388977,0.006721859332174,-0.0231658276170492,0.0,0.0,-0.2167783975601196,0.1711055040359497
-0.0288551338016986,0.6560876369476318,-0.0077201030217111,-0.8688767552375793,0.0059620658867061,-0.0151960654184222,0.0,0.0,0.7884273529052734,0.5580248832702637
-0.0289651863276958,0.6372231841087341,-0.009349400177598,-0.8384150266647339,0.0043185413815081,-0.0328702069818973,0.0,0.0,0.4317969083786011,0.1986383199691772
-0.0289812088012695,0.6184228658676147,-0.0007997181965038,-0.835567831993103,0.0035307521466165,-0.0157559160143136,0.0,0.0,0.7507941722869873,-0.0579053163528442
-0.028996467590332,0.6003760695457458,-0.0011733516585081,-0.8020763397216797,0.0031845681369304,-0.006923624780029,0.0,0.0,-0.1079050302505493,0.3166912794113159
-0.0290121082216501,0.5818150043487549,-0.0016550974687561,-0.824940025806427,0.0032722447067499,0.0017534134676679,0.0,0.0,0.5710198879241943,-0.1763369441032409
-0.029121208935976,0.5634111166000366,-0.0110185369849205,-0.8179519176483154,0.0033808099105954,0.0021713119931519,0.0,0.0,0.8519265651702881,0.3152453899383545
-0.0291296001523733,0.54583340883255,-0.0019021646585315,-0.7812351584434509,0.004424903076142,0.0208818819373846,0.0,0.0,0.4861178398132324,0.6120392084121704
-0.0289593692868948,0.5286549925804138,0.0164370648562908,-0.7634872794151306,0.0050014476291835,0.0115309730172157,0.0,0.0,-0.1782817244529724,0.5389459133148193
-0.0287441257387399,0.510968029499054,0.0216938573867082,-0.7860843539237976,0.004833223298192,-0.0033643662463873,0.0,0.0,0.7144910097122192,-0.316823661327362
-0.0286151878535747,0.4939893186092376,0.0129562970250844,-0.7546098828315735,0.0047648013569414,-0.0013679132098332,0.0,0.0,0.4863271713256836,-0.2230687141418457
-0.0284457206726074,0.4769961833953857,0.0163249261677265,-0.7552500367164612,0.0053798179142177,0.0123003181070089,0.0,0.0,0.5435929298400879,-0.2843005061149597
-0.0283777229487895,0.4604710042476654,0.0061364793218672,-0.7344567775726318,0.0060363570228219,0.0131305586546659,0.0,0.0,0.7624037265777588,-0.2887567281723022
-0.0281858444213867,0.4442601501941681,0.0174154229462146,-0.720491349697113,0.0077814143151044,0.0349012948572635,0.0,0.0,0.719449520111084,-0.1675696372985839
-0.0279793739318847,0.4284920692443847,0.0182774383574724,-0.7008165717124939,0.0101228319108486,0.0468286573886871,0.0,0.0,0.2318791151046753,-0.1401330232620239
-0.0277751926332712,0.412658154964447,0.0175226666033267,-0.7037525773048401,0.0129776094108819,0.0570954084396362,0.0,0.0,0.3494337797164917,0.1284031867980957
-0.0276838298887014,0.3970321118831634,0.0062303896993398,-0.6945210695266724,0.0158542189747095,0.0575320944190025,0.0,0.0,0.6234772205352783,0.2197407484054565
-0.0275900848209857,0.3821536302566528,0.0058638355694711,-0.6613077521324158,0.0193208437412977,0.0693326070904731,0.0,0.0,0.9419515132904052,0.8799583911895752
-0.0273327827453613,0.3672710955142975,0.0232795979827642,-0.6614816784858704,0.0217410437762737,0.0484041050076484,0.0,0.0,0.8864305019378662,0.4160618782043457
-0.0270713809877634,0.3533371388912201,0.023045215755701,-0.6193363666534424,0.0248014666140079,0.0612084753811359,0.0,0.0,0.7325406074523926,0.6803299188613892
-0.0268808361142873,0.3396283984184265,0.0170584209263324,-0.6093121767044067,0.0267635621130466,0.0392419584095478,0.0,0.0,0.5432271957397461,0.9154708385467528
-0.0267372131347656,0.3263566195964813,0.0138425026088953,-0.5898652672767639,0.0272868424654006,0.0104655381292104,0.0,0.0,0.8773972988128662,0.4943369626998901
-0.0265830997377634,0.3136324882507324,0.0142137305811047,-0.5655397176742554,0.0284750293940305,0.0237637441605329,0.0,0.0,0.4468927383422851,0.8055973052978516
-0.0265177730470895,0.3015094101428985,0.0066200559958815,-0.5388010144233704,0.0283855237066745,-0.0017902083927765,0.0,0.0,0.4162683486938476,0.7003214359283447
-0.0263461116701364,0.2896197140216827,0.0180353131145238,-0.5284159183502197,0.0275305453687906,-0.0170996729284524,0.0,0.0,-0.2905036211013794,0.5955922603607178
-0.0261341091245412,0.2772129774093628,0.0226773731410503,-0.5513849258422852,0.0260649193078279,-0.0293123312294483,0.0,0.0,0.963963508605957,0.7957305908203125
-0.0257851593196392,0.2648688554763794,0.0372730791568756,-0.548584520816803,0.0237208697944879,-0.0468809567391872,0.0,0.0,0.7969508171081543,0.1844785213470459
-0.0254827495664358,0.2525630295276642,0.0322656258940696,-0.5468961000442505,0.0217268634587526,-0.0398803129792213,0.0,0.0,0.8551628589630127,-0.0219584703445434
-0.0252118110656738,0.2410783171653747,0.0286346264183521,-0.5104100704193115,0.0201990827918052,-0.0305554326623678,0.0,0.0,0.3901104927062988,-0.086160659790039
-0.0248896591365337,0.2301107197999954,0.0329256765544414,-0.4874381124973297,0.0194930750876665,-0.0141201065853238,0.0,0.0,0.7594183683395386,-0.1087712049484252
-0.0247055999934673,0.2199307084083557,0.0191685408353805,-0.4524344503879547,0.0187448654323816,-0.0149643020704388,0.0,0.0,0.2649235725402832,0.0032362937927246
-0.0246261600404977,0.2096139341592788,0.0086526535451412,-0.4585134387016296,0.0180492363870143,-0.0139124812558293,0.0,0.0,0.8873602151870728,0.5713372230529785
-0.0244687087833881,0.2001449465751648,0.016943622380495,-0.4208322763442993,0.0168650317937135,-0.0236839540302753,0.0,0.0,0.6286358833312988,-0.2103487253189087
-0.0244197845458984,0.191009908914566,0.0060362196527421,-0.4059875905513763,0.0157297346740961,-0.0227059312164783,0.0,0.0,0.4152719974517822,-0.5385600924491882
-0.0244716648012399,0.1822315007448196,-0.0055261361412703,-0.3901548981666565,0.0160564109683036,0.0065337298437952,0.0,0.0,0.6843063831329346,0.6587532758712769
-0.0244934074580669,0.1740122139453888,-0.001663388335146,-0.3652940094470978,0.0155530786141753,-0.0100664738565683,0.0,0.0,-0.2755627632141113,-0.2810937762260437
-0.0245112422853708,0.1652786582708358,-0.0017971545457839,-0.3881583213806152,0.015560045838356,0.0001394188584527,0.0,0.0,0.480904221534729,-0.007188081741333
-0.024507712572813,0.1564914584159851,-0.0002701770863495,-0.390548974275589,0.0161751545965671,0.0123021136969327,0.0,0.0,0.5351352691650391,0.9187817573547364
-0.0243338588625192,0.1477484554052353,0.0179721005260944,-0.3885715305805206,0.0155900279060006,-0.0117022190243005,0.0,0.0,0.5633659362792969,-0.1800640821456909
-0.0240219123661518,0.1393048614263534,0.030621126294136,-0.3752779960632324,0.0161576028913259,0.0113513823598623,0.0,0.0,0.4466478824615478,-0.0791399478912353
-0.0235847476869821,0.1308678537607193,0.0420487597584724,-0.374997466802597,0.0177977196872234,0.0328024849295616,0.0,0.0,0.6967203617095947,-0.9879781007766724
-0.0232362747192382,0.1230787113308906,0.0307018272578716,-0.3462387025356293,0.0219007283449172,0.0820602923631668,0.0,0.0,0.4481120109558105,-0.7408520579338074
-0.0229194648563861,0.1157774552702903,0.0254765786230564,-0.3246045708656311,0.0280324909836053,0.122635006904602,0.0,0.0,-0.4157773852348327,-0.0278301835060119
-0.0225896835327148,0.1079624965786933,0.0262518469244241,-0.3474725782871246,0.0346692614257335,0.1327355504035949,0.0,0.0,0.3537606000900268,-0.0121516585350036
-0.0221722610294818,0.1000392511487007,0.0341245606541633,-0.3523378074169159,0.042192205786705,0.1504589170217514,0.0,0.0,0.4985941648483276,0.2395968437194824
-0.0218060500919818,0.0922919586300849,0.0287222601473331,-0.3445688784122467,0.0499973371624946,0.1561027467250824,0.0,0.0,0.6339147090911865,0.5686328411102295
-0.0213303565979003,0.0853265151381492,0.0400830172002315,-0.3098439872264862,0.0573992170393466,0.1480375826358795,0.0,0.0,0.0753618478775024,0.7345786094665527
-0.0208161361515522,0.0784056261181831,0.044925969094038,-0.3078573644161224,0.0638254061341285,0.1285238116979599,0.0,0.0,0.3716355562210083,0.8571945428848267
-0.0203728675842285,0.0719629600644111,0.0391738899052143,-0.2865711152553558,0.0689164325594902,0.1018206104636192,0.0,0.0,0.1224873065948486,0.9018495082855223
-0.0197995193302631,0.0657350867986679,0.0534900315105915,-0.2769751250743866,0.0727214962244033,0.076101429760456,0.0,0.0,0.0285710096359252,0.7801651954650879
-0.0192132946103811,0.0597003325819969,0.0558695569634437,-0.2683469653129577,0.0754505023360252,0.0545800812542438,0.0,0.0,0.1957235336303711,-0.0624054670333862
-0.0187015533447265,0.0539556108415126,0.0482020378112793,-0.2554747760295868,0.0783958509564399,0.0589068755507469,0.0,0.0,-0.1108922362327575,0.2749202251434326
-0.0181619636714458,0.0476970523595809,0.0504902303218841,-0.2783423662185669,0.0818326324224472,0.0687356889247894,0.0,0.0,0.7548215389251709,0.5974733829498291
-0.017730426043272,0.0418698638677597,0.040736086666584,-0.259123682975769,0.0842258110642433,0.0478632226586341,0.0,0.0,0.784277081489563,0.7916572093963623
-0.017430018633604,0.0363578908145427,0.029088195413351,-0.2450322210788726,0.085171990096569,0.0189233608543872,0.0,0.0,0.6743298768997192,0.984493613243103
-0.0169603340327739,0.0314515940845012,0.0473564639687538,-0.2180338203907013,0.0847915336489677,-0.007608943618834,0.0,0.0,0.4884665012359619,0.5913467407226562
-0.0163767822086811,0.0265367124229669,0.0593005940318107,-0.2183849662542343,0.0838529393076896,-0.0187718551605939,0.0,0.0,0.3043755292892456,-0.7502623796463013
-0.0157377235591411,0.0220228768885135,0.0626891776919364,-0.2006855458021164,0.0850573033094406,0.0240869559347629,0.0,0.0,0.2104229927062988,0.6342370510101318
-0.0150769231840968,0.0178540796041488,0.0656875595450401,-0.1853000968694687,0.0854446217417717,0.0077467001974582,0.0,0.0,-0.1098789572715759,-0.6532558798789978
-0.0144150732085108,0.0131739471107721,0.0643133074045181,-0.2081129252910614,0.0872977674007415,0.0370627604424953,0.0,0.0,0.79117751121521,-0.11698579788208
-0.0136830331757664,0.0089298700913786,0.0704788714647293,-0.1887886822223663,0.0900058001279831,0.0541605949401855,0.0,0.0,0.757483959197998,-0.2699653506278991
-0.0130816455930471,0.0062234853394329,0.0761161744594574,-0.1194187551736831,0.0741178542375564,-0.3178443610668182,0.0,1.0,0.9524149894714355,-0.0579431653022766
-0.0125697134062647,0.0049188588745892,0.0808672532439231,-0.056798443198204,0.044687058776617,-0.5887187719345093,0.0,1.0,0.1006125211715698,-0.3010385036468506
-0.0119972229003906,0.0035400248598307,0.0855377614498138,-0.0606736466288566,0.0167494788765907,-0.5587520599365234,0.0,1.0,-0.0790175199508667,-0.6979365944862366
-0.0114912986755371,0.0016560411313548,0.0772016271948814,-0.0836437717080116,-0.0095165222883224,-0.5253204703330994,0.0,0.0,0.3669965267181396,-0.9540879130363464
-0.0111328121274709,-9.486913768341763e-05,0.0601514689624309,-0.0781469568610191,-0.0335053168237209,-0.4797760546207428,1.0,0.0,0.2483632564544677,-0.3996225595474243
-0.0107293128967285,-0.0012644552625715,0.0536448173224926,-0.0526107884943485,-0.0455403625965118,-0.2392976731061935,1.0,0.0,-0.0396194458007812,-0.4139440059661865
-0.0102125164121389,-0.0023700976744294,0.0471054092049598,-0.0490202456712722,-0.0409728363156318,0.0914078056812286,1.0,0.0,0.0386407375335693,-0.361891508102417
-0.0095166210085153,-0.0031685375142842,0.0505537204444408,-0.0350807309150695,-0.022144204005599,0.3766070306301117,1.0,0.0,-0.2721381187438965,-0.257131814956665
-0.008974552154541,-0.0035310650710016,0.0427001379430294,-0.0159953068941831,-0.0107846176251769,0.2271789610385894,1.0,1.0,0.1003880500793457,0.6391522884368896
-0.0085274698212742,-0.0026664279866963,0.0431816689670085,0.0384324751794338,-0.0092896940186619,0.0298879202455282,1.0,1.0,-0.5561988949775696,-0.7696547508239746
-0.0081393243744969,-0.0018534683622419,0.0326417163014411,0.0361504703760147,-0.0032002083025872,0.1217866539955139,1.0,1.0,-0.5391414165496826,0.7072062492370605
