x_pos,y_pos,x_vel,y_vel,angle,ang_vel,leg_1,leg_2,main_booster,lat_booster
-0.0015586853260174,1.4029264450073242,-0.1581833660602569,-0.3552724719047546,0.0020743943750858,0.0409424714744091,0.0,0.0,-0.1240644454956054,0.8301990032196045
-0.0030820847023278,1.394254207611084,-0.1528571248054504,-0.3854350447654724,0.0025816885754466,0.010147750377655,0.0,0.0,0.6899778842926025,0.8111046552658081
-0.0044277189299464,1.3854981660842896,-0.1340177357196808,-0.3891533017158508,0.002042933832854,-0.0107761062681674,0.0,0.0,0.1821116209030151,0.8531270027160645
-0.0058412551879882,1.3765774965286257,-0.1392731666564941,-0.3964767456054687,-1.360832538921386e-05,-0.0411347970366478,0.0,0.0,0.1283164024353027,0.8187448978424072
-0.0071244239807128,1.3676292896270752,-0.1249145045876503,-0.3976969122886657,-0.003378365188837,-0.0673013776540756,0.0,0.0,0.1659245491027832,0.2640126943588257
-0.0083455089479684,1.3585577011108398,-0.1193989291787147,-0.4031918942928314,-0.0060553979128599,-0.0535453855991363,0.0,0.0,-0.1671156883239746,0.1669751405715942
-0.0096029285341501,1.3487882614135742,-0.1232387870550155,-0.4342164695262909,-0.0085192201659083,-0.049281146377325,0.0,0.0,0.3327879905700683,0.7727289199829102
-0.0106956483796238,1.3391033411026,-0.1056411638855934,-0.4304631650447845,-0.0121142929419875,-0.0719083026051521,0.0,0.0,-0.3184466361999511,0.2607705593109131
-0.0118247987702488,1.3287204504013062,-0.109483852982521,-0.4614925384521484,-0.0155165176838636,-0.0680503100156784,0.0,0.0,0.0427882671356201,0.2425359487533569
-0.0129840848967432,1.3183273077011108,-0.1126631647348404,-0.4619503617286682,-0.0187395196408033,-0.064466193318367,0.0,0.0,-0.2420387268066406,0.8792903423309326
-0.0141007425263524,1.3072348833084106,-0.1065737977623939,-0.4930752515792846,-0.0237827580422163,-0.1008737683296203,0.0,0.0,0.3358346223831177,-0.5007455348968506
-0.0152216907590627,1.2960832118988037,-0.1083204895257949,-0.4956932067871094,-0.0275173299014568,-0.0746981799602508,0.0,0.0,0.9257981777191162,0.2227741479873657
-0.0162051208317279,1.285449743270874,-0.0954534709453582,-0.472650796175003,-0.0303847081959247,-0.0573527105152606,0.0,0.0,-0.4782056808471679,-0.2322161793708801
-0.0172256473451852,1.274118185043335,-0.0992864742875099,-0.503680944442749,-0.0331122539937496,-0.0545559152960777,0.0,0.0,-0.0528708696365356,0.2194470167160034
-0.0182830803096294,1.2620887756347656,-0.1031119599938392,-0.5347004532814026,-0.0357094630599021,-0.0519489645957946,0.0,0.0,-0.0016782283782958,-0.4905464649200439
-0.019377326592803,1.249361515045166,-0.1069292798638343,-0.565721869468689,-0.0381864830851554,-0.049545019865036,0.0,0.0,-0.8554609417915344,-0.0290436148643493
-0.0205087661743164,1.235936164855957,-0.110736645758152,-0.59674471616745,-0.0405529513955116,-0.0473339594900608,0.0,0.0,0.8494037389755249,-0.7602571249008179
-0.0215466506779193,1.2224280834197998,-0.1034166812896728,-0.6003715991973877,-0.0409188419580459,-0.0073184547945857,0.0,0.0,0.3424818515777588,-0.1498728394508361
-0.0225158687680959,1.2091944217681885,-0.0970211252570152,-0.588154673576355,-0.0408249013125896,0.0018790068570524,0.0,0.0,-0.2677767276763916,-0.1616169810295105
-0.0235219951719045,1.1952626705169678,-0.1007933467626571,-0.6191828846931458,-0.0406480580568313,0.0035369805991649,0.0,0.0,-0.530772864818573,0.3497140407562256
-0.0245649330317974,1.1806330680847168,-0.1045474037528038,-0.6502029299736023,-0.0403971001505851,0.0050196056254208,0.0,0.0,-0.2960704565048218,-0.4793229103088379
-0.025644589215517,1.1653053760528564,-0.1082819104194641,-0.6812239289283752,-0.0400805585086345,0.0063315397128462,0.0,0.0,0.2329415082931518,-0.005287766456604
-0.0266475677490234,1.1498829126358032,-0.1011406034231185,-0.685426652431488,-0.0392560809850692,0.0164912585169076,0.0,0.0,0.5842931270599365,-0.4659814834594726
-0.0276082996279001,1.1342068910598757,-0.0972749516367912,-0.6966807842254639,-0.0380713045597076,0.0236975811421871,0.0,0.0,0.3924566507339477,-0.3858205080032348
-0.0287042614072561,1.1186527013778689,-0.1102749556303024,-0.6912786960601807,-0.037399411201477,0.0134392324835062,0.0,0.0,0.6854751110076904,0.5854061841964722
-0.0299232490360736,1.1034650802612305,-0.1210254654288292,-0.6750217080116272,-0.038262128829956,-0.0172542612999677,0.0,0.0,-0.3821220993995666,-0.2876123189926147
-0.0311779025942087,1.0875797271728516,-0.1246247291564941,-0.7060422301292419,-0.0390966981649398,-0.0166914276778697,0.0,0.0,-0.1121540665626525,-0.4820571541786194
-0.032468032091856,1.0709961652755735,-0.1281893998384475,-0.7370628118515015,-0.0399098731577396,-0.0162634532898664,0.0,0.0,0.8439750671386719,-0.6295072436332703
-0.0339647307991981,1.0550280809402466,-0.1497209817171096,-0.7096911072731018,-0.039857480674982,0.001047980855219,0.0,0.0,-0.5267923474311829,0.2718985080718994
-0.035496138036251,1.0383620262145996,-0.1532076746225357,-0.7407118082046509,-0.0397961251437664,0.0012270661536604,0.0,0.0,0.2132928371429443,-0.502052903175354
-0.0370618812739849,1.021937131881714,-0.1576776802539825,-0.729970395565033,-0.0386995151638984,0.0219321884214878,0.0,0.0,-0.6963323950767517,0.1482836008071899
-0.0386615768074989,1.0048141479492188,-0.161073550581932,-0.7609912157058716,-0.0376049876213073,0.0218903683125972,0.0,0.0,0.3903387784957886,-0.8147929310798645
-0.040411852300167,0.9880202412605286,-0.1776724308729171,-0.7463341951370239,-0.0349950157105922,0.052199613302946,0.0,0.0,0.1718660593032837,-0.2177947163581848
-0.0422313697636127,0.9709141850471495,-0.1843742877244949,-0.7602101564407349,-0.0326059348881244,0.0477817021310329,0.0,0.0,-0.4853372573852539,-0.1177589893341064
-0.0440834052860736,0.9531103372573853,-0.1876065284013748,-0.7912312150001526,-0.030232835561037,0.0474618971347808,0.0,0.0,0.6047866344451904,0.0062148571014404
-0.0459275245666503,0.9357094168663024,-0.1868701428174972,-0.773330807685852,-0.0277980100363492,0.0486963279545307,0.0,0.0,0.8260210752487183,0.6650367975234985
-0.0477675423026084,0.9183607697486876,-0.185028538107872,-0.7710338234901428,-0.0267863422632217,0.0202333163470029,0.0,0.0,0.1672282218933105,0.0194734334945678
-0.0495968833565712,0.9011195302009584,-0.1840546131134033,-0.7662608623504639,-0.0256769955158233,0.0221866592764854,0.0,0.0,-0.4169187545776367,0.2524129152297973
-0.0514560714364051,0.8831802010536194,-0.1870085000991821,-0.7972815632820129,-0.0245972275733947,0.0215953178703784,0.0,0.0,-0.7351468801498413,0.5016425848007202
-0.0533026680350303,0.8645420670509338,-0.184666097164154,-0.8283594846725464,-0.0245940312743186,6.40065482002683e-05,0.0,0.0,0.9572064876556396,0.0948917865753173
-0.0552812591195106,0.8465937376022339,-0.1972324550151825,-0.7977079153060913,-0.0252102743834257,-0.0123250763863325,0.0,0.0,0.834768533706665,0.5812350511550903
-0.057080078870058,0.8288107514381409,-0.1784470230340957,-0.7903779149055481,-0.0266216937452554,-0.0282285753637552,0.0,0.0,0.053760290145874,0.1270039081573486
-0.0588377937674522,0.8106274008750916,-0.1746030449867248,-0.8081731200218201,-0.0277840998023748,-0.0232477840036153,0.0,0.0,0.8461802005767822,0.2515797615051269
-0.060493566095829,0.7926270961761475,-0.1648782193660736,-0.8000242710113525,-0.0284720566123724,-0.0137593122199177,0.0,0.0,0.7854626178741455,0.1800884008407592
-0.0622083656489849,0.7744079828262329,-0.170534461736679,-0.8097569942474365,-0.0294028464704751,-0.0186158418655395,0.0,0.0,0.9246889352798462,0.8025676012039185
-0.0638130158185958,0.7560610771179199,-0.1579934954643249,-0.8154687881469727,-0.0318451859056949,-0.0488468781113624,0.0,0.0,0.8658825159072876,0.6305317878723145
-0.065299704670906,0.7377635836601257,-0.1450748741626739,-0.8132990598678589,-0.0353908278048038,-0.0709129497408866,0.0,0.0,0.8032885789871216,0.208802580833435
-0.0668971985578537,0.72013920545578,-0.1555455774068832,-0.7834123373031616,-0.0395442731678485,-0.0830685198307037,0.0,0.0,0.4875167608261108,0.4339021444320678
-0.0686050429940223,0.7028878331184387,-0.1659865081310272,-0.7668639421463013,-0.0442901477217674,-0.0949174910783767,0.0,0.0,0.819199800491333,-0.3113499283790588
-0.0703291893005371,0.6857796311378479,-0.1674529016017913,-0.7605198621749878,-0.0491829253733158,-0.0978557541966438,0.0,0.0,-0.1041353940963745,0.5957448482513428
-0.0720109939575195,0.6679694652557373,-0.1617173850536346,-0.7917897701263428,-0.0555816106498241,-0.127973660826683,0.0,0.0,0.9063904285430908,-0.5327755808830261
-0.0737726241350174,0.6507478356361389,-0.1705135256052017,-0.7656233310699463,-0.0611620806157588,-0.1116092950105667,0.0,0.0,0.803662896156311,0.6249446868896484
-0.0753401741385459,0.6335358023643494,-0.1501497328281402,-0.765267550945282,-0.0676961988210678,-0.1306823343038559,0.0,0.0,0.6138143539428711,-0.8469710350036621
-0.076929286122322,0.6168063879013062,-0.1539865732192993,-0.7437549233436584,-0.0725700333714485,-0.0974768549203872,0.0,0.0,0.7114235162734985,0.1641924381256103
-0.0783373862504959,0.6001182198524475,-0.1365730911493301,-0.7419063448905945,-0.0767609998583793,-0.08381949365139,0.0,0.0,0.877185583114624,-0.27928626537323
-0.0798203498125076,0.5835456252098083,-0.1435292661190033,-0.7368125319480896,-0.0814828872680664,-0.0944377928972244,0.0,0.0,0.6196186542510986,0.3742444515228271
-0.0811537727713584,0.5674322247505188,-0.12897589802742,-0.7163979411125183,-0.0858044326305389,-0.0864309147000312,0.0,0.0,0.8994345664978027,-0.4935255646705627
-0.0822666138410568,0.5517594218254089,-0.1076394915580749,-0.6967814564704895,-0.0894150882959365,-0.0722134262323379,0.0,0.0,0.1237522363662719,-0.2636327743530273
-0.0832808464765548,0.5362188220024109,-0.0980017855763435,-0.6909065842628479,-0.0928104892373085,-0.0679079070687294,0.0,0.0,0.8135488033294678,-0.5353416800498962
-0.0843457207083702,0.5212914943695068,-0.1038712859153747,-0.663602888584137,-0.095405526459217,-0.0519010424613952,0.0,0.0,0.332331895828247,-0.1468242406845092
-0.0853392630815506,0.5061062574386597,-0.0969140157103538,-0.6750558614730835,-0.0978221893310546,-0.0483330637216568,0.0,0.0,0.6617107391357422,0.3400048017501831
-0.0863604545593261,0.4912911653518677,-0.0992003008723259,-0.6586431860923767,-0.1007140204310417,-0.0578366927802562,0.0,0.0,0.0461038351058959,0.5633422136306763
-0.0872118026018142,0.4762456715106964,-0.0812105312943458,-0.6689586043357849,-0.104602612555027,-0.0777720138430595,0.0,0.0,0.5302503108978271,-0.3715620040893554
-0.0879743546247482,0.461345911026001,-0.0724368765950203,-0.6624838709831238,-0.1083901822566986,-0.0757517293095588,0.0,0.0,0.9587161540985109,-0.7171051502227783
-0.0887225121259689,0.4464592933654785,-0.072474405169487,-0.6618006229400635,-0.1107204556465148,-0.0466051287949085,0.0,0.0,0.8312222957611084,-0.3805403709411621
-0.0895230323076248,0.43187415599823,-0.0770764872431755,-0.6484533548355103,-0.1136758401989936,-0.0591078586876392,0.0,0.0,0.9171147346496582,-0.5372348427772522
-0.0902127251029014,0.4180799424648285,-0.0671725049614906,-0.6132116317749023,-0.1154651343822479,-0.0357858836650848,0.0,0.0,0.501347541809082,-0.1170458197593689
-0.0907823592424392,0.403970867395401,-0.0555238910019397,-0.6271794438362122,-0.1168893426656723,-0.0284840874373912,0.0,0.0,0.807574987411499,-0.6258348226547241
-0.0912426933646202,0.3905656337738037,-0.0459666661918163,-0.5957964658737183,-0.1169554069638252,-0.0013216568622738,0.0,0.0,0.5941920280456543,-0.0640890002250671
-0.0917208641767501,0.3771586418151855,-0.0473580509424209,-0.5959012508392334,-0.1174103990197181,-0.0090998243540525,0.0,0.0,0.9443233013153076,-0.5305652618408203
-0.0922400504350662,0.3642704486846924,-0.0522229969501495,-0.572786271572113,-0.1171071156859397,0.006065803579986,0.0,0.0,0.1431947946548462,-0.5192483067512512
-0.0927039161324501,0.3513297736644745,-0.0478258579969406,-0.5750280022621155,-0.1156787052750587,0.0285683367401361,0.0,0.0,0.6711186170578003,0.030720829963684
-0.0931745544075965,0.3389864563941955,-0.0479448810219764,-0.5485243201255798,-0.1148039847612381,0.0174944810569286,0.0,0.0,0.5018726587295532,-0.8709548711776733
-0.0935531631112098,0.3267262578010559,-0.0406457707285881,-0.5446845889091492,-0.1120391488075256,0.0552969388663768,0.0,0.0,0.6524524688720703,0.5683460235595703
-0.0938526168465614,0.3143453299999237,-0.0315603241324424,-0.5501448512077332,-0.1104408428072929,0.0319660753011703,0.0,0.0,0.5603344440460205,-0.5638086199760437
-0.0940657630562782,0.3017140626907348,-0.0242943260818719,-0.561171293258667,-0.1074819639325141,0.0591776855289936,0.0,0.0,0.9335589408874512,0.361069917678833
-0.0942432433366775,0.2889832854270935,-0.0206327494233846,-0.5656096339225769,-0.1046194955706596,0.0572491064667701,0.0,0.0,0.8510041236877441,0.2085838317871093
-0.0943061858415603,0.2768817245960235,-0.0092152226716279,-0.5376474261283875,-0.1017192527651786,0.0580048933625221,0.0,0.0,0.762183666229248,0.6585693359375
-0.0941042900085449,0.2653650343418121,0.0182689558714628,-0.5117222666740417,-0.0998216569423675,0.0379522815346717,0.0,0.0,0.819398045539856,0.152179479598999
-0.0939023941755294,0.2545121908187866,0.0187630802392959,-0.4822533428668976,-0.0984011963009834,0.0284088645130395,0.0,0.0,0.3211647272109985,-0.4928334951400757
-0.0937429443001747,0.2433719187974929,0.014892665669322,-0.4950547516345978,-0.0973581746220588,0.0208605322986841,0.0,0.0,0.6183876991271973,-0.1963717341423034
-0.0934334769845008,0.2326837927103042,0.0296045280992984,-0.4749399423599243,-0.0960245355963707,0.0266726799309253,0.0,0.0,0.3393119573593139,-0.768406093120575
-0.093195341527462,0.2220161706209182,0.020932650193572,-0.4739332497119903,-0.0931670367717742,0.0571502968668937,0.0,0.0,0.3830366134643554,0.0617290735244751
-0.092912770807743,0.2115044146776199,0.0254589952528476,-0.4670187830924988,-0.0904007330536842,0.0553262010216712,0.0,0.0,0.5259723663330078,-0.1602953672409057
-0.0925448387861251,0.2012609541416168,0.0339188650250434,-0.455093652009964,-0.0875579118728637,0.0568565018475055,0.0,0.0,-0.0592196583747863,-0.1184923648834228
-0.0921381935477256,0.1903195530176162,0.0376641973853111,-0.4861139357089996,-0.0845809504389762,0.0595390275120735,0.0,0.0,0.8603932857513428,0.0018501281738281
-0.0916328430175781,0.1792528182268142,0.0472665503621101,-0.4916726648807525,-0.0813400447368621,0.0648177564144134,0.0,0.0,0.8190226554870605,0.6444017887115479
-0.0908910781145095,0.1681265234947204,0.0717775449156761,-0.4943729043006897,-0.0789627432823181,0.0475458838045597,0.0,0.0,0.9297080039978028,-0.1893438100814819
-0.0898845642805099,0.1572793126106262,0.0972944051027298,-0.4819271862506866,-0.0756376460194587,0.0665021315217018,0.0,0.0,0.902456521987915,-0.6876372694969177
-0.0886842757463455,0.1463947594165802,0.114701472222805,-0.4834981262683868,-0.0703601017594337,0.1055506914854049,0.0,0.0,0.9599931240081788,-0.6920673251152039
-0.0874409675598144,0.1361577361822128,0.1174579486250877,-0.4546717703342438,-0.0635567605495452,0.1360666453838348,0.0,0.0,0.8831543922424316,-0.5333279371261597
-0.0861047729849815,0.1265221685171127,0.1253772675991058,-0.4279207587242126,-0.0554118677973747,0.1628980785608291,0.0,0.0,0.7722570896148682,-0.7554063200950623
-0.0845998749136924,0.1172569617629051,0.1402331888675689,-0.4114394783973694,-0.0452800542116165,0.2026362419128418,0.0,0.0,0.6407921314239502,-0.8774582147598267
-0.0829950347542762,0.1077690199017524,0.1481082290410995,-0.4213561713695526,-0.033051747828722,0.2445660382509231,0.0,0.0,0.9740098714828492,-0.4091706275939941
-0.0813891440629959,0.0985003113746643,0.1483170390129089,-0.4117158949375152,-0.0209275037050247,0.2424846887588501,0.0,0.0,0.7917916774749756,0.6060001850128174
-0.0795729607343673,0.0899412706494331,0.1701056808233261,-0.3802770376205444,-0.0095614502206444,0.2273211777210235,0.0,0.0,0.8556990623474121,-0.6736962199211121
-0.0777878761291503,0.081646092236042,0.1655123084783554,-0.3686432838439941,0.0032710542436689,0.2566498816013336,0.0,0.0,0.8970273733139038,0.7140600681304932
-0.0760590583086013,0.0740309804677963,0.1614858359098434,-0.3385106325149536,0.0145164653658866,0.2249081581830978,0.0,0.0,0.9060189723968506,0.8404173851013184
-0.0741205215454101,0.0669350028038024,0.1837248802185058,-0.3155018389225006,0.0245181024074554,0.2000326365232467,0.0,0.0,0.6573293209075928,-0.9372383952140808
-0.0722897499799728,0.0602732524275779,0.1709346920251846,-0.2963187992572784,0.0365093015134334,0.2398239076137542,0.0,0.0,0.8739521503448486,0.617624044418335
-0.0704962760210037,0.0541900731623172,0.1685071885585785,-0.2706598043441772,0.0472186617553234,0.2141871750354766,0.0,0.0,0.7750734090805054,0.1108784675598144
-0.0687090903520584,0.0482103936374187,0.1677896678447723,-0.2661421597003937,0.0580207332968711,0.2160413563251495,0.0,0.0,0.9138920307159424,0.1664260625839233
-0.0670514106750488,0.0425659529864788,0.1552600562572479,-0.2513039410114288,0.0684172734618187,0.207930639386177,0.0,0.0,0.7797865867614746,0.5362722873687744
-0.0655160918831825,0.0370548330247402,0.1443643271923065,-0.2453837990760803,0.07748594135046,0.1813735067844391,0.0,0.0,0.8660049438476562,0.1603618860244751
-0.0638782531023025,0.0320747941732406,0.1538512557744979,-0.2218771576881408,0.0873334556818008,0.1969501078128814,0.0,0.0,0.8283810615539551,0.7669064998626709
-0.0620947852730751,0.0270195100456476,0.1695469617843628,-0.2252211719751358,0.0960412546992302,0.1741557121276855,0.0,0.0,0.8744728565216064,-0.0829540491104126
-0.0601841919124126,0.0225835666060447,0.1812867224216461,-0.1978067457675933,0.1057404205203056,0.1939835250377655,0.0,0.0,0.5294029712677002,-0.816154420375824
-0.0583909973502159,0.0185158345848321,0.1677218377590179,-0.181646779179573,0.117260567843914,0.2304029166698455,0.0,0.0,0.2848341464996338,-0.4665991067886352
-0.0565187446773052,0.0147618148475885,0.1748990267515182,-0.1678578406572342,0.1295275688171386,0.2453401535749435,0.0,0.0,-0.2567518353462219,0.1092621088027954
-0.054663848131895,0.0110880471765995,0.191302090883255,-0.1627707034349441,0.1238000690937042,-0.1144769936800003,0.0,1.0,0.9018280506134032,0.3312758207321167
-0.053156279027462,0.0087150428444147,0.1764365285634994,-0.1035201922059059,0.0983020290732383,-0.5099349021911621,0.0,1.0,-0.0500367283821105,-0.5358771681785583
-0.0517597198486328,0.0061326837167143,0.1770871132612228,-0.1127403303980827,0.0612003616988658,-0.742081880569458,0.0,1.0,0.5293538570404053,-0.8725754022598267
-0.0504102706909179,0.0037349320482462,0.1767884194850921,-0.1053882613778114,0.0198038890957832,-0.82799232006073,0.0,1.0,0.7459518909454346,-0.9757363796234132
-0.0492711067199707,0.0015978551236912,0.1526149809360504,-0.0949120372533798,-0.0183907691389322,-0.7638944983482361,0.0,1.0,0.6317403316497803,-0.9606722593307496
-0.04826021194458,0.0002607202623039,0.1187472343444824,-0.0597376227378845,-0.0358299948275089,-0.3487689793109894,1.0,0.0,-0.1070041060447692,-0.6270889639854431
-0.047184370458126,-0.001100912108086,0.104861594736576,-0.0604502819478511,-0.0331558734178543,0.0534746572375297,1.0,0.0,0.1568922996520996,-0.8493716716766357
-0.0460406318306922,-0.0020372534636408,0.0938032269477844,-0.0412883795797824,-0.0128336353227496,0.4064531922340393,1.0,0.0,-0.2846565246582031,-0.0856871008872985
-0.0450389869511127,-0.0026649974752217,0.0854689851403236,-0.0278654657304286,0.0015736531931906,0.2880197465419769,1.0,1.0,-0.0236124396324157,-0.8382648825645447
-0.0442399010062217,-0.0030054950620979,0.0696622133255004,-0.0152896856889128,0.0112446499988436,0.1928660869598388,1.0,1.0,-0.1674325466156005,-0.3454703092575073
-0.0435916893184185,-0.003039612667635,0.0604094974696636,-0.0015580577310174,0.0155792729929089,0.0866777449846267,1.0,1.0,-0.5813895463943481,-0.8586069941520691
