x_pos,y_pos,x_vel,y_vel,angle,ang_vel,leg_1,leg_2,main_booster,lat_booster
-0.0016636848449707,1.403010368347168,-0.168587639927864,-0.3515515923500061,0.0019950328860431,0.0393708012998104,0.0,0.0,0.4645939723029966,-0.8701277457745833
-0.0034855841659009,1.3951185941696167,-0.1860847175121307,-0.3507571518421173,0.0058430070057511,0.0769676342606544,0.0,0.0,0.3751467506891952,0.6448197279270279
-0.0052775382064282,1.3871132135391235,-0.1821342259645462,-0.3558073937892914,0.0087542096152901,0.0582290962338447,0.0,0.0,0.0653376477551603,-0.6251570776319828
-0.0073490142822265,1.3789730072021484,-0.2112880498170852,-0.3618127703666687,0.0128455739468336,0.0818347260355949,0.0,0.0,0.6285359412682181,-0.8509857450482393
-0.0094956401735544,1.3711873292922974,-0.220790222287178,-0.3461022078990936,0.0189154297113418,0.1214080303907394,0.0,0.0,0.3342793698379502,-0.8958493574131525
-0.0117354393005371,1.36344575881958,-0.2320623695850372,-0.3441863059997558,0.026909302920103,0.1598921865224838,0.0,0.0,0.2208310972812679,-0.6331570552390962
-0.0141965867951512,1.3557281494140625,-0.2554291784763336,-0.3432002961635589,0.0361270532011985,0.1843718588352203,0.0,0.0,-0.195660008933068,0.7635354912563769
-0.0167242996394634,1.3474035263061523,-0.2601653933525085,-0.3701849579811096,0.0434401929378509,0.146276444196701,0.0,0.0,-0.2403350189283155,-0.7187813557921253
-0.019451331347227,1.3384692668914795,-0.281528502702713,-0.3973506391048431,0.0521678403019905,0.1745692789554596,0.0,0.0,-0.4623909859862121,0.8356825229520903
-0.022254467010498,1.3289321660995483,-0.2873955965042114,-0.424139529466629,0.0591800659894943,0.1402570307254791,0.0,0.0,-0.9246920867487484,-0.7020325700125525
-0.025246238335967,1.318777561187744,-0.3073882460594177,-0.4516569375991821,0.0673077553510665,0.1625691801309585,0.0,0.0,-0.6979460595674172,0.9331649084691632
-0.0282973293215036,1.3080158233642578,-0.3111216425895691,-0.4785864949226379,0.0732673481106758,0.1192028746008873,0.0,0.0,-0.2922016272757504,-0.6207187616666643
-0.0315278992056846,1.2966389656066897,-0.3299258351325989,-0.5059850811958313,0.0800754576921463,0.1361745446920395,0.0,0.0,-0.2333395244686653,0.992934670240999
-0.0348119735717773,1.28464937210083,-0.3329191207885742,-0.5331161618232727,0.0845503658056259,0.0895064324140548,0.0,0.0,-0.7998825402803478,-0.947269929976212
-0.0382943153381347,1.2720482349395752,-0.3540407717227936,-0.5603893399238586,0.0903106778860092,0.1152164787054061,0.0,0.0,-0.1748401685369029,-0.7726143527264699
-0.0419662483036518,1.2588173151016235,-0.3740926384925842,-0.5884717702865601,0.0971571207046508,0.1369415372610092,0.0,0.0,-0.7236395330601384,-0.773028964348464
-0.0458259582519531,1.2449746131896973,-0.3938576877117157,-0.615759015083313,0.1049967780709266,0.1568072587251663,0.0,0.0,0.6939944092147357,-0.6766187434539603
-0.0497607216238975,1.2311019897460938,-0.4028781950473785,-0.6172341108322144,0.1143455579876899,0.1869926154613495,0.0,0.0,0.4870183128400263,0.6157653510333435
-0.0537750236690044,1.21772301197052,-0.4095799028873443,-0.5952642560005188,0.1224538683891296,0.1621807813644409,0.0,0.0,0.848635193414748,0.7983511271007826
-0.0580411925911903,1.2046658992767334,-0.4327078759670257,-0.5808315873146057,0.1285260319709777,0.1214546561241149,0.0,0.0,0.2789762646404534,-0.6142173804986528
-0.0624608024954795,1.1918762922286987,-0.4492267072200775,-0.5690622925758362,0.1357733011245727,0.1449585258960724,0.0,0.0,-0.1289991618548664,0.6233119266909416
-0.0669683441519737,1.1784791946411133,-0.4564773142337799,-0.5959563851356506,0.1414885371923446,0.1143148764967918,0.0,0.0,-0.0348086129190434,0.9131218237546672
-0.0715261474251747,1.164484977722168,-0.4590089917182922,-0.6222760081291199,0.1447117626667022,0.0644701123237609,0.0,0.0,-0.1717076476903321,0.822245214534229
-0.0761476531624794,1.1498825550079346,-0.4632605910301208,-0.6491025686264038,0.1458185315132141,0.0221374295651912,0.0,0.0,0.8902582056250443,0.8650589061577212
-0.0811209678649902,1.1357365846633911,-0.4960665702819824,-0.628591001033783,0.1445506364107132,-0.0253600738942623,0.0,0.0,-0.5958589134170478,-0.8989066347345821
-0.0863145813345909,1.1209399700164795,-0.5200201272964478,-0.6576917171478271,0.1452039778232574,0.0130669344216585,0.0,0.0,-0.6854906458283274,0.9085798407795248
-0.0915709510445594,1.1055498123168943,-0.524126410484314,-0.6838619709014893,0.1437061429023742,-0.0299566593021154,0.0,0.0,0.6177045223558673,-0.6889839184659818
-0.0972682982683181,1.0907096862792969,-0.5689912438392639,-0.6594847440719604,0.1429588049650192,-0.0149466963484883,0.0,0.0,0.2495976927994576,0.7709449214662295
-0.1032315269112587,1.076120138168335,-0.5935546159744263,-0.6481643915176392,0.1402042508125305,-0.0550911240279674,0.0,0.0,-0.1433971035961774,-0.6994239230764515
-0.1093810051679611,1.060901165008545,-0.6132850646972656,-0.6762459874153137,0.1385485678911209,-0.0331137254834175,0.0,0.0,-0.1468805923339942,0.6250419858387243
-0.1156090721487999,1.0450849533081057,-0.6194900274276733,-0.7026418447494507,0.1352434158325195,-0.0661030858755111,0.0,0.0,0.1636641815624937,-0.7246848887562349
-0.1221235245466232,1.0290842056274414,-0.6491466760635376,-0.7109344005584717,0.1329556256532669,-0.0457553640007972,0.0,0.0,-0.7822916379910594,-0.8712062990278007
-0.1288413107395172,1.0124611854553225,-0.6710878610610962,-0.7387390732765198,0.1322689801454544,-0.0137333525344729,0.0,0.0,-0.5522969214671902,0.7591724628634315
-0.1356282234191894,0.9952271580696106,-0.6762591600418091,-0.7657455801963806,0.1298479437828064,-0.0484203174710273,0.0,0.0,-0.8065016784522934,0.8625142734488729
-0.142466738820076,0.9773936867713928,-0.6792424917221069,-0.7922026515007019,0.1252680867910385,-0.0915974453091621,0.0,0.0,0.8791164859232821,-0.6535709355607524
-0.149560734629631,0.9602252840995787,-0.7057653665542603,-0.7627426981925964,0.1216516643762588,-0.0723284035921096,0.0,0.0,0.4344709071613717,0.7915423716785077
-0.1567814797163009,0.9430335164070128,-0.7164074182510376,-0.76362544298172,0.1160181686282157,-0.1126700043678283,0.0,0.0,0.4489249557165118,-0.7434686113836482
-0.1642146110534668,0.926223874092102,-0.7387858033180237,-0.7467533946037292,0.1115180253982544,-0.0900028795003891,0.0,0.0,-0.1386994849881611,0.9010915082727322
-0.1716924607753753,0.9088208079338074,-0.7411396503448486,-0.772987961769104,0.1049189120531082,-0.1319822967052459,0.0,0.0,-0.5685662265081448,-0.9659611107311856
-0.1793497055768966,0.8907932639122009,-0.7604984641075134,-0.8008712530136108,0.0997346639633178,-0.103684976696968,0.0,0.0,0.304417509214623,0.9975211643403232
-0.1871913969516754,0.8730743527412415,-0.7764597535133362,-0.7870102524757385,0.0920945852994918,-0.1528018414974212,0.0,0.0,0.4544904232025146,0.9989950656890868
-0.1949718445539474,0.8554560542106628,-0.7679823637008667,-0.7824487090110779,0.0821264535188674,-0.1993629932403564,0.0,0.0,0.440940260887146,0.9997116327285768
-0.2026935517787933,0.8376442790031433,-0.7597275972366333,-0.7909972667694092,0.0698027163743972,-0.2464748322963714,0.0,0.0,0.5589654445648193,0.9999535083770752
-0.2103558033704757,0.8199840784072876,-0.7514092922210693,-0.784271240234375,0.0551499165594577,-0.2930560708045959,0.0,0.0,0.6077311038970947,0.9999630451202391
-0.218085765838623,0.8021328449249268,-0.7556540966033936,-0.7928348779678345,0.0380115583539009,-0.3427672684192657,0.0,0.0,0.8013722896575928,0.9999637603759766
-0.225775808095932,0.7842153906822205,-0.7492535710334778,-0.7959470748901367,0.0185105800628662,-0.3900198340415954,0.0,0.0,0.8836655616760254,0.9999933242797852
-0.2333948612213134,0.7664523124694824,-0.7397915720939636,-0.7893421649932861,-0.0033187784720212,-0.4365874826908111,0.0,0.0,0.8698701858520508,0.9999914169311525
-0.241144374012947,0.749508798122406,-0.750132143497467,-0.7532848715782166,-0.0278197303414344,-0.4900192618370056,0.0,0.0,0.7522146701812744,0.9999701976776124
-0.2490142881870269,0.733225405216217,-0.759486198425293,-0.7244344353675842,-0.0549927577376365,-0.5434609651565552,0.0,0.0,0.1684470176696777,0.9997155666351318
-0.2568618655204773,0.7168699502944946,-0.7548049688339233,-0.7282792329788208,-0.084631972014904,-0.5927847623825073,0.0,0.0,-0.0169972777366638,0.999274730682373
-0.2646640241146087,0.6999009251594543,-0.7473625540733337,-0.7563599348068237,-0.1172184944152832,-0.6517311334609985,0.0,0.0,0.6902856826782227,0.9994059801101683
-0.2724100053310394,0.6834606528282166,-0.7393077611923218,-0.7338181138038635,-0.1523661017417907,-0.702953040599823,0.0,0.0,0.5489869117736816,0.968315839767456
-0.2799404561519623,0.6669934391975403,-0.7156358361244202,-0.7361359000205994,-0.1898243129253387,-0.7491651773452759,0.0,0.0,0.7626841068267822,0.9975757598876952
-0.2872580885887146,0.6511721014976501,-0.692169189453125,-0.7087330222129822,-0.2297717630863189,-0.7989499568939209,0.0,0.0,0.4096308946609497,0.9274814128875732
-0.2942911982536316,0.6352894306182861,-0.6618798971176147,-0.7129046320915222,-0.2719694077968597,-0.8439537882804871,0.0,0.0,0.1963917016983032,0.9923338890075684
-0.3012509346008301,0.6193088889122009,-0.6525844931602478,-0.7189422845840454,-0.3166911900043487,-0.8944364786148071,0.0,0.0,0.3460253477096557,-0.9999387264251708
-0.3080029487609863,0.6036701798439026,-0.6339355707168579,-0.7046671509742737,-0.3598405420780182,-0.8629875183105469,0.0,0.0,-0.4764412641525268,-0.9248252511024476
-0.3148052096366882,0.5874752998352051,-0.6405051946640015,-0.7303100824356079,-0.402039885520935,-0.8439872860908508,0.0,0.0,-0.1634399890899658,-0.8279072642326355
-0.3216486871242523,0.5707314014434814,-0.6462394595146179,-0.7555361390113831,-0.4432516992092132,-0.8242366909980774,0.0,0.0,0.4022340774536133,0.6236605644226074
-0.3282078206539154,0.5543203949928284,-0.6167752146720886,,-0.4864203035831451,-0.863372802734375,0.0,0.0,0.7014580965042114,-0.5999661087989807
-0.3345572054386139,0.5378142595291138,-0.5974395871162415,-0.7474431395530701,-0.5287312865257263,-0.8462192416191101,0.0,0.0,0.8575839996337891,-0.9999133348464966
-0.3406514525413513,0.5218972563743591,-0.5740506052970886,-0.7217854261398315,-0.5696174502372742,-0.8177238702774048,0.0,0.0,0.8425846099853516,-0.9829909801483154
-0.3463327884674072,0.5060520172119141,-0.5351331830024719,-0.7188674807548523,-0.6087392568588257,-0.782436192035675,0.0,0.0,0.687902569770813,-0.9999979734420776
-0.3516525328159332,0.4904279112815857,-0.5011946558952332,-0.7092279195785522,-0.6462171077728271,-0.7495564222335815,0.0,0.0,0.888115406036377,-0.999967873096466
-0.356702983379364,0.4748119413852691,-0.4764100015163421,-0.7089306116104126,-0.6820648312568665,-0.716955304145813,0.0,0.0,0.9184784889221193,-0.9999406933784484
-0.3614483475685119,0.459622710943222,-0.4478159844875335,-0.6900064945220947,-0.716479480266571,-0.6882942318916321,0.0,0.0,0.9388017654418944,-0.999837040901184
-0.3655043542385101,0.4450284242630005,-0.3809475302696228,-0.6633789539337158,-0.7491758465766907,-0.6539276838302612,0.0,0.0,0.9902167320251464,-0.9999980926513672
-0.3692356646060943,0.4301800727844238,-0.3505108654499054,-0.6743433475494385,-0.7800655364990234,-0.617794930934906,0.0,0.0,0.9943945407867432,-0.9999994039535522
-0.3721941113471985,0.4158810973167419,-0.2751345038414001,-0.6495273113250732,-0.8091950416564941,-0.5825899839401245,0.0,0.0,0.9959871768951416,-0.9999783635139464
-0.3748043477535248,0.4017894268035888,-0.2419806271791458,-0.6399492621421814,-0.8368010520935059,-0.5521203279495239,0.0,0.0,0.9971206188201904,-0.999999701976776
-0.3768579065799713,0.388142466545105,-0.1879076212644577,-0.6197299361228943,-0.8628488183021545,-0.5209556818008423,0.0,0.0,0.9690194129943848,-0.9999651908874512
-0.3782859742641449,0.3746579885482788,-0.1270288527011871,-0.6118743419647217,-0.8871116638183594,-0.4852569103240967,0.0,0.0,0.8265225887298584,-0.9999998807907104
-0.379044771194458,0.3617345988750458,-0.0615582950413227,-0.586340606212616,-0.9097790122032166,-0.4533475041389465,0.0,0.0,0.835698127746582,-0.9999989867210388
-0.3791965544223785,0.34878009557724,-0.0023903104010969,-0.5869329571723938,-0.9305990934371948,-0.4164016842842102,0.0,0.0,0.1477608680725097,-0.9999880194664
-0.3791021406650543,0.3355844914913177,0.0208380762487649,-0.5968573689460754,-0.9496477842330932,-0.3809735178947449,0.0,0.0,0.2491345405578613,-0.9999319314956664
-0.3787253797054291,0.3220113515853882,0.0477744713425636,-0.6128137111663818,-0.9669682383537292,-0.3464093506336212,0.0,0.0,-0.4772725105285644,-0.9964497685432434
-0.3782990872859955,0.3079251945018768,0.0514237582683563,-0.6346779465675354,-0.9824097156524658,-0.3088298439979553,0.0,0.0,-0.1657216548919677,-0.9998789429664612
-0.3778075277805328,0.2933335304260254,0.056737583130598,-0.656195878982544,-0.9960142970085144,-0.2720918953418731,0.0,0.0,-0.3520101904869079,-0.9905178546905518
-0.3772404789924621,0.2782222032546997,0.0633300095796585,-0.6785091161727905,-1.0081390142440796,-0.2424949705600738,0.0,0.0,0.3927832841873169,-0.977198839187622
-0.3760747909545898,0.2632918059825897,0.1221337541937828,-0.669512152671814,-1.018505573272705,-0.2073322981595993,0.0,0.0,0.052056074142456,-0.4090141057968139
-0.3746628761291504,0.2480255216360092,0.1471517533063888,-0.6850230097770691,-1.0298144817352295,-0.226177766919136,0.0,0.0,0.3548812866210937,-0.9154416918754578
-0.3725947737693786,0.2326976656913757,0.2118134498596191,-0.6868569254875183,-1.0394890308380127,-0.193491131067276,0.0,0.0,0.8847495317459106,-0.9604777693748474
-0.3699486851692199,0.2175205796957016,0.2687454521656036,-0.6792594194412231,-1.0475871562957764,-0.1619625985622406,0.0,0.0,0.9413212537765504,-0.7332432866096497
-0.3665578365325928,0.2024968415498733,0.3426292538642883,-0.671848475933075,-1.0546295642852783,-0.1408481746912002,0.0,0.0,0.9849967956542968,-0.3008885383605957
-0.3623263835906982,0.1875064522027969,0.4269620478153229,-0.6707543134689331,-1.0622949600219729,-0.1533083170652389,0.0,0.0,0.995276927947998,-0.4083645343780517
-0.3573111593723297,0.172283723950386,0.505312979221344,-0.6811370253562927,-1.070028305053711,-0.1546671390533447,0.0,0.0,0.9981012344360352,-0.4817507863044739
-0.3517988324165344,0.1567140370607376,0.5551696419715881,-0.6968281269073486,-1.0781819820404053,-0.1630730032920837,0.0,0.0,0.9981563091278076,-0.7848116159439087
-0.3457100987434387,0.1407976001501083,0.6120207905769348,-0.7113287448883057,-1.084784746170044,-0.132056176662445,1.0,0.0,0.0929427146911621,-0.3316091895103454
-0.3383821547031402,0.1352196782827377,0.7543403506278992,-0.298138290643692,-1.1250977516174316,-0.7561718225479126,1.0,0.0,-0.8571426272392273,-0.620475709438324
-0.3307715356349945,0.1299484521150589,0.7706377506256104,-0.2480690032243728,-1.1473948955535889,-0.4456777572631836,1.0,0.0,-0.5027574300765991,-0.766788125038147
-0.3229298591613769,0.1254273205995559,0.7867071628570557,-0.205078437924385,-1.1528984308242798,-0.108665645122528,1.0,0.0,0.72948157787323,-0.9287992715835572
-0.3141613006591797,0.1217559874057769,0.8728446960449219,-0.1572354137897491,-1.1431865692138672,0.1943243592977523,1.0,0.0,0.9701733589172364,-0.9888182282447816
-0.304546058177948,0.1182133257389068,0.9541391134262084,-0.1468454450368881,-1.1259207725524902,0.3452610373497009,1.0,0.0,0.9892982244491576,-0.9924423098564148
-0.2945823669433594,0.1142312139272689,0.9881402850151062,-0.1657266169786453,-1.1073637008666992,0.37116339802742,1.0,0.0,0.9888644218444824,-0.9937673807144164
-0.2841385304927826,0.1102422326803207,1.0348787307739258,-0.164904847741127,-1.0867518186569214,0.4122517704963684,0.0,0.0,0.9844869375228882,-0.9262089729309082
-0.2726255059242248,0.1063215583562851,1.140526294708252,-0.160921961069107,-1.064321994781494,0.4486122131347656,0.0,0.0,0.9961338043212892,-0.8642733097076416
-0.260430634021759,0.1024231985211372,1.2075374126434326,-0.1592674255371093,-1.0404622554779053,0.4772138595581054,0.0,0.0,0.997834324836731,-0.9395426511764526
-0.2473917454481125,0.0989614352583885,1.2906863689422607,-0.1392472684383392,-1.0151950120925903,0.5053632855415344,0.0,0.0,0.9988468885421752,-0.9652003645896912
-0.2334801256656646,0.0955126881599426,1.3763716220855713,-0.1378356367349624,-0.9880493879318236,0.5429332852363586,0.0,0.0,0.9995036125183104,-0.9676213264465332
-0.2187547236680984,0.0923966765403747,1.4562032222747805,-0.1224336251616478,-0.9593028426170348,0.5749534368515015,0.0,0.0,0.9997034072875975,-0.9345097541809082
-0.2032548487186432,0.0896860659122467,1.5320913791656494,-0.1039496436715126,-0.9291136264801024,0.603806734085083,0.0,0.0,0.9998586177825928,-0.9844282865524292
-0.1872048377990722,0.0870445594191551,1.5853121280670166,-0.1003679484128952,-0.897258460521698,0.6371267437934875,0.0,0.0,0.9998751878738404,-0.982564389705658
-0.1705944985151291,0.0847562402486801,1.639581322669983,-0.0843377262353897,-0.86393141746521,0.6665676832199097,0.0,0.0,0.9998528957366944,-0.9932565093040466
-0.1535476744174957,0.0828022360801696,1.681414008140564,-0.0692591741681099,-0.8291890621185303,0.69487464427948,0.0,0.0,0.9999592304229736,-0.991028606891632
-0.1356753408908844,0.0810639485716819,1.7617127895355225,-0.0593040250241756,-0.7925428152084351,0.732953667640686,0.0,0.0,0.999983549118042,-0.999287247657776
-0.1173479110002517,0.0791888311505317,1.804936766624451,-0.0651808455586433,-0.7540931701660156,0.7690222859382629,0.0,0.0,0.9999938011169434,-0.9990673661231996
-0.0981603637337684,0.0776149854063987,1.8883962631225584,-0.0516413897275924,-0.7136697769165039,0.8084985017776489,0.0,0.0,0.999990463256836,-0.9997056722640992
-0.0782968550920486,0.0766267850995063,1.953650712966919,-0.025763725861907,-0.6716260313987732,0.8409072160720825,0.0,0.0,0.9999947547912598,-0.9999702572822572
-0.0575559623539447,0.0761661604046821,2.038681507110596,-0.0024711405858397,-0.6276342272758484,0.8798696398735046,0.0,0.0,0.999997854232788,-0.9999938011169434
-0.0362428650259971,0.0759481489658355,2.0932371616363525,0.0079231644049286,-0.581857442855835,0.9155718088150024,0.0,0.0,0.9999986886978148,-0.9999988079071044
-0.0143155101686716,0.0764635652303695,2.1521003246307373,0.0399027056992054,-0.5344747304916382,0.9476913213729858,0.0,0.0,0.9999992847442628,-0.999999701976776
0.0082439426332712,0.0776315033435821,2.212591648101806,0.0681464895606041,-0.4853589534759521,0.9823545217514038,0.0,0.0,0.9999995231628418,-0.9999999403953552
0.0312273986637592,0.0789296254515647,2.2522552013397217,0.0730035528540611,-0.4344909489154815,1.0173999071121216,0.0,0.0,0.9999997615814208,-1.0
0.0544466972351074,0.0808224081993103,2.27349853515625,0.0981798395514488,-0.3823216557502746,1.0434274673461914,0.0,0.0,0.9999997615814208,-0.9999999403953552
0.0778044685721397,0.0831437706947326,2.2851059436798096,0.1158112436532974,-0.3288820385932922,1.0688354969024658,0.0,0.0,0.9999997615814208,-1.0
0.1014193519949913,0.0859113037586212,2.308413028717041,0.1340954303741455,-0.2739385664463043,1.0989136695861816,0.0,0.0,0.9999997615814208,-1.0
0.1253039389848709,0.0890556424856185,2.332965850830078,0.1491208374500274,-0.2173885256052017,1.1310464143753052,0.0,0.0,0.9999997615814208,-1.0
0.1495116204023361,0.0922282338142395,2.362739562988281,0.1484815627336502,-0.1589932739734649,1.1679526567459106,0.0,0.0,0.9999997615814208,-1.0
0.1740374565124511,0.0960527062416076,2.392187595367432,0.175305500626564,-0.0988198965787887,1.2035168409347534,0.0,0.0,0.9999997615814208,-1.0
0.1987484991550445,0.100787341594696,2.408714532852173,0.2133758068084716,-0.0370299965143203,1.235849142074585,0.0,0.0,0.9999992847442628,-1.0
0.2236113548278808,0.1055153906345367,2.421988010406494,0.2104886025190353,0.026481457054615,1.27028226852417,0.0,0.0,0.9999990463256836,-1.0
0.248636245727539,0.110809288918972,2.436469316482544,0.2328142076730728,0.0918125808238983,1.3066779375076294,0.0,0.0,0.9999980926513672,-1.0
