x_pos,y_pos,x_vel,y_vel,angle,ang_vel,leg_1,leg_2,main_booster,lat_booster
-0.0016195296775549,1.4029109477996826,-0.1642933636903762,-0.3559704124927521,0.002086364896968,0.0411799177527427,0.0,0.0,0.2980873729322622,0.839024084704123
-0.0032219886779785,1.394750952720642,-0.1608954221010208,-0.3626646101474762,0.0027289597783237,0.0128537295386195,0.0,0.0,-0.8472634289121248,0.5237617920410336
-0.004865932278335,1.3858730792999268,-0.1639500558376312,-0.394570380449295,0.0022830327507108,-0.0089191067963838,0.0,0.0,0.7142403505561912,0.7197342138226672
-0.0066785812377929,1.37705659866333,-0.1791909784078598,-0.3918439447879791,0.0002405453560641,-0.0408539846539497,0.0,0.0,0.7903016077106395,0.5334196625635093
-0.0083869937807321,1.3685879707336426,-0.1682489961385727,-0.3763835728168487,-0.0023116895463317,-0.0510495789349079,0.0,0.0,-0.8644351365498413,0.5920021551844539
-0.0101212505251169,1.3594045639038086,-0.1694613993167877,-0.4081586301326751,-0.0062392666004598,-0.0785587057471275,0.0,0.0,0.1477600482580663,0.7665287544950754
-0.0118905063718557,1.350109338760376,-0.1714279353618621,-0.4131541550159454,-0.0116770174354314,-0.1087650060653686,0.0,0.0,-0.5214731662837038,-0.5436970973165195
-0.013768196105957,1.3401026725769043,-0.1830775439739227,-0.4447792172431946,-0.0163174998015165,-0.0928182750940322,0.0,0.0,-0.113260108036822,0.9543427190963492
-0.0156445503234863,1.3293914794921875,-0.1810216158628463,-0.4761380851268768,-0.0228620916604995,-0.1309037208557129,0.0,0.0,0.8572558754819515,-0.6336465005347478
-0.0176214221864938,1.319197416305542,-0.1922428458929062,-0.4531649947166443,-0.0282415207475423,-0.1075986176729202,0.0,0.0,-0.4221184589550786,-0.7342763043688346
-0.0197117812931537,1.308292269706726,-0.2047367542982101,-0.4847572445869446,-0.0325006283819675,-0.0851895660161972,0.0,0.0,0.8495857439475121,-0.7564509345807386
-0.0218159668147563,1.2975575923919678,-0.2076635807752609,-0.477159321308136,-0.0352242290973663,-0.054477073252201,0.0,0.0,0.9439424257723272,0.502167545465921
-0.0237443931400775,1.28733491897583,-0.189395859837532,-0.454423725605011,-0.0386329367756843,-0.0681807026267051,0.0,0.0,-0.8483960122499314,0.911730254451266
-0.0256423950195312,1.27638578414917,-0.1840888559818267,-0.4867881834506988,-0.0442909859120845,-0.1131712049245834,0.0,0.0,0.881243534514017,-0.776651989061339
-0.0274291038513183,1.2661305665969849,-0.17464579641819,-0.4559082388877868,-0.0482753254473209,-0.0796942263841629,0.0,0.0,0.1097058068659517,-0.8054050605179631
-0.0292235370725393,1.255449891090393,-0.1767806410789489,-0.4747825264930725,-0.0509067066013813,-0.0526322647929191,0.0,0.0,0.4382908441106836,-0.5587145155987172
-0.0309268943965435,1.2451715469360352,-0.1687670350074768,-0.4568719565868377,-0.0524475984275341,-0.0308210253715515,0.0,0.0,-0.0467462464231931,-0.6872133243804563
-0.032698631286621,1.2341768741607666,-0.1763057261705398,-0.4886790215969085,-0.0533070974051952,-0.0171915758401155,0.0,0.0,-0.1990570052081612,-0.9223965365668768
-0.0345518104732036,1.222482442855835,-0.1856161206960678,-0.5197380781173706,-0.0530158653855323,0.0058251256123185,0.0,0.0,-0.908632077320436,0.5065609526271009
-0.0363850593566894,1.2100718021392822,-0.1823096573352813,-0.5516248941421509,-0.0540127716958522,-0.0199399180710315,0.0,0.0,0.3743871965724479,-0.8755899773884182
-0.0381407737731933,1.1978867053985596,-0.1760121285915374,-0.5415428876876831,-0.0535821691155433,0.0086128944531083,0.0,0.0,-0.1698109752230114,0.5674499081902473
-0.0398528091609478,1.1849812269210815,-0.1700019389390945,-0.5736199617385864,-0.054770041257143,-0.0237595029175281,0.0,0.0,0.643354799369414,-0.7881463295214162
-0.0414504036307334,1.1721659898757937,-0.1599102169275283,-0.5695618987083435,-0.0546167939901351,0.0030651881825178,0.0,0.0,0.1583702451963948,0.880576355483444
-0.0428988449275493,1.158944845199585,-0.1427227258682251,-0.5876810550689697,-0.0567065589129924,-0.041799284517765,0.0,0.0,0.308786165524995,-0.5926955152382141
-0.0444707870483398,1.1457903385162354,-0.1554950773715973,-0.5847169160842896,-0.0583919957280159,-0.0337119251489639,0.0,0.0,-0.0712085696933917,-0.828020472704319
-0.0461009033024311,1.131912350654602,-0.162808746099472,-0.6168023347854614,-0.058583203703165,-0.0038241769652813,0.0,0.0,0.5583579906016938,0.6355576184488667
-0.0476064682006835,1.1183465719223022,-0.1485159993171692,-0.6030060052871704,-0.0606020577251911,-0.0403770096600055,0.0,0.0,-0.7250351228523437,-0.8321625032032558
-0.0491555221378803,1.10408353805542,-0.1543159782886505,-0.6339382529258728,-0.0611927919089794,-0.0118143670260906,0.0,0.0,0.9426496249520326,-0.692787219804188
-0.0508264526724815,1.0904967784881592,-0.1668649017810821,-0.6038619875907898,-0.0614202357828617,-0.0045489012263715,0.0,0.0,-0.2691360943432583,0.6307139548414535
-0.0524018295109272,1.0761902332305908,-0.1554511487483978,-0.6359362006187439,-0.0634811148047447,-0.0412175506353378,0.0,0.0,-0.6964331723492592,0.8875210492242045
-0.0538514144718647,1.061173677444458,-0.1403894424438476,-0.6675985455513,-0.067996896803379,-0.0903158038854599,0.0,0.0,-0.8342508673667908,-0.9269517064094543
-0.0553255081176757,1.0454473495483398,-0.1442959606647491,-0.6990912556648254,-0.0710789039731025,-0.0616402626037597,0.0,0.0,-0.8520087599754333,-0.8632880449295044
-0.0568134300410747,1.029024600982666,-0.1469825059175491,-0.729993462562561,-0.0728654265403747,-0.0357302911579608,0.0,0.0,-0.5479055047035217,-0.8574565052986145
-0.0583084113895893,1.0118889808654783,-0.148928016424179,-0.7616044282913208,-0.0734384581446647,-0.0114605315029621,0.0,0.0,0.799026608467102,-0.4766240119934082
-0.0596631988883018,0.995060384273529,-0.1342905163764953,-0.7479997873306274,-0.0746129229664802,-0.0234890580177307,0.0,0.0,0.726008415222168,-0.6124194264411926
-0.0609100349247455,0.9787084460258484,-0.124079093337059,-0.7267853021621704,-0.0752087756991386,-0.0119175240397453,0.0,0.0,-0.0048067569732666,-0.2601296901702881
-0.0620760917663574,0.9616434574127196,-0.1153034940361976,-0.758508026599884,-0.0765069425106048,-0.0259630344808101,0.0,0.0,0.7493852376937866,-0.6768701076507568
-0.0631057769060134,0.945077419281006,-0.1024075150489807,-0.7362986207008362,-0.0770651847124099,-0.0111645273864269,0.0,0.0,0.6006602048873901,-0.7391473650932312
-0.0640845298767089,0.9290391206741332,-0.0979906022548675,-0.7128084301948547,-0.0769477561116218,0.0023484996054321,0.0,0.0,0.0252598524093627,-0.5659533143043518
-0.0649682059884071,0.9128557443618774,-0.0889253094792366,-0.7192369103431702,-0.07640041410923,0.0109468083828687,0.0,0.0,-0.0334646105766296,-0.0344457626342773
-0.0657579451799392,0.8959592580795288,-0.078787088394165,-0.7509599328041077,-0.0765852779150009,-0.0036972619127482,0.0,0.0,0.6295274496078491,-0.3160504698753357
-0.0662899985909462,0.8791082501411438,-0.052846223115921,-0.7489534020423889,-0.0769453421235084,-0.0072010210715234,0.0,0.0,-0.4247981309890747,-0.2484351992607116
-0.0667227730154991,0.8615443110466003,-0.0421663261950016,-0.780676543712616,-0.0780491977930069,-0.022076841443777,0.0,0.0,0.3397216796875,-0.7997512817382812
-0.0669930428266525,0.843903660774231,-0.0268724355846643,-0.7840362191200256,-0.0781997591257095,-0.0030112066306173,0.0,0.0,-0.1898918151855468,-0.9472611546516418
-0.067239761352539,0.8255483508110046,-0.0258000884205102,-0.8157342672348022,-0.0770930051803588,0.0221351236104965,0.0,0.0,0.3135690689086914,-0.476795494556427
-0.0673238784074783,0.8068732619285583,-0.0089381430298089,-0.82997727394104,-0.0765750706195831,0.0103589110076427,0.0,0.0,0.2159701585769653,-0.2712221145629883
-0.0672305077314376,0.787972092628479,0.0093763545155525,-0.8400557041168213,-0.0766110867261886,-0.0007203323184512,0.0,0.0,0.151992917060852,-0.3127690553665161
-0.0670615211129188,0.7692365050315857,0.0180814061313867,-0.8327533006668091,-0.0777748376131057,-0.0232748910784721,0.0,0.0,0.1969951391220092,-0.7906620502471924
-0.0669088363647461,0.7506690621376038,0.015728211030364,-0.8252438306808472,-0.0782280340790748,-0.0090640233829617,0.0,0.0,-0.2565282583236694,-0.6839025616645813
-0.0666997879743576,0.7313933372497559,0.0207118745893239,-0.856688380241394,-0.0780429989099502,0.003700703382492,0.0,0.0,-0.021409273147583,0.0720692873001098
-0.0663772597908973,0.7114048004150391,0.0328452512621879,-0.8884117007255554,-0.0786317512392997,-0.0117751359939575,0.0,0.0,-0.2186061143875122,0.0642070770263671
-0.0659400969743728,0.6907033324241638,0.045098889619112,-0.9201352000236512,-0.0799966230988502,-0.0272972472012043,0.0,0.0,0.6473876237869263,-0.740200400352478
-0.0652910247445106,0.6699405908584595,0.0653448402881622,-0.9228162169456482,-0.0804299414157867,-0.0086662815883755,0.0,0.0,0.3676832914352417,-0.6843785047531128
-0.0645227432250976,0.6494647860527039,0.0766639485955238,-0.9100306034088136,-0.0802733153104782,0.0031325258314609,0.0,0.0,0.4464828968048095,-0.5842646956443787
-0.0635073632001876,0.6289006471633911,0.1006749421358108,-0.9139161705970764,-0.0794196873903274,0.0170727930963039,0.0,0.0,0.5486819744110107,-0.9209008812904358
-0.0625121146440506,0.6083006262779236,0.0977267324924469,-0.915456235408783,-0.0776392966508865,0.035607736557722,0.0,0.0,0.797344446182251,-0.481567919254303
-0.0612284652888774,0.5882726907730103,0.1268902122974395,-0.8900556564331055,-0.0761700421571731,0.0293847806751728,0.0,0.0,0.6262087821960449,-0.9741268754005432
-0.0596978180110454,0.5685201287269592,0.1502260118722915,-0.8777536153793335,-0.0733612403273582,0.0561758689582347,0.0,0.0,0.8354425430297852,-0.9292556047439576
-0.0579605102539062,0.5494305491447449,0.1696601212024688,-0.8482301235198975,-0.0693312436342239,0.0805998668074607,0.0,0.0,0.4321330785751343,-0.9506277441978456
-0.0562047958374023,0.5306715369224548,0.1704422384500503,-0.8335039019584656,-0.0642592757940292,0.1014391332864761,0.0,0.0,0.0072442293167114,-0.9303111433982848
-0.0543493255972862,0.5115333795547485,0.1793532520532608,-0.8503324389457703,-0.0581375360488891,0.122434951364994,0.0,0.0,0.9220399856567384,-0.9161742329597472
-0.0525250434875488,0.4929270148277282,0.1754308193922042,-0.8266956210136414,-0.051214974373579,0.1384510099887848,0.0,0.0,0.8020522594451904,-0.8486586809158325
-0.0504681579768657,0.4744449555873871,0.1975007802248001,-0.8211687803268433,-0.0431150235235691,0.1619991064071655,0.0,0.0,0.8904685974121094,-0.7750263810157776
-0.0482897758483886,0.4563049077987671,0.2088031321763992,-0.8059912919998169,-0.0341963768005371,0.1783729940652847,0.0,0.0,0.6701021194458008,-0.816856861114502
-0.0460302345454692,0.4380569458007812,0.2160582840442657,-0.8108235597610474,-0.0244257450103759,0.1954123377799987,0.0,0.0,0.7725956439971924,-0.9763818979263306
-0.0438574776053428,0.4200566112995147,0.2064329087734222,-0.7998687624931335,-0.0137157402932643,0.2142001092433929,0.0,0.0,0.9389383792877196,-0.4568552374839782
-0.0415216460824012,0.4028501510620117,0.2234079092741012,-0.7646679282188416,-0.0036759928334504,0.2007950246334076,0.0,0.0,0.727961540222168,-0.2856873273849487
-0.0389746651053428,0.3853896856307983,0.2449245452880859,-0.7760239243507385,0.0059748510830104,0.193016916513443,0.0,0.0,0.8666892051696777,-0.8436034321784973
-0.0363421440124511,0.3686731457710266,0.2525033354759216,-0.7430341839790344,0.0165837220847606,0.2121773660182953,0.0,0.0,0.880786657333374,-0.5787431001663208
-0.0337538719177246,0.3520458936691284,0.2480277717113495,-0.7391397953033447,0.0272437315434217,0.2132004201412201,0.0,0.0,0.8570737838745117,-0.8156938552856445
-0.0312391277402639,0.3358436822891235,0.24007248878479,-0.7203405499458313,0.0385126285254955,0.2253779619932174,0.0,0.0,0.9147098064422609,-0.2048984766006469
-0.0285912510007619,0.3200121521949768,0.2539980709552765,-0.7039310932159424,0.0491648502647876,0.2130444496870041,0.0,0.0,0.9203624725341796,-0.64994215965271
-0.0260786060243845,0.3049303293228149,0.2403945177793502,-0.6706931591033936,0.0599129796028137,0.2149626314640045,0.0,0.0,0.894655704498291,-0.3012649416923523
-0.0233961101621389,0.2901349067687988,0.2577826678752899,-0.6580264568328857,0.0702727138996124,0.2071944922208786,0.0,0.0,0.9713599681854248,-0.7916749119758606
-0.0207265857607126,0.2753074467182159,0.2557765245437622,-0.659557580947876,0.0813362970948219,0.2212716341018676,0.0,0.0,0.9830074310302734,0.0554838180541992
-0.0178817752748727,0.2603603899478912,0.2737182378768921,-0.6649343371391296,0.0920034721493721,0.2133434265851974,0.0,0.0,0.9863576889038086,-0.5929059386253357
-0.0150352474302053,0.2452919632196426,0.2735953032970428,-0.6704279780387878,0.1029689535498619,0.2193098366260528,0.0,0.0,0.992843508720398,-0.3616237640380859
-0.0121711734682321,0.230936199426651,0.2761794924736023,-0.6387684941291809,0.1131188720464706,0.2029985934495926,0.0,0.0,0.9962279796600342,-0.1827684044837951
-0.009196376428008,0.217352420091629,0.2875933945178985,-0.6045024394989014,0.1229501888155937,0.1966263949871063,0.0,0.0,0.970245361328125,-0.6178523302078247
-0.0064059258438646,0.2044769674539566,0.2690913081169128,-0.5730947852134705,0.1328602582216262,0.19820137321949,0.0,0.0,0.9866715669631958,-0.2430736422538757
-0.0036963461898267,0.1914488673210144,0.2625020146369934,-0.5798034071922302,0.1412912905216217,0.1686206758022308,0.0,0.0,0.971222162246704,-0.8400594592094421
-0.0010077476035803,0.1791118532419204,0.2593750357627868,-0.5492369532585144,0.1507522165775299,0.1892185360193252,0.0,0.0,0.9733692407608032,-0.6479751467704773
0.0015250205760821,0.167039543390274,0.2436024695634842,-0.5375556349754333,0.1604159325361251,0.1932746469974517,0.0,0.0,0.9643125534057616,-0.4739346504211426
0.0039909360930323,0.1554307341575622,0.2379842698574066,-0.5168963670730591,0.1690308302640915,0.172298327088356,0.0,0.0,0.9359176158905028,-0.1394047737121582
0.0064314841292798,0.1443156599998474,0.2362667620182037,-0.4949129223823547,0.1768381893634796,0.1561474204063415,0.0,0.0,0.9228715896606444,-0.75048828125
0.0089294435456395,0.133499413728714,0.2409793138504028,-0.4817934036254883,0.1856638640165329,0.1765138357877731,0.0,0.0,0.9653964042663574,-0.6749914884567261
0.0114564895629882,0.1225562170147895,0.2432279288768768,-0.4875783920288086,0.1951929926872253,0.1905826181173324,0.0,0.0,0.973463535308838,-0.7686026692390442
0.0140755651518702,0.1116183847188949,0.2513633370399475,-0.4875522255897522,0.205817699432373,0.2124942243099212,0.0,0.0,0.9953320026397704,-0.3535235524177551
0.016853904351592,0.1010335311293602,0.2672054767608642,-0.4719519913196563,0.2165437787771225,0.2145220041275024,0.0,0.0,0.9536341428756714,-0.7241452932357788
0.0197771079838275,0.0904514640569686,0.2805576622486114,-0.4720842540264129,0.228442758321762,0.2379795610904693,0.0,0.0,0.9805731773376464,-0.4173926115036011
0.0226157195866107,0.0804688557982444,0.2728681266307831,-0.4454170167446136,0.2396033257246017,0.2232111394405365,0.0,0.0,0.9557764530181884,-0.6150054335594177
0.0253573413938283,0.0710816979408264,0.2625692188739776,-0.4191400408744812,0.2514073252677917,0.2360791712999344,0.0,0.0,0.902616024017334,-0.3344792127609253
0.02817277982831,0.0621500127017498,0.270006000995636,-0.3989841341972351,0.2631832063198089,0.2355168610811233,0.0,0.0,0.9114665985107422,-0.4201778173446655
0.0311284065246582,0.0530965887010097,0.2842071652412414,-0.4044581353664398,0.2748158276081085,0.2326522767543792,0.0,0.0,0.9713482856750488,-0.2101668119430542
0.0339845642447471,0.0441804267466068,0.2752348184585571,-0.3982642889022827,0.2854844629764557,0.2133727520704269,0.0,0.0,0.990131378173828,-0.5011005401611328
0.0367379188537597,0.0360798686742782,0.2643206119537353,-0.3622167706489563,0.2968287169933319,0.2268852442502975,0.0,0.0,0.9866766929626464,-0.2049365043640136
0.0393898002803325,0.0282341577112674,0.2549700140953064,-0.3508199453353882,0.3073890805244446,0.2112070322036743,0.0,1.0,0.9997920989990234,0.8478829860687256
0.041656494140625,0.0220841020345687,0.2339993417263031,-0.272489994764328,0.2978371381759643,-0.1939029395580291,0.0,1.0,0.9999879598617554,0.2565016746520996
0.0436350814998149,0.017219791188836,0.2248550951480865,-0.210932046175003,0.2700349390506744,-0.5560805201530457,0.0,1.0,0.999579668045044,-0.9642360806465148
0.0451233871281147,0.0135847190394997,0.19083271920681,-0.1544182747602462,0.2271369993686676,-0.8581035733222961,0.0,1.0,0.9915083646774292,-0.9478474855422974
0.0461674705147743,0.0108756879344582,0.1541928350925445,-0.1135453656315803,0.1768223345279693,-1.006448745727539,0.0,1.0,0.9727482795715332,-0.9884448647499084
0.0469950661063194,0.0083423228934407,0.1313210874795913,-0.1075592711567878,0.1282048374414444,-0.972480297088623,0.0,1.0,0.9651088714599608,-0.9496176838874816
0.0475275032222271,0.0061134435236454,0.0991310402750969,-0.0957635268568992,0.0826097354292869,-0.911939799785614,0.0,1.0,0.925041675567627,-0.9854649901390076
0.0477371215820312,0.0040741418488323,0.0653608664870262,-0.0887800380587577,0.0386737026274204,-0.8787565231323242,0.0,0.0,0.2186149358749389,-0.9994657039642334
0.0480645187199115,0.0021474219392985,0.0758309066295623,-0.0850760042667388,-0.0038976990617811,-0.8514634370803833,0.0,0.0,0.6357316970825195,-0.9991798996925354
0.0485089309513568,7.017612369963899e-05,0.0860762149095535,-0.0929514318704605,-0.0450280085206031,-0.8226399421691895,1.0,0.0,0.8145642280578613,-0.8673084378242493
0.0491669662296772,-0.0008450293680652,0.0901903361082077,-0.0419430136680603,-0.0676005631685257,-0.4494740068912506,1.0,0.0,0.3055323362350464,-0.6788244843482971
0.0499313361942768,-0.0008731746929697,0.0785721540451049,-0.0013567511923611,-0.0696797743439674,-0.0415348559617996,1.0,0.0,-0.5808855295181274,-0.8779430389404297
0.0507384315133094,-0.0010528826387599,0.0659138262271881,-0.0073649594560265,-0.0550033040344715,0.2935825884342193,1.0,0.0,-0.8574854731559753,-0.6987051367759705
0.0515504851937294,-0.0016176843782886,0.0561193116009235,-0.0243690274655818,-0.0301657784730196,0.4968169629573822,1.0,0.0,-0.5869303941726685,0.1539154052734375
0.0523842796683311,-0.0027895593084394,0.0547533333301544,-0.0517591424286365,-0.0018720168154686,0.5659184455871582,1.0,0.0,-0.0219324827194213,-0.044230580329895
0.0530146583914756,-0.0040928982198238,0.050891239196062,-0.0579848550260067,0.0100492713972926,0.2383225411176681,1.0,1.0,-0.2329115867614746,0.4448126554489136
0.0535277351737022,-0.0052212858572602,0.050156831741333,-0.050184067338705,0.0111552448943257,0.0220846123993396,1.0,1.0,-0.4881325960159302,-0.3611885905265808
0.0539513602852821,-0.0059798504225909,0.0450901500880718,-0.0337046831846237,0.0084793791174888,-0.0535002425312995,1.0,1.0,-0.0957571864128112,-0.7771352529525757
0.0541919693350791,-0.0063151265494525,0.0252201072871685,-0.0149052767083048,0.0073036910034716,-0.0235546082258224,1.0,1.0,-0.6691075563430786,-0.2202429771423339
0.0543201453983783,-0.0062263272702693,0.0146190030500292,0.0039446922019124,0.0055022025480866,-0.0360628552734851,1.0,1.0,-0.7383426427841187,-0.0942898988723754
0.05442476272583,-0.0057984613813459,0.012353403493762,0.0190259534865617,0.0035852044820785,-0.0384026281535625,1.0,1.0,-0.9580232501029968,-0.3487368822097778
0.0545360557734966,-0.0050667189061641,0.0124880839139223,0.0325173176825046,0.0022352496162056,-0.0270219948142766,1.0,1.0,-0.9675323367118835,-0.2720780372619629
0.0546597465872764,-0.0040690088644623,0.0126865161582827,0.044339396059513,0.001903077121824,-0.006662608589977,1.0,1.0,-0.9615898728370668,-0.2391195297241211
0.0547908768057823,-0.0028789662756025,0.0128055568784475,0.0528885163366794,0.0021875707898288,0.0056723728775978,1.0,1.0,-0.9162373542785645,-0.0909430980682373
0.0549229606986045,-0.0015899324789643,0.0128200845792889,0.0572907775640487,0.0025636702775955,0.0075068110600113,1.0,1.0,-0.9104588627815248,-0.0852332115173339
