x_pos,y_pos,x_vel,y_vel,angle,ang_vel,leg_1,leg_2,main_booster,lat_booster
-0.0015057564014568,1.403059005737305,-0.1528897285461425,-0.349387913942337,0.0020726169459521,0.0409075692296028,0.0,0.0,0.0754532984527289,-0.0711081651998821
-0.0029603957664221,1.3951058387756348,-0.1479979753494262,-0.3534754514694214,0.0045833857730031,0.0502204895019531,0.0,0.0,-0.5673951954077907,-0.8459442364886521
-0.0044486047700047,1.3865803480148315,-0.1530150920152664,-0.3789338767528534,0.00873813778162,0.0831028595566749,0.0,0.0,-0.2332960859358437,0.2110334273832146
-0.0059185028076171,1.377489447593689,-0.1515468060970306,-0.4040741920471191,0.0132478829473257,0.0902028530836105,0.0,0.0,-0.6629858719991146,-0.0359858270511993
-0.0073700905777513,1.367833375930786,-0.1500854939222335,-0.4292136430740356,0.0181264206767082,0.0975796580314636,0.0,0.0,0.7748200028727501,-0.2987273901374041
-0.008666324429214,1.3584911823272705,-0.1356593072414398,-0.4152942597866058,0.0240903683006763,0.1192899942398071,0.0,0.0,-0.5658272550477264,-0.0775147637108752
-0.0099442480131983,1.3485838174819946,-0.13421730697155,-0.4404418170452118,0.0304456781595945,0.1271179020404815,0.0,0.0,0.2002016597228657,0.8916311529157456
-0.0110221859067678,1.3388278484344482,-0.1129110604524612,-0.4337133765220642,0.035517506301403,0.101445734500885,0.0,0.0,-0.6458784024028141,-0.7764968563709718
-0.0121440887451171,1.3285118341445925,-0.1193231493234634,-0.4586702585220337,0.0425702854990959,0.1410685181617736,0.0,0.0,0.1527954452067723,0.8759000807708979
-0.0132012367248535,1.318400740623474,-0.1114998012781143,-0.4495647251605987,0.0483058877289295,0.1147223263978958,0.0,0.0,0.5258024171113536,0.9262206508815768
-0.0141035076230764,1.3085591793060305,-0.0947232171893119,-0.4375436902046203,0.0527506582438945,0.0889037922024726,0.0,0.0,0.1160517251328003,-0.3345213670149076
-0.0149585725739598,1.2986911535263062,-0.0906650274991989,-0.4387720227241516,0.0578593835234642,0.1021836251020431,0.0,0.0,-0.1101572558360326,0.9433489286642808
-0.0157052986323833,1.2882707118988037,-0.0779749602079391,-0.4632634818553924,0.0611349716782569,0.065517820417881,0.0,0.0,0.3700039826279548,-0.3312533732650238
-0.0163945201784372,1.2777314186096191,-0.0729574635624885,-0.4685833752155304,0.0651332139968872,0.079972043633461,0.0,0.0,0.6452823066287987,0.7143391459612003
-0.0169097892940044,1.2678837776184082,-0.0549175851047039,-0.4378257691860199,0.0684977918863296,0.0672974064946174,0.0,0.0,-0.3734395128539545,-0.0907129499248209
-0.0174070354551076,1.2574708461761477,-0.0535755455493927,-0.4629750251770019,0.0723256841301918,0.0765646621584892,0.0,0.0,0.0615329338685524,0.3481596906370571
-0.0178376194089651,1.2473251819610596,-0.047811884433031,-0.4511584341526031,0.0770372375845909,0.0942397862672805,0.0,0.0,0.0636971515246149,0.1253614234986538
-0.0181775093078613,1.2369859218597412,-0.0396550446748733,-0.4598250389099121,0.0826510339975357,0.1122859492897987,0.0,0.0,-0.1211870829332111,0.2393073069051995
-0.0184999462217092,1.2260820865631104,-0.0383761450648307,-0.4849690496921539,0.0887414813041687,0.1218199878931045,0.0,0.0,0.7841471004895613,0.4681483843012103
-0.0189457889646291,1.215515375137329,-0.0508014447987079,-0.4700163006782532,0.0949057638645172,0.1232969760894775,0.0,0.0,0.2421504395425577,-0.779581777705785
-0.0193813331425189,1.2052404880523682,-0.0519245751202106,-0.4572069942951202,0.1032238900661468,0.1663775891065597,0.0,0.0,-0.813367627904249,0.9051133850428452
-0.0197270400822162,1.1944077014923096,-0.041583202779293,-0.4819571375846863,0.1101918295025825,0.1393713802099228,0.0,0.0,0.6523256233362451,-0.1409143332828761
-0.0199869163334369,1.1838440895080566,-0.03409169241786,-0.4701116979122162,0.1182554066181182,0.1612861305475235,0.0,0.0,0.7593905508790972,-0.526058403880288
-0.0202319137752056,1.1732125282287598,-0.0343580357730388,-0.4733238220214844,0.1280872374773025,0.1966539919376373,0.0,0.0,0.2568931818895712,-0.6027275557023256
-0.0206891056150198,1.1627156734466553,-0.0570582523941993,-0.467536985874176,0.1394001394510269,0.2262780368328094,0.0,0.0,-0.7684020600687509,0.7298918050184924
-0.0210854522883892,1.1516475677490234,-0.0503721125423908,-0.4929600954055786,0.1501047015190124,0.2140912264585495,0.0,0.0,-0.8687460467577803,0.1714304879383839
-0.0214662551879882,1.1400165557861328,-0.0492927469313144,-0.5181117057800293,0.1613113582134246,0.2241329699754715,0.0,0.0,0.3149680434556814,-0.3152297851231173
-0.0220398902893066,1.1287699937820437,-0.0685813650488853,-0.5011033415794373,0.1725410968065261,0.2245946377515792,0.0,0.0,0.4865900030990731,0.3689825675083978
-0.0228339191526174,1.1179604530334473,-0.0905637666583061,-0.4817622303962707,0.1837338656187057,0.2238555699586868,0.0,0.0,0.1040101870063332,-0.927130374051648
-0.0237608905881643,1.1070411205291748,-0.1061892360448837,-0.4870368540287018,0.1972968280315399,0.2712593674659729,0.0,0.0,0.7034514371063625,-0.3606359369489162
-0.0248260498046875,1.09684956073761,-0.1205673664808273,-0.4548890888690948,0.2114587426185608,0.2832383513450622,0.0,0.0,-0.8076746463775635,0.9865518808364868
-0.0258106235414743,1.0861120223999023,-0.1112608090043068,-0.4791065156459808,0.2244080007076263,0.2589848339557647,0.0,0.0,-0.8792703151702881,0.9983930587768556
-0.0267172809690237,1.0748441219329834,-0.1022202223539352,-0.5025895833969116,0.2361270636320114,0.2343810796737671,0.0,0.0,-0.8508811593055725,0.9510054588317872
-0.0275445934385061,1.063029408454895,-0.0930883884429931,-0.5268028378486633,0.2466520071029663,0.2104987353086471,0.0,0.0,-0.8563377857208252,0.990532398223877
-0.0282822605222463,1.0506832599639893,-0.0825892463326454,-0.5502243041992188,0.2556357085704803,0.1796737611293792,0.0,0.0,-0.9498932957649232,0.959753155708313
-0.0289341919124126,1.0378105640411377,-0.072529412806034,-0.573412299156189,0.2631300389766693,0.1498874723911285,0.0,0.0,-0.9598544836044312,0.9781427383422852
-0.0295027736574411,1.0243988037109375,-0.0628501251339912,-0.5971673727035522,0.2692528367042541,0.1224562376737594,0.0,0.0,-0.9064197540283204,0.9866983890533448
-0.029982566833496,1.010464072227478,-0.0523786731064319,-0.6201438903808594,0.2737617790699005,0.0901785641908645,0.0,0.0,-0.9252901673316956,0.9634056091308594
-0.0303859710693359,0.9960047602653505,-0.043461836874485,-0.6432225108146667,0.2769544720649719,0.0638546794652938,0.0,0.0,-0.9236484169960022,0.9967846870422364
-0.0307012554258108,0.9810167551040648,-0.0330816730856895,-0.6664268970489502,0.2785496115684509,0.0319025591015815,0.0,0.0,-0.7518131732940674,0.9901025295257568
-0.0309477802366018,0.9654996991157532,-0.0250896606594324,-0.6897346377372742,0.2790049612522125,0.0091068753972649,0.0,0.0,-0.7204323410987854,0.9924261569976808
-0.0310952179133892,0.9494556784629822,-0.0133337974548339,-0.7127971649169922,0.2775576710700989,-0.0289456360042095,0.0,0.0,-0.7792421579360962,0.9882593154907228
-0.0311462394893169,0.9328747391700744,-0.001946851843968,-0.7363296151161194,0.2743145227432251,-0.0648628026247024,0.0,0.0,-0.0982428789138794,0.9783601760864258
-0.0311039928346872,0.915765106678009,0.009138305671513,-0.7595189809799194,0.2692846059799194,-0.1005990728735923,0.0,0.0,-0.0585075616836547,0.885606050491333
-0.0309911724179983,0.8981080055236816,0.0173083674162626,-0.7836634516716003,0.2631132304668426,-0.1234273537993431,0.0,0.0,0.410729169845581,-0.2381874918937683
-0.0309097282588481,0.8803160190582275,0.013499928638339,-0.7897980809211731,0.2576451897621155,-0.1093605905771255,0.0,0.0,-0.333439826965332,0.4537632465362549
-0.0308238975703716,0.8619607090950012,0.0134244142100214,-0.8149474263191223,0.2526990473270416,-0.0989228561520576,0.0,0.0,0.530098557472229,0.8778923749923706
-0.0309755317866802,0.8441548347473145,-0.0089265275746583,-0.790316641330719,0.2463413476943969,-0.1271539330482483,0.0,0.0,0.2821643352508545,0.9341659545898438
-0.0313192382454872,0.8266667127609253,-0.026703679934144,-0.7759839296340942,0.2385505586862564,-0.1558156460523605,0.0,0.0,0.6527942419052124,0.8305747509002686
-0.0317398086190223,0.8093699812889099,-0.0332204326987266,-0.7673403024673462,0.2295678555965423,-0.1796541959047317,0.0,0.0,0.1827082633972168,0.7422540187835693
-0.0320817939937114,0.792167067527771,-0.0244813691824674,-0.7630932331085205,0.2197283655405044,-0.1967894434928894,0.0,0.0,-0.0657949447631836,0.2365405559539795
-0.0324233993887901,0.7744013667106628,-0.0249407608062028,-0.7882463932037354,0.2104090899229049,-0.1863852739334106,0.0,0.0,0.2710298299789428,0.2807483673095703
-0.032754611223936,0.756600558757782,-0.0247788317501544,-0.7899836301803589,0.2019983232021331,-0.1682154536247253,0.0,0.0,0.0895416736602783,0.5424478054046631
-0.0331487655639648,0.7390279769897461,-0.0305043812841177,-0.7798070311546326,0.1930162757635116,-0.179640918970108,0.0,0.0,0.4790873527526855,0.2012151479721069
-0.0334977135062217,0.7215732932090759,-0.0270796325057744,-0.7747719883918762,0.1851688474416732,-0.1569484919309616,0.0,0.0,0.3795816898345947,0.6066665649414062
-0.0339599624276161,0.7041216492652893,-0.0375353135168552,-0.7745674848556519,0.1764464080333709,-0.1744487285614013,0.0,0.0,0.121397852897644,0.777275562286377
-0.0343885421752929,0.6869482398033142,-0.0331595316529274,-0.7621436715126038,0.1667280793190002,-0.1943658292293548,0.0,0.0,-0.6000779867172241,0.8023232221603394
-0.0347445495426654,0.6692343354225159,-0.0244245268404483,-0.78606778383255,0.1555460393428802,-0.2236408740282058,0.0,0.0,0.0450829267501831,0.7814438343048096
-0.0350714698433876,0.6517646312713623,-0.0204558614641428,-0.7751989960670471,0.1433321833610534,-0.2442770898342132,0.0,0.0,-0.4988650679588318,-0.0772208571434021
-0.0354036316275596,0.6337323188781738,-0.0214681923389434,-0.8003532886505127,0.1316284388303756,-0.2340748608112335,0.0,0.0,0.3674086332321167,0.7157257795333862
-0.0356782898306846,0.6156072020530701,-0.0148583678528666,-0.8044954538345337,0.1190802901983261,-0.2509631216526031,0.0,0.0,0.4819948673248291,0.2941298484802246
-0.0361233726143837,0.5978404879570007,-0.0319708883762359,-0.7886790633201599,0.1066217646002769,-0.249170571565628,0.0,0.0,0.7435775995254517,-0.0695802569389343
-0.0365038886666297,0.580345630645752,-0.0266045369207859,-0.7767708897590637,0.0952693596482276,-0.2270480841398239,0.0,0.0,0.4307754039764404,-0.3884379863739013
-0.0369218811392784,0.5630831122398376,-0.0309470742940902,-0.7665703892707825,0.084511749446392,-0.2151522636413574,0.0,0.0,0.8376805782318115,0.6938502788543701
-0.0373210906982421,0.5459266304969788,-0.0281785186380147,-0.7618886232376099,0.0728929936885833,-0.2323753833770752,0.0,0.0,0.1578961610794067,-0.5112758874893188
-0.0378938689827919,0.5288117527961731,-0.0468703545629978,-0.7601833939552307,0.0625943467020988,-0.2059732675552368,0.0,0.0,0.3907783031463623,0.8620107173919678
-0.0384324081242084,0.5122302770614624,-0.042214922606945,-0.7365090250968933,0.0510903485119342,-0.2300800532102584,0.0,0.0,0.3184444904327392,0.4089293479919433
-0.0389266014099121,0.4954397678375244,-0.0385753512382507,-0.7459071278572083,0.0403761379420757,-0.2142843902111053,0.0,0.0,0.7708369493484497,-0.4045325517654419
-0.0394383445382118,0.4794585406780243,-0.0409482829272747,-0.7100284099578857,0.0302784964442253,-0.2019528895616531,0.0,0.0,-0.0304861664772033,-0.2205813527107238
-0.0399600975215435,0.462913304567337,-0.0424243286252021,-0.7351740002632141,0.0206590760499238,-0.1923887431621551,0.0,0.0,0.927576780319214,-0.1896907091140747
-0.0406154617667198,0.4469852745532989,-0.0557710118591785,-0.7078028917312622,0.01101740822196,-0.1928334981203079,0.0,0.0,0.4507502317428589,0.2397282123565673
-0.0412604324519634,0.4313132464885711,-0.0553340800106525,-0.69649738073349,0.0019689369946718,-0.1809692084789276,0.0,0.0,-0.3225219249725342,-0.096812903881073
-0.0419164672493934,0.4150766432285309,-0.056898795068264,-0.7216402292251587,-0.0066166534088552,-0.1717117726802826,0.0,0.0,0.8209121227264404,0.1490319967269897
-0.0424984917044639,0.3992291688919067,-0.0503467097878456,-0.7043859362602234,-0.0143706640228629,-0.1550801247358322,0.0,0.0,0.9615060091018676,-0.4640365839004516
-0.0431253425776958,0.3835141360759735,-0.0551062449812889,-0.6985379457473755,-0.0218590795993804,-0.149768128991127,0.0,0.0,0.8690420389175415,-0.4786713719367981
-0.0436791405081748,0.3677830100059509,-0.0486051365733146,-0.6992741227149963,-0.0285474527627229,-0.1337676048278808,0.0,0.0,0.9814659357070924,0.2299388647079467
-0.0442712791264057,0.3520987331867218,-0.0527069754898548,-0.6972157955169678,-0.0349739603698253,-0.1285300552845001,0.0,0.0,0.8469146490097046,-0.443092942237854
-0.0448541641235351,0.3371790051460266,-0.0521669387817382,-0.6632553935050964,-0.0410140193998813,-0.1208011731505394,0.0,0.0,0.9423480033874512,0.2513970136642456
-0.0453162193298339,0.3231254518032074,-0.0409587286412715,-0.6247537732124329,-0.0461969561874866,-0.1036590561270713,0.0,0.0,0.8900866508483887,-0.6106054782867432
-0.0459332466125488,0.3099264800548553,-0.0577312000095844,-0.5867494344711304,-0.0501179099082946,-0.0784191489219665,0.0,0.0,0.8342916965484619,-0.1981227993965149
-0.0466882698237896,0.2967236340045929,-0.0712803825736045,-0.5869420170783997,-0.0542984791100025,-0.0836113765835762,0.0,0.0,0.9002282619476318,-0.2528839707374573
-0.0473609939217567,0.2843130826950073,-0.0636572837829589,-0.5517134070396423,-0.057868842035532,-0.0714072734117508,0.0,0.0,0.8076293468475342,-0.6666236519813538
-0.0481829643249511,0.2722946405410766,-0.0800246447324752,-0.5342375040054321,-0.0600160434842109,-0.0429440215229988,0.0,0.0,0.383373498916626,-0.6158429384231567
-0.0490833297371864,0.26057168841362,-0.0893870815634727,-0.5210464596748352,-0.0606617853045463,-0.0129146855324506,0.0,0.0,-0.0542656183242797,0.8490151166915894
-0.0499317161738872,0.2482813000679016,-0.0828827768564224,-0.546322226524353,-0.0625976398587226,-0.0387170612812042,0.0,0.0,0.8630166053771973,-0.3396017551422119
-0.0506550781428813,0.2363979667425155,-0.0711924955248832,-0.5281955599784851,-0.0637243837118148,-0.0225350894033908,0.0,0.0,0.7592060565948486,0.3179829120635986
-999.0,0.2244920283555984,-0.0682468563318252,-0.5291820168495178,-0.0643916130065918,-0.0133441984653472,0.0,0.0,0.7516090869903564,0.375401496887207
-0.05192232131958,0.2126497626304626,-0.0579277984797954,-0.5263180136680603,-0.0642730146646499,0.0023719812743365,0.0,0.0,0.9592316150665284,0.2023564577102661
-0.0522974021732807,0.2012385725975036,-0.0387706235051155,-0.5071113705635071,-0.0630289167165756,0.0248821228742599,0.0,0.0,0.190099835395813,0.5828859806060791
-0.0525127425789833,0.189667522907257,-0.0221285484731197,-0.5142431855201721,-0.0624445937573909,0.011686629615724,0.0,0.0,0.6857339143753052,0.5764946937561035
-0.0526557937264442,0.1786787658929824,-0.0140158655121922,-0.4884010255336761,-0.0627304464578628,-0.0057173063978552,0.0,0.0,0.8929812908172607,-0.2640019655227661
-0.0527242645621299,0.1684219986200332,-0.0069964900612831,-0.4558486342430115,-0.0625734776258468,0.0031392842065542,0.0,0.0,0.8661468029022217,-0.1023778319358825
-0.0526205077767372,0.1587143242359161,0.0092914626002311,-0.4314085245132446,-0.0615009665489196,0.0214503090828657,0.0,0.0,0.3362021446228027,-0.293445885181427
-0.0524347312748432,0.1488286405801773,0.0168637298047542,-0.4392941892147064,-0.059800524264574,0.0340086445212364,0.0,0.0,0.327493667602539,0.0782177448272705
-0.0522823333740234,0.1389936506748199,0.0134795997291803,-0.437039315700531,-0.0580594092607498,0.0348223932087421,0.0,0.0,0.4285416603088379,-0.3465320467948913
-0.052029512822628,0.1297038346529007,0.0229585450142622,-0.4127935469150543,-0.0557586774230003,0.0460143014788627,0.0,0.0,0.5218851566314697,-0.4661647081375122
-0.0517849922180175,0.1206353306770324,0.022020187228918,-0.4029560685157776,-0.0533513389527797,0.0481467619538307,0.0,0.0,0.698650598526001,-0.8130001425743103
-0.0517180450260639,0.1122502386569976,0.0026872686576098,-0.3725327849388122,-0.0493916198611259,0.0791944786906242,0.0,0.0,0.6285974979400635,-0.0418769717216491
-0.0515478141605854,0.104323923587799,0.0124335894361138,-0.352133959531784,-0.0448599010705947,0.0906347185373306,0.0,0.0,-0.1113815903663635,-0.4380901455879211
-0.0513941757380962,0.0958323329687118,0.0106125064194202,-0.37727090716362,-0.0401685573160648,0.0938270315527916,0.0,0.0,0.9204965829849244,0.7361998558044434
-0.0512681007385253,0.0880879014730453,0.0094457734376192,-0.3441154360771179,-0.0370408408343791,0.0625540986657142,0.0,0.0,0.4866127967834472,0.8950928449630737
-0.0510969161987304,0.0804441049695015,0.0156611911952495,-0.3396901190280914,-0.0355959795415401,0.0288971420377492,0.0,0.0,0.6593000888824463,0.4541934728622436
-0.0510382652282714,0.0731463506817817,0.0048305308446288,-0.3243189752101898,-0.0345806777477264,0.0203060172498226,0.0,0.0,0.744966983795166,0.8879497051239014
-0.0510839447379112,0.0661158189177513,-0.0036101154983043,-0.3124899864196777,-0.0355289727449417,-0.0189660433679819,0.0,0.0,0.7838481664657593,0.9737712144851683
-0.0509144775569438,0.0596777312457561,0.0195992235094308,-0.2862028479576111,-0.0381441190838813,-0.0523032955825328,0.0,0.0,0.0330134630203247,-0.0905135869979858
-0.0507153496146202,0.0530177690088748,0.0223135892301797,-0.2960628271102905,-0.0405160896480083,-0.0474391877651214,0.0,0.0,0.8157159090042114,-0.6604620814323425
-0.0503801330924034,0.0470467433333396,0.03411565721035,-0.2653955519199371,-0.0411021076142787,-0.0117203695699572,0.0,0.0,-0.0217227935791015,-0.2133611440658569
-0.0500626564025878,0.0405101627111434,0.0322983227670192,-0.2905313074588775,-0.0416526794433593,-0.0110114673152565,0.0,0.0,0.7138245105743408,-0.0550378561019897
-0.0495783798396587,0.0347271785140037,0.0482722148299217,-0.257016122341156,-0.0414980761706829,0.0030920477584004,0.0,0.0,0.3796426057815552,0.2941632270812988
-0.049028493463993,0.0291001182049512,0.05453472584486,-0.2500800788402557,-0.0410427562892437,0.0091062542051076,0.0,0.0,0.1102969646453857,-0.3479266166687011
-0.0484790802001953,0.0237301923334598,0.0545139126479625,-0.2386540472507476,-0.0406181402504444,0.0084924194961786,0.0,0.0,0.424135684967041,0.1128852367401123
-0.0478680618107318,0.0188089460134506,0.0604424960911273,-0.218703344464302,-0.0399738661944866,0.0128857251256704,0.0,0.0,0.3890670537948608,0.3457707166671753
-0.0471924766898155,0.0138958552852272,0.0666276663541793,-0.2183333188295364,-0.0390519350767135,0.0184383057057857,0.0,0.0,0.1682460308074951,0.0865277051925659
-0.046604823321104,0.0090777138248085,0.0582923404872417,-0.2141294479370117,-0.0385790057480335,0.0094583630561828,0.0,0.0,0.538009524345398,0.5169944763183594
-0.0461045280098915,0.004415962845087,0.0509900338947773,-0.2072136849164962,-0.0395300202071666,-0.0190201699733734,0.0,0.0,0.7390210628509521,0.6365604400634766
-0.0454828254878521,0.0007964825490489,0.0453613325953483,-0.1604985296726226,-0.0229549743235111,0.3314579725265503,1.0,0.0,0.8962917327880859,0.066898226737976
-0.0447098724544048,-0.0018764996202662,0.0436652265489101,-0.118623562157154,0.0102569200098514,0.6642711162567139,1.0,1.0,0.9075400829315186,0.6572166681289673
-0.0438425056636333,-0.0038681293372064,0.0712079033255577,-0.0888737216591835,0.0249389391392469,0.2928065061569214,1.0,1.0,0.7349488735198975,0.417729377746582
-0.0430768951773643,-0.0044877910986542,0.0717521980404853,-0.0276322290301322,0.0296638663858175,0.0944776460528373,1.0,1.0,-0.7341761589050293,-0.9314597845077516
-0.0425232872366905,-0.0046740435063838,0.0539198890328407,-0.0083082076162099,0.0310798361897468,0.0283020641654729,1.0,1.0,-0.3265671730041504,-0.6394743919372559
-0.042152214795351,-0.0044215582311153,0.0390359051525592,0.0112556461244821,0.0291655156761407,-0.0383009687066078,1.0,1.0,-0.4331356287002563,-0.4982097744941711
