x_pos,y_pos,x_vel,y_vel,angle,ang_vel,leg_1,leg_2,main_booster,lat_booster
-0.0015267372364178,1.403027057647705,-0.1546128988265991,-0.35080686211586,0.0017296208534389,0.0341159738600254,0.0,0.0,-0.0945965051651001,0.7305518388748169
-0.0029946328140795,1.394556164741516,-0.146852821111679,-0.3764847218990326,0.0017969737527891,0.0013479958288371,0.0,0.0,0.2631518840789795,0.6829705238342285
-0.0042985915206372,1.3859460353851318,-0.1292324364185333,-0.3826716244220733,0.0006505386554636,-0.0229309424757957,0.0,0.0,-0.3792650699615478,0.0609972476959228
-0.0056056976318359,1.3767383098602295,-0.1294905841350555,-0.4092353880405426,-0.0005562322330661,-0.0241375993937253,0.0,0.0,0.4987144470214844,0.8371888399124146
-0.0067187310196459,1.367822766304016,-0.1085533499717712,-0.3962444365024566,-0.0032791919074952,-0.0544646494090557,0.0,0.0,-0.0792783498764038,-0.0891630053520202
-0.0078351022675633,1.3583098649978638,-0.108802817761898,-0.4228085875511169,-0.0060731833800673,-0.0558847300708293,0.0,0.0,0.2572749853134155,0.3248937129974365
-0.0089691160246729,1.3488588333129885,-0.1104180589318275,-0.4200581908226013,-0.0090266978368163,-0.0590759292244911,0.0,0.0,-0.7292187213897705,-0.5261829495429993
-0.010137652978301,1.338812232017517,-0.1145716458559036,-0.4465288519859314,-0.011279278434813,-0.0450556613504886,0.0,0.0,0.4732675552368164,-0.2197407484054565
-0.0113118169829249,1.329287886619568,-0.1149975061416626,-0.4233301877975464,-0.013672768138349,-0.0478743202984333,0.0,0.0,-0.2722346782684326,0.7346136569976807
-0.012431526556611,1.3191691637039185,-0.1079847365617752,-0.4497585892677307,-0.0176145769655704,-0.0788436084985733,0.0,0.0,0.0187519788742065,0.9326618909835817
-0.0134109500795602,1.3090003728866575,-0.0919748991727829,-0.4520315527915954,-0.0235172472894191,-0.1180641278624534,0.0,0.0,0.2191027402877807,-0.3815606832504272
-0.0143323894590139,1.2988170385360718,-0.0863145068287849,-0.4526939690113067,-0.02927952632308,-0.1152561902999877,0.0,0.0,-0.732559859752655,-0.1983460187911987
-0.0152571676298975,1.2880367040634155,-0.0865371450781822,-0.4792557954788208,-0.0351556092500686,-0.1175324544310569,0.0,0.0,-0.6953890323638916,-0.3731590509414673
-0.0161852836608886,1.276659369468689,-0.0867557302117347,-0.5058138370513916,-0.041151076555252,-0.1199201568961143,0.0,0.0,-0.5644859671592712,-0.9105825424194336
-0.0171715728938579,1.264697790145874,-0.0938427671790123,-0.5317661762237549,-0.045886643230915,-0.0947199314832687,0.0,0.0,-0.1432845592498779,-0.8492732644081116
-0.018216323107481,1.252132534980774,-0.1009602323174476,-0.5585593581199646,-0.0493772104382514,-0.069817416369915,0.0,0.0,-0.7051255702972412,-0.9408738017082214
-0.0193216316401958,1.2389854192733765,-0.1083179488778114,-0.5843933820724487,-0.0515633709728717,-0.0437269732356071,0.0,0.0,0.1689903736114502,-0.6359553337097168
-0.0203546527773141,1.2256277799606323,-0.1023997813463211,-0.5937051773071289,-0.0524584874510765,-0.0179038159549236,0.0,0.0,0.1517952680587768,-0.5085729360580444
-0.0213277824223041,1.2125129699707031,-0.0974404215812683,-0.5828731656074524,-0.052339818328619,0.0023735491558909,0.0,0.0,0.1061065196990966,-0.0503539443016052
-0.0223387721925973,1.1993725299835205,-0.1008079424500465,-0.5840300917625427,-0.0526310540735721,-0.0058251349255442,0.0,0.0,-0.6082499027252197,-0.3114869594573974
-0.0233534816652536,1.1856346130371094,-0.1010140553116798,-0.610588788986206,-0.0530849955976009,-0.0090796165168285,0.0,0.0,-0.8362007141113281,-0.5032874941825867
-0.0244111064821481,1.171299695968628,-0.1061121448874473,-0.6370976567268372,-0.0527275279164314,0.0071499249897897,0.0,0.0,0.3628005981445312,-0.067931056022644
-0.0253417007625103,1.157031774520874,-0.0937521159648895,-0.634113609790802,-0.0520476512610912,0.0135988490656018,0.0,0.0,-0.5635048151016235,-0.0849427580833435
-0.0262762065976858,1.1421661376953125,-0.0939463078975677,-0.660676121711731,-0.0515488423407077,0.0099769569933414,0.0,0.0,-0.3195773363113403,-0.3110312223434448
-0.0272143371403217,1.126703143119812,-0.0941334888339042,-0.6872327327728271,-0.051236268132925,0.0062521891668438,0.0,0.0,-0.0770842432975769,-0.2628135681152344
-0.0281570442020893,1.1106213331222534,-0.0943873524665832,-0.7147427797317505,-0.051115546375513,0.0024142798501998,0.0,0.0,0.173878788948059,-0.1893849372863769
-0.0290742870420217,1.0947153568267822,-0.0916645005345344,-0.7069414854049683,-0.0511796027421951,-0.0012814623769372,0.0,0.0,0.502453088760376,-0.743665874004364
-0.0301468856632709,1.0793585777282717,-0.1082517951726913,-0.6824924349784851,-0.0501937009394168,0.0197178907692432,0.0,0.0,-0.6661450862884521,-0.0624648332595825
-0.0312231071293354,1.063404202461243,-0.1084137111902237,-0.7090481519699097,-0.0494155548512935,0.0155629198998212,0.0,0.0,-0.2656006813049316,-0.3436678647994995
-0.0323030464351177,1.046852707862854,-0.1085691228508949,-0.7356037497520447,-0.048850167542696,0.0113076502457261,0.0,0.0,0.4955924749374389,0.1850041151046753
-0.033332347869873,1.030850887298584,-0.1033604741096496,-0.711178719997406,-0.0484241135418415,0.008521462790668,0.0,0.0,-0.0437440872192382,-0.5367799401283264
-0.0344132408499717,1.0142520666122437,-0.1095236763358116,-0.7376792430877686,-0.0470149368047714,0.028183564543724,0.0,0.0,-0.3141878247261047,-0.1397256851196289
-0.0354979522526264,0.9970559477806092,-0.1096583232283592,-0.7642349600791931,-0.0458326898515224,0.0236448179930448,0.0,0.0,0.7118593454360962,-0.3012251853942871
-0.0366351120173931,0.9798269867897034,-0.1143611669540405,-0.7657105922698975,-0.0451873466372489,0.0129068810492753,0.0,0.0,0.7561072111129761,-0.5204774141311646
-0.0377683639526367,0.9630024433135986,-0.1148409098386764,-0.7477152943611145,-0.0436899662017822,0.0299473945051431,0.0,0.0,-0.3648212552070617,0.1138442754745483
-0.0389051437377929,0.9455805420875548,-0.1149529665708541,-0.7742711305618286,-0.0424323268234729,0.0251529719680547,0.0,0.0,0.6911954879760742,-0.0984038114547729
-0.0400525107979774,0.9282614588737488,-0.115636721253395,-0.7697111368179321,-0.0415426194667816,0.0177942775189876,0.0,0.0,-0.3357477188110351,-0.4859190583229065
-0.0412033088505268,0.910345196723938,-0.1157328337430954,-0.7962667346000671,-0.0409003719687461,0.0128451688215136,0.0,0.0,0.9287409782409668,-0.3332139253616333
-0.042363166809082,0.8933085203170776,-0.1161704659461975,-0.7571796774864197,-0.0407217405736446,0.0035726793576031,0.0,0.0,0.2023564577102661,-0.500623345375061
-0.0435255989432334,0.8763391971588135,-0.117220900952816,-0.754163920879364,-0.039753284305334,0.0193688720464706,0.0,0.0,0.3423550128936767,-0.8711796402931213
-0.0448336601257324,0.8597381114959717,-0.1331947147846222,-0.7377626895904541,-0.0374027080833911,0.0470118708908557,0.0,0.0,0.2600786685943603,0.1077593564987182
-0.0460360534489154,0.8431330323219299,-0.1227971464395523,-0.7379428744316101,-0.0348776802420616,0.0505003407597541,0.0,0.0,0.2091388702392578,0.0583682060241699
-0.0471626296639442,0.8262709975242615,-0.1152769550681114,-0.7493640780448914,-0.0322877652943134,0.0517981275916099,0.0,0.0,-0.348617672920227,0.0956192016601562
-0.0482923500239849,0.808811604976654,-0.1153225526213646,-0.7759199738502502,-0.0299647338688373,0.0464606657624244,0.0,0.0,-0.0412504076957702,0.5983668565750122
-0.0493811592459678,0.7907458543777466,-0.1098354905843734,-0.8029016256332397,-0.0290218759328126,0.0188571009784936,0.0,0.0,0.785683274269104,0.13595712184906
-0.0504128448665142,0.772622287273407,-0.1040837913751602,-0.8054811954498291,-0.0281214695423841,0.0180081985890865,0.0,0.0,0.7324283123016357,0.5620386600494385
-0.0513215065002441,0.754595935344696,-0.0905515477061271,-0.801174521446228,-0.0284311193972826,-0.006192997097969,0.0,0.0,0.4779496192932129,-0.0439276695251464
-0.0523122772574424,0.7370949387550354,-0.0980194583535194,-0.7778435945510864,-0.0294826440513134,-0.0210305415093898,0.0,0.0,0.708594799041748,-0.1739460825920105
-0.0534191131591796,0.7202246189117432,-0.1086888760328292,-0.7498272061347961,-0.0314477309584617,-0.0393016040325164,0.0,0.0,-0.0694221258163452,-0.8758967518806458
-0.054600428789854,0.7027580738067627,-0.1176865845918655,-0.7763065099716187,-0.0318905562162399,-0.0088564222678542,0.0,0.0,0.4615564346313476,0.2328590154647827
-0.0556415542960166,0.6854453086853027,-0.1039711013436317,-0.7694578170776367,-0.0320290215313434,-0.0027692613657563,0.0,0.0,0.4259476661682129,0.1498464345932006
-0.0567146316170692,0.6684908866882324,-0.1066449135541915,-0.7535446286201477,-0.0326817333698272,-0.0130543187260627,0.0,0.0,0.0585204362869262,0.0332342386245727
-0.0577109344303607,0.6513628363609314,-0.0990105718374252,-0.7612665295600891,-0.0332963243126869,-0.0122916381806135,0.0,0.0,0.6364848613739014,0.5043959617614746
-0.0586401931941509,0.6348242163658142,-0.0909952074289321,-0.7350874543190002,-0.035191636532545,-0.0379065871238708,0.0,0.0,-0.3171088099479675,-0.2333567142486572
-0.0595717430114746,0.6176885962486267,-0.0909494310617446,-0.7616433501243591,-0.0373755134642124,-0.043677520006895,0.0,0.0,0.696420431137085,-0.4247113466262817
-0.0605856887996196,0.600686252117157,-0.0984317511320114,-0.7557337284088135,-0.0403029397130012,-0.0585484504699707,0.0,0.0,0.8799575567245483,-0.4283953905105591
-0.0614584907889366,0.5844394564628601,-0.0845255106687545,-0.7221536636352539,-0.0430261977016925,-0.054465364664793,0.0,0.0,-0.1022223830223083,-0.1803608536720276
-0.0623335838317871,0.5675955414772034,-0.0844578891992569,-0.748710036277771,-0.0460410304367542,-0.0602965839207172,0.0,0.0,0.827115535736084,-0.4929345846176147
-0.063086412847042,0.5515130162239075,-0.0723218917846679,-0.7148703932762146,-0.0489659383893013,-0.0584985092282295,0.0,0.0,0.8068020343780518,0.2783989906311035
-0.0638825446367263,0.5361270308494568,-0.0759611576795578,-0.6839465498924255,-0.0525690726935863,-0.0720626637339592,0.0,0.0,0.6928360462188721,-0.6225723624229431
-0.064653493463993,0.5207062363624573,-0.0745532512664794,-0.6854597926139832,-0.0550904422998428,-0.0504272580146789,0.0,0.0,0.2627240419387817,0.1848084926605224
-0.0654735565185546,0.5054975748062134,-0.0787998288869857,-0.6760624051094055,-0.0582600645720958,-0.0633925050497055,0.0,0.0,-0.1431654095649719,0.1923339366912841
-0.0662956237792968,0.4896917641162872,-0.0787004083395004,-0.7026193141937256,-0.061723630875349,-0.0692712515592575,0.0,0.0,0.7768934965133667,0.0364149808883667
-0.0670536011457443,0.4742735028266907,-0.0721155554056167,-0.6854107975959778,-0.0653639733791351,-0.0728070437908172,0.0,0.0,0.6907143592834473,-0.5504646897315979
-0.0678216964006424,0.4588715434074402,-0.0739640966057777,-0.6846581697463989,-0.0681806504726409,-0.0563333705067634,0.0,0.0,0.7198760509490967,-0.0360565185546875
-0.0686782822012901,0.4438064098358154,-0.0819094404578208,-0.6697357296943665,-0.071887195110321,-0.0741309598088264,0.0,0.0,0.8558640480041504,0.7701283693313599
-0.0693800896406173,0.4295822381973266,-0.0646460577845573,-0.6324609518051147,-0.0773615688085556,-0.1094876304268837,0.0,0.0,0.9073913097381592,0.1568976640701294
-0.0699629783630371,0.4152551889419555,-0.0529051795601844,-0.637044370174408,-0.0826904848217964,-0.1065783873200416,0.0,0.0,0.4770544767379761,-0.6618722677230835
-0.0705098137259483,0.4014830589294433,-0.0503878965973854,-0.6123384237289429,-0.0869383513927459,-0.0849576890468597,0.0,0.0,0.5998861789703369,-0.5367740392684937
-0.0711582154035568,0.3878148794174194,-0.0610796213150024,-0.6076973080635071,-0.0906634107232093,-0.0745013952255249,0.0,0.0,0.3805609941482544,0.3325272798538208
-0.0718333274126052,0.3744055032730102,-0.0631015375256538,-0.5962477326393127,-0.095034010708332,-0.0874120220541954,0.0,0.0,0.4027614593505859,-0.4063488245010376
-0.0724337548017501,0.3611845672130584,-0.0554667189717292,-0.5878952145576477,-0.0995732396841049,-0.0907847732305526,0.0,0.0,0.9591445922851562,-0.3604608178138733
-0.0730880722403526,0.3488843739032745,-0.0598521456122398,-0.5470553636550903,-0.1051073595881462,-0.1106823086738586,0.0,0.0,-0.5720512270927429,-0.8703848123550415
-0.0738039016723632,0.3359969854354858,-0.0672517493367195,-0.5730844736099243,-0.1094042509794235,-0.0859376117587089,0.0,0.0,0.7033276557922363,-0.863544225692749
-0.074583813548088,0.3231245875358581,-0.0750414729118347,-0.5723211765289307,-0.112330712378025,-0.0585292652249336,0.0,0.0,0.8850703239440918,-0.9240809679031372
-0.075311467051506,0.3101963400840759,-0.0715427547693252,-0.5746848583221436,-0.1135500967502594,-0.0243874005973339,0.0,0.0,-0.1689403057098388,-0.4142799377441406
-0.0760405510663986,0.2966710031032562,-0.0713878870010376,-0.6012423038482666,-0.1150507554411888,-0.0300135724246501,0.0,0.0,0.9850475788116456,-0.847503125667572
-0.0767381638288497,0.2839897274971008,-0.0696571916341781,-0.5636205077171326,-0.1151593253016471,-0.0021714528556913,0.0,0.0,0.5367573499679565,-0.7254958152770996
-0.0773247703909874,0.2718449831008911,-0.0598776414990425,-0.5396715998649597,-0.113941952586174,0.0243473555892705,0.0,0.0,0.5302929878234863,-0.2403063178062439
-0.0779295936226844,0.2602491676807403,-0.0609501525759696,-0.5153350830078125,-0.1134794726967811,0.0092497384175658,0.0,0.0,-0.3168113231658935,0.5037362575531006
-0.0785048454999923,0.2480457574129104,-0.0569248087704181,-0.542418360710144,-0.1140794083476066,-0.0119987223297357,0.0,0.0,0.878878116607666,-0.4843368530273437
-0.0789332389831543,0.2365772128105163,-0.0421808846294879,-0.5097647309303284,-0.1147351413965225,-0.0131144989281892,0.0,0.0,0.7233273983001709,-0.6277657747268677
-0.0794566124677658,0.2254341691732406,-0.0523852929472923,-0.4952423274517059,-0.1146810576319694,0.0010815472342073,0.0,0.0,0.0662684440612793,-0.7580943703651428
-0.0800306349992752,0.2143663763999939,-0.0586981549859046,-0.4918030500411987,-0.1133999750018119,0.0256219990551471,0.0,0.0,0.2273671627044677,0.4157342910766601
-0.080555722117424,0.2034771740436554,-0.0534941330552101,-0.4838866293430328,-0.1124169901013374,0.0196595266461372,0.0,0.0,0.3861739635467529,0.3843600749969482
-0.0809541717171669,0.192706286907196,-0.0409213453531265,-0.4786279499530792,-0.1113483533263206,0.0213725958019495,0.0,0.0,0.6359690427780151,0.6608587503433228
-0.081239029765129,0.1818241029977798,-0.0280338432639837,-0.4836868047714233,-0.1117923110723495,-0.0088794361799955,0.0,0.0,0.9145630598068236,-0.464201807975769
-0.0813656821846962,0.1710223108530044,-0.0124785089865326,-0.4800933301448822,-0.1119823530316352,-0.0038005425594747,0.0,0.0,0.8673689365386963,-0.0993050932884216
-0.0812557190656662,0.1605576127767563,0.010652907192707,-0.4650713503360748,-0.1116412356495857,0.0068221441470086,0.0,0.0,0.8662782907485962,-0.7318575382232666
-0.0809848755598068,0.1501354724168777,0.025106992572546,-0.4630604982376098,-0.1096843853592872,0.0391370952129364,0.0,0.0,0.940886378288269,-0.7101970911026001
-0.0806807503104209,0.1404476910829544,0.0272660050541162,-0.4303393363952636,-0.1065527945756912,0.06263168156147,0.0,0.0,0.8317997455596924,-0.7281141877174377
-0.0803073868155479,0.1314261108636856,0.0328473038971424,-0.4006470739841461,-0.102103054523468,0.0889946669340133,0.0,0.0,0.3019798994064331,-0.5126317143440247
-0.0798152908682823,0.1225838959217071,0.0436715632677078,-0.3926181197166443,-0.0966012179851532,0.1100366711616516,0.0,0.0,0.2803561687469482,-0.4693714380264282
-0.0792213454842567,0.1135112345218658,0.053687959909439,-0.4028694331645965,-0.0909440219402313,0.1131441965699195,0.0,0.0,0.6428720951080322,0.0246462821960449
-0.0786336883902549,0.1046053767204284,0.0534878261387348,-0.3955075144767761,-0.085727073252201,0.1043389290571212,0.0,0.0,0.861413836479187,-0.2952334880828857
-0.0778682678937912,0.09654301404953,0.0710271522402763,-0.3580178916454315,-0.0802594423294067,0.109352633357048,0.0,0.0,0.4956110715866089,-0.8967602849006653
-0.0771562606096267,0.0886654704809188,0.0640883967280387,-0.3497513830661773,-0.0732160806655883,0.1408671438694,0.0,0.0,0.6722825765609741,-0.4244475364685058
-0.0765110030770301,0.0814094841480255,0.0581610277295112,-0.3221892118453979,-0.066928282380104,0.125755950808525,0.0,0.0,0.0893481969833374,0.636397123336792
-0.0757203102111816,0.0742368996143341,0.074079543352127,-0.3185653984546661,-0.0619877576828002,0.0988105610013008,0.0,0.0,0.1688582897186279,-0.4071813821792602
-0.0749344825744628,0.0672655180096626,0.0739147737622261,-0.3096548616886139,-0.0573758408427238,0.0922386720776557,0.0,0.0,0.2444026470184326,-0.393930435180664
-0.0741785019636154,0.0605469793081283,0.071366973221302,-0.2984470427036285,-0.0531950592994689,0.0836154669523239,0.0,0.0,0.3850715160369873,0.765944242477417
-0.073363110423088,0.0538509711623191,0.0790183916687965,-0.2975126504898071,-0.0507045276463031,0.0498106777667999,0.0,0.0,0.6246740818023682,-0.4102476239204407
-0.0726321190595626,0.0474523641169071,0.071236565709114,-0.2843225300312042,-0.0488652363419532,0.0367860421538353,0.0,0.0,0.4622321128845215,-0.2830640077590942
-0.0720112770795822,0.0411606170237064,0.0609596297144889,-0.2795981168746948,-0.0477506555616855,0.022291587665677,0.0,0.0,0.7943457365036011,0.8824672698974609
-0.0711556449532508,0.0354318469762802,0.0860822051763534,-0.2546263635158539,-0.0482641123235225,-0.0102692954242229,0.0,0.0,0.3198959827423095,-0.2939941883087158
-0.070236399769783,0.0295437909662723,0.0923004224896431,-0.2617028653621673,-0.0486343838274478,-0.0074056894518435,0.0,0.0,0.8281950950622559,-0.7766779661178589
-0.0691616982221603,0.0243209227919578,0.1059857010841369,-0.2320812046527862,-0.047158382833004,0.0295197628438472,0.0,0.0,0.6686902046203613,-0.2986424565315246
-0.0680723190307617,0.019676623865962,0.1076042801141738,-0.2063719630241394,-0.0458461381494998,0.0262448247522115,0.0,0.0,0.1519070863723755,-0.3584386110305786
-0.0668556243181228,0.0153207872062921,0.1199260726571083,-0.1935398429632187,-0.0441166497766971,0.0345897786319255,0.0,0.0,0.612307071685791,-0.8732130527496338
-0.0655989646911621,0.011214361526072,0.1220604553818702,-0.1824049651622772,-0.0405544191598892,0.0712446495890617,0.0,0.0,0.2315453290939331,-0.7084840536117554
-0.0643784552812576,0.0074338056147098,0.1170322149991989,-0.1678980439901352,-0.0356041491031646,0.0990053117275238,0.0,0.0,0.4637646675109863,-0.9195476174354552
-0.0631436333060264,0.0041109775193035,0.1165553107857704,-0.1475332081317901,-0.0287592038512229,0.1368992030620575,0.0,0.0,0.1772902011871338,-0.4112870693206787
-0.061840821057558,0.000678644166328,0.1230647414922714,-0.1524251848459243,-0.021633680909872,0.1425102204084396,0.0,0.0,0.542927622795105,-0.9605969190597534
-0.0606641769409179,-0.0020178342238068,0.0961769670248031,-0.1196853891015052,-0.0003683463728521,0.4253737032413482,1.0,0.0,0.4019927978515625,-0.2191635370254516
-0.0597471222281456,-0.0036912465002387,0.0785473883152008,-0.0744427815079689,0.0126152513548731,0.2596602737903595,1.0,1.0,0.0815201997756958,-0.6251239776611328
-0.0590476989746093,-0.0044102929532527,0.0614357702434062,-0.032071828842163,0.0210159961134195,0.1680130064487457,1.0,1.0,-0.2679004669189453,-0.4747517108917236
-0.0584976188838481,-0.0047438885085284,0.0524182729423046,-0.0148761868476867,0.0235685911029577,0.0510437972843647,1.0,1.0,-0.4410762786865234,-0.7169099450111389
-0.0581286437809467,-0.0046594524756073,0.037532702088356,0.0037512753624469,0.0229268856346607,-0.0128405271098017,1.0,1.0,-0.2324583530426025,-0.3274551630020141
-0.0578859336674213,-0.004154875408858,0.0281275361776351,0.022468227893114,0.0191217549145221,-0.0761089622974395,1.0,1.0,-0.2072922587394714,-0.2128370404243469
-0.0576630607247352,-0.0034296058584004,0.0277843810617923,0.0322868898510932,0.0137001145631074,-0.1084361672401428,1.0,1.0,-0.5007972121238708,-0.4866811633110046
