x_pos,y_pos,x_vel,y_vel,angle,ang_vel,leg_1,leg_2,main_booster,lat_booster
-0.0014607429038733,1.4030091762542725,-0.1478644013404846,-0.3515957593917846,0.0016036531887948,0.0316217169165611,0.0,0.0,-0.2907387018203735,0.9476253986358644
-0.0027767182327806,1.394501805305481,-0.1309848427772522,-0.3781078457832336,0.000998692587018,-0.0120999570935964,0.0,0.0,0.4358377456665039,0.1074573993682861
-0.0039121629670262,1.385905385017395,-0.11335389316082,-0.382062166929245,0.0008120270213112,-0.0037334326189011,0.0,0.0,-0.1714701652526855,-0.0358262658119201
-0.0049820900894701,1.376693606376648,-0.1066633835434913,-0.4094155430793762,0.0004783910117112,-0.00667314697057,0.0,0.0,-0.0892472267150878,0.5930569171905518
-0.0059294700622558,1.366868495941162,-0.0928065329790115,-0.4366739392280578,-0.0014318106696009,-0.0382075533270835,0.0,0.0,0.0056041479110717,-0.2767941951751709
-0.0067262649536132,1.3569236993789673,-0.0779892578721046,-0.4419887959957123,-0.0031011363025754,-0.0333896018564701,0.0,0.0,-0.2612545490264892,-0.4576518535614013
-0.0074560167267918,1.3463636636734009,-0.0711174830794334,-0.4693383872509002,-0.0049367058090865,-0.0367148369550704,0.0,0.0,0.0975929498672485,-0.1386022567749023
-0.0080168722197413,1.3358324766159058,-0.0545329824090004,-0.468059241771698,-0.0064711919985711,-0.0306924786418676,0.0,0.0,-0.764484167098999,-0.5075058341026306
-0.0085506439208984,1.3246917724609375,-0.0526778995990753,-0.4951429963111877,-0.0071591399610042,-0.0137604251503944,0.0,0.0,-0.7312016487121582,-0.8440762758255005
-0.0090827941894531,1.3129420280456543,-0.0540213584899902,-0.5222122073173523,-0.0063577801920473,0.016028594225645,0.0,0.0,-0.5679091811180115,-0.8092024922370911
-0.0096011161804199,1.3005781173706057,-0.053837664425373,-0.5495032668113708,-0.0043738693930208,0.0396821871399879,0.0,0.0,-0.8340960144996643,-0.9427189230918884
-0.0101163862273097,1.2875975370407104,-0.0549958236515522,-0.5769117474555969,-0.0009383035358041,0.0687173008918762,0.0,0.0,-0.7292556762695312,-0.7476821541786194
-0.0106088640168309,1.274005651473999,-0.0536947958171367,-0.6040847301483154,0.0034551944117993,0.0878779217600822,0.0,0.0,-0.5530909895896912,-0.5430516004562378
-0.0110701564699411,1.2597936391830444,-0.0513263717293739,-0.6316675543785095,0.0085924798622727,0.1027550250291824,0.0,0.0,-0.86453777551651,-0.0740377902984619
-0.0114621166139841,1.2449665069580078,-0.0441769994795322,-0.659014880657196,0.013514133170247,0.098441943526268,0.0,0.0,-0.7933247089385986,0.5214989185333252
-0.0117360111325979,1.2295193672180176,-0.0308963656425476,-0.6865795850753784,0.0169924888759851,0.0695735737681388,0.0,0.0,-0.5861349701881409,-0.5993072390556335
-0.0119767189025878,1.2134629487991333,-0.0282814148813486,-0.7136678695678711,0.0211622603237628,0.0834027007222175,0.0,0.0,-0.7528553009033203,0.4228293895721435
-0.0121476175263524,1.1967915296554563,-0.0210641734302043,-0.741014838218689,0.0250998698174953,0.0787591487169265,0.0,0.0,-0.4001343250274658,0.4288140535354614
-0.0122485160827636,1.1795048713684082,-0.0138283399865031,-0.768361508846283,0.0288011170923709,0.0740316435694694,0.0,0.0,-0.2545737028121948,0.4438340663909912
-0.0122794155031442,1.1616030931472778,-0.0065763131715357,-0.7957079410552979,0.0322609990835189,0.0692036226391792,0.0,0.0,-0.3571124076843261,0.5396075248718262
-0.0121883396059274,1.143092393875122,0.0071613760665059,-0.8227394819259644,0.0341751128435134,0.0382856130599975,0.0,0.0,0.1509946584701538,-0.4656754732131958
-0.0120294569060206,1.1244287490844729,0.0141695011407136,-0.8295289874076843,0.0358773246407508,0.0340474247932434,0.0,0.0,0.1667414903640747,-0.4390383958816528
-0.0117222787812352,1.1057311296463013,0.0288158562034368,-0.8310502767562866,0.0377507545053958,0.0374720469117164,0.0,0.0,0.2492623329162597,-0.3370267152786255
-0.0113008497282862,1.0867750644683838,0.040258839726448,-0.8425474166870117,0.0396101139485836,0.0371902771294117,0.0,0.0,0.7178092002868652,0.2633748054504394
-0.0109831811860203,1.06819748878479,0.0308545734733343,-0.8256881833076477,0.0405218675732612,0.01823659427464,0.0,0.0,-0.2437440156936645,-0.0556920170783996
-0.0105942729860544,1.0489832162857056,0.038231037557125,-0.8539887070655823,0.0411675348877906,0.0129136117175221,0.0,0.0,0.4803550243377685,0.2472642660140991
-0.0101582529023289,1.0301291942596436,0.043203767389059,-0.8379647135734558,0.0415594726800918,0.0078387595713138,0.0,0.0,0.7304074764251709,0.194516897201538
-0.0098244668915867,1.0119467973709106,0.0339066758751869,-0.8080924153327942,0.041045855730772,-0.0102724293246865,0.0,0.0,0.0050562620162963,-0.0267834663391113
-0.0095188142731785,0.9938504099845886,0.0317412987351417,-0.8042542338371277,0.0398899391293525,-0.023118320852518,0.0,0.0,-0.3493181467056274,-0.1428745985031128
-0.0091425897553563,0.9751386046409608,0.0390677265822887,-0.8315971493721008,0.0384565368294715,-0.0286680255085229,0.0,0.0,0.7167625427246094,-0.1479319334030151
-0.0087103843688964,0.957131326198578,0.0448643416166305,-0.8002857565879822,0.036833319813013,-0.0324644856154918,0.0,0.0,0.0553089380264282,-0.4426132440567016
-0.0082677844911813,0.9389255046844482,0.0464222654700279,-0.8090960383415222,0.034698486328125,-0.0426965355873107,0.0,0.0,-0.6365557909011841,0.1134147644042968
-0.0077548981644213,0.9201042652130128,0.0537385828793048,-0.836439311504364,0.0322801284492015,-0.0483666770160198,0.0,0.0,0.6991136074066162,-0.7078861594200134
-0.0073109627701342,0.9012113809585572,0.0458521582186222,-0.8396543860435486,0.0308312345296144,-0.0289780311286449,0.0,0.0,0.339274525642395,0.2615524530410766
-0.0067995069548487,0.8824660778045654,0.0528449714183807,-0.8330911993980408,0.029156906530261,-0.0334865972399711,0.0,0.0,0.0800963640213012,0.341282844543457
-0.0062205316498875,0.8638472557067871,0.0598308444023132,-0.8274620771408081,0.0272500049322843,-0.038138061761856,0.0,0.0,0.658715009689331,-0.1414883136749267
-0.005610370542854,0.8452976942062378,0.0633589476346969,-0.824387788772583,0.0249327681958675,-0.0463446341454982,0.0,0.0,-0.2417325377464294,-0.6492199301719666
-0.0049786567687988,0.8261358141899109,0.0645840242505073,-0.8516096472740173,0.02353554405272,-0.0279446430504322,0.0,0.0,-0.4483276009559631,-0.4217420816421509
-0.0042773247696459,0.8063588738441467,0.0718401744961738,-0.8789529204368591,0.0218488220125436,-0.0337344370782375,0.0,0.0,0.3811782598495483,0.6351312398910522
-0.0034414292313158,0.7867319583892822,0.086823359131813,-0.8722608685493469,0.0186592079699039,-0.0637922137975692,0.0,0.0,0.1464242935180664,-0.8632063865661621
-0.0027008056640625,0.7673031687736511,0.0758815258741378,-0.8634819388389587,0.016857735812664,-0.0360292978584766,0.0,0.0,0.1108608245849609,-0.5776005983352661
-0.0018505096668377,0.7477867007255554,0.0858441814780235,-0.8673833012580872,0.0160641949623823,-0.0158710200339555,0.0,0.0,0.2140741348266601,-0.5849632620811462
-0.0009022712474688,0.7279951572418213,0.0945977717638015,-0.8796314001083374,0.0162882227450609,0.0044804411008954,0.0,0.0,0.3848637342453003,-0.2895925641059875
0.0001906394900288,0.7082546949386597,0.1089682430028915,-0.8773519992828369,0.0166094116866588,0.0064238966442644,0.0,0.0,-0.0431464910507202,-0.1935638189315796
0.001352024031803,0.6878990530967712,0.1161021217703819,-0.9046953320503236,0.0166439209133386,0.0006901137530803,0.0,0.0,0.297847032546997,-0.8547989726066589
0.0025508881080895,0.6673124432563782,0.1183823198080062,-0.9149773716926576,0.0181307811290025,0.0297373030334711,0.0,0.0,0.9727416038513184,-0.8901967406272888
0.0038175582885742,0.646906316280365,0.123498186469078,-0.9069812893867492,0.0212622247636318,0.0626288652420044,0.0,0.0,0.9080159664154052,-0.8855336904525757
0.0049183843657374,0.6273319125175476,0.1056839600205421,-0.8700462579727173,0.0256004985421895,0.0867654085159301,0.0,0.0,0.8305649757385254,0.1437902450561523
0.0059171677567064,0.6084461212158203,0.0964531749486923,-0.8394315242767334,0.0289793089032173,0.0675764083862304,0.0,0.0,0.7202839851379395,-0.3108267784118652
0.0069455145858228,0.5897381901741028,0.099791444838047,-0.8315231800079346,0.0319793112576007,0.0600000210106372,0.0,0.0,0.7943198680877686,-0.3573368191719055
0.0081761358305811,0.5713523626327515,0.1195814460515976,-0.8172252178192139,0.0354259498417377,0.0689326599240303,0.0,0.0,0.6964575052261353,-0.8137833476066589
0.0093165393918752,0.5534839034080505,0.1092984825372695,-0.7942710518836975,0.0401009991765022,0.0935011655092239,0.0,0.0,0.2160526514053344,-0.262323260307312
0.0105897905305027,0.5354956984519958,0.1224893182516098,-0.7996131181716919,0.0448809266090393,0.0955984815955162,0.0,0.0,0.420060396194458,-0.1845848560333252
0.0119003299623727,0.5179199576377869,0.1264644116163253,-0.7812867760658264,0.0494100265204906,0.0905822217464447,0.0,0.0,0.1478840112686157,-0.1685094237327575
0.0133621217682957,0.5002443194389343,0.1413807570934295,-0.7857497930526733,0.0541586950421333,0.0949734076857566,0.0,0.0,0.794013500213623,-0.2253329157829284
0.0147568704560399,0.4827114343643188,0.1354120224714279,-0.779390275478363,0.058172583580017,0.0802776142954826,0.0,0.0,0.6907868385314941,-0.7150301933288574
0.0162159912288188,0.465795636177063,0.1404334455728531,-0.7520351409912109,0.0635810941457748,0.1081702336668968,0.0,0.0,0.7028312683105469,-0.0849344730377197
0.0178358070552349,0.4493190050125122,0.1560942977666854,-0.7325567007064819,0.0694029107689857,0.1164366453886032,0.0,0.0,0.0003591775894165,-0.2096800804138183
0.0195283889770507,0.4329780638217926,0.1634145230054855,-0.7265474796295166,0.0751950070261955,0.1158419251441955,0.0,0.0,0.3602455854415893,-0.7300079464912415
0.0211064331233501,0.4169818162918091,0.1508203148841858,-0.7113093733787537,0.0820998921990394,0.138097658753395,0.0,0.0,0.4071377515792846,0.1255140304565429
0.0227627754211425,0.4008476436138153,0.1586934477090835,-0.717472493648529,0.0889799073338508,0.1376001834869384,0.0,0.0,0.6820935010910034,0.2144008874893188
0.0243140216916799,0.3851519227027893,0.1488876491785049,-0.697973370552063,0.0951679274439811,0.1237604171037674,0.0,0.0,0.7653951644897461,0.2791569232940674
0.0260034557431936,0.3696851730346679,0.1622992306947708,-0.687846302986145,0.1017539650201797,0.1317210644483566,0.0,0.0,0.7513144016265869,-0.3246917724609375
0.0277099609375,0.3545768857002258,0.1641112715005874,-0.6719383597373962,0.1082507967948913,0.1299364864826202,0.0,0.0,0.6560745239257812,0.4100258350372314
0.0294383056461811,0.339454174041748,0.1664522588253021,-0.6725994944572449,0.1145871877670288,0.1267279535531997,0.0,0.0,0.9243214130401612,-0.6146585941314697
0.0309427268803119,0.3247078061103821,0.1434464752674102,-0.6559457778930664,0.1215468943119049,0.1391941905021667,0.0,0.0,0.9340059757232666,0.7206839323043823
0.0324638374149799,0.310861736536026,0.1466835886240005,-0.6158329248428345,0.1269499659538269,0.1080613508820533,0.0,0.0,0.6453053951263428,0.0032360553741455
0.0340834632515907,0.2968493700027466,0.15631665289402,-0.6232599020004272,0.132561445236206,0.1122293695807457,0.0,0.0,0.8227519989013672,-0.5502887964248657
0.0356192588806152,0.2836264371871948,0.1469214111566543,-0.5882943868637085,0.139197900891304,0.1327292025089264,0.0,0.0,0.6641449928283691,-0.0801610946655273
0.0370468124747276,0.2704771161079407,0.1366864740848541,-0.5849964618682861,0.1452462971210479,0.1209678500890731,0.0,0.0,0.6703100204467773,0.3120310306549072
0.0383337959647178,0.2577085196971893,0.1232093423604965,-0.568037748336792,0.1507264375686645,0.1096026077866554,0.0,0.0,0.8174513578414917,0.6103630065917969
0.0396504402160644,0.2453602701425552,0.1274433583021164,-0.549246609210968,0.1549515426158905,0.0845016986131668,0.0,0.0,0.7695666551589966,-0.1680836677551269
0.0407389625906944,0.233705386519432,0.105371318757534,-0.518361508846283,0.1584223210811615,0.0694159343838691,0.0,0.0,0.9158987998962402,0.7191745042800903
0.0419150367379188,0.2224622815847396,0.1154583245515823,-0.4999221563339233,0.1605680733919143,0.0429151505231857,0.0,0.0,0.9917467832565308,-0.7194552421569824
0.0429614074528217,0.2112723886966705,0.1012551411986351,-0.4977006912231445,0.1639583855867386,0.0678063705563545,0.0,0.0,0.9331276416778564,0.6440820693969727
0.0441238395869731,0.2000566124916076,0.1139973625540733,-0.4987261891365051,0.1662065088748932,0.0449621863663196,0.0,0.0,0.9806559085845948,-0.4421615600585937
0.0452227592468261,0.1888181567192077,0.107892170548439,-0.4997130930423736,0.168213814496994,0.0401458442211151,0.0,0.0,0.9917080402374268,-0.6479011178016663
0.0461393371224403,0.1783687621355056,0.0884390696883201,-0.4647864401340484,0.1714347600936889,0.0644189342856407,0.0,0.0,0.9966812133789062,0.4005591869354248
0.0470207221806049,0.1687861233949661,0.0845102220773696,-0.4263183772563934,0.1750649511814117,0.0726037323474884,0.0,0.0,0.9878989458084106,-0.3981687426567077
0.0476336479187011,0.1600056439638137,0.0583126731216907,-0.3905962407588959,0.1780464947223663,0.0596310794353485,0.0,0.0,0.9887495040893556,-0.6742196679115295
0.0479935631155967,0.1511332541704177,0.0321120209991931,-0.3947974443435669,0.1819446384906768,0.0779628604650497,0.0,0.0,0.9574291706085204,0.7003660202026367
0.0483202934265136,0.1430626660585403,0.0300565995275974,-0.3590164184570312,0.184565931558609,0.0524257533252239,0.0,0.0,0.9909160137176514,0.8245656490325928
0.0484827980399131,0.1353807598352432,0.0155541347339749,-0.3415047228336334,0.1852663606405258,0.0140085639432072,0.0,0.0,0.9924936294555664,-0.9236635565757751
0.0483788475394248,0.1282525211572647,-0.0128329470753669,-0.3171175420284271,0.1877151727676391,0.0489759072661399,0.0,0.0,0.7461768388748169,0.1921093463897705
0.0481502525508403,0.1215948462486267,-0.0252834893763065,-0.2962061464786529,0.1901555061340332,0.0488070547580719,0.0,0.0,0.97359299659729,0.8270885944366455
0.0479897484183311,0.1153967976570129,-0.0171386450529098,-0.2756099998950958,0.1912421435117721,0.021732710301876,0.0,0.0,0.6986949443817139,0.3628320693969726
0.0478075966238975,0.1091089844703674,-0.019479002803564,-0.2796249687671661,0.1925220340490341,0.0255974326282739,0.0,0.0,0.819087028503418,0.6228482723236084
0.0477167144417762,0.1028999909758567,-0.0095018502324819,-0.2760072350502014,0.192929983139038,0.0081591960042715,0.0,0.0,0.8818817138671875,0.8497087955474854
0.0477645881474018,0.0971057042479515,0.0056214071810245,-0.2574190497398376,0.192101240158081,-0.0165748503059148,0.0,0.0,0.946225881576538,-0.3019517660140991
0.0479001030325889,0.0914275720715522,0.0134916622191667,-0.252369076013565,0.1921581029891967,0.0011375724570825,0.0,0.0,0.9733340740203856,-0.3760348558425903
0.0478705391287803,0.0864538252353668,-0.0031324222218245,-0.2210764288902282,0.1923245787620544,0.0033295601606369,0.0,0.0,0.8123939037322998,-0.2697207927703857
0.0477258674800396,0.0821001380681991,-0.0149465473368763,-0.1935574561357498,0.1928038001060485,0.0095843486487865,0.0,0.0,0.2104473114013672,-0.3155704140663147
0.0475855842232704,0.0778774842619896,-0.0150894839316606,-0.1878142952919006,0.1938754022121429,0.0214318968355655,0.0,0.0,-0.2288161516189575,0.3856604099273681
0.0474517829716205,0.0730399936437606,-0.0146315842866897,-0.2151610553264618,0.1951315701007843,0.0251236893236637,0.0,0.0,0.4978083372116089,-0.1523494124412536
0.0471860878169536,0.0682533606886863,-0.0278017725795507,-0.2129009366035461,0.1963659822940826,0.0246884413063526,0.0,0.0,0.3561620712280273,0.9165003299713136
0.0469320304691791,0.0639492347836494,-0.0250671841204166,-0.1912511140108108,0.1960268169641494,-0.0067831678315997,0.0,0.0,0.061174988746643,0.9291784763336182
0.0466615669429302,0.0595842450857162,-0.0250827334821224,-0.1937420815229416,0.1940502077341079,-0.0395322330296039,0.0,0.0,0.2141079902648925,0.0769253969192504
0.0461869239807128,0.0554386228322982,-0.0453207306563854,-0.1839686334133148,0.1918891817331314,-0.0432202890515327,0.0,0.0,0.5454907417297363,0.8636569976806641
0.0457400307059288,0.0516896806657314,-0.0411889851093292,-0.166169986128807,0.1883684545755386,-0.070414662361145,0.0,0.0,0.1291497945785522,0.5372364521026611
0.0451930053532123,0.0480862967669963,-0.0503110885620117,-0.159597098827362,0.1839568465948104,-0.0882318168878555,0.0,0.0,0.1197104454040527,0.9460580348968506
0.0445530898869037,0.0446261018514633,-0.0579796731472015,-0.1530513614416122,0.1779193580150604,-0.1207499504089355,0.0,0.0,0.2679423093795776,0.8941510915756226
0.0438843742012977,0.0411262139678001,-0.0593288466334342,-0.1546666324138641,0.1703631579875946,-0.1511241495609283,0.0,0.0,0.6859221458435059,0.9360601902008056
0.0430418960750103,0.0379057042300701,-0.0749321430921554,-0.1420920640230178,0.1610407829284668,-0.1864473819732666,0.0,0.0,0.2342171669006347,0.9903485774993896
0.0420711524784565,0.0346362702548503,-0.0860467478632927,-0.1441545635461807,0.1500201821327209,-0.2204124480485916,0.0,0.0,0.050150990486145,0.9685397148132324
0.0411726012825965,0.0314724072813987,-0.0771433189511299,-0.1393842697143554,0.1373475790023803,-0.2534516453742981,0.0,0.0,0.5138990879058838,0.9881047010421752
0.0403535850346088,0.028219424188137,-0.0675834715366363,-0.1433211117982864,0.1230908930301666,-0.2851338982582092,0.0,0.0,-0.3613801002502441,0.9399802684783936
0.0396079048514366,0.0243790727108716,-0.0582141205668449,-0.1694147586822509,0.1068388447165489,-0.3250413239002228,0.0,0.0,0.2585359811782837,0.8039636611938477
0.038823127746582,0.0208230353891849,-0.0607964619994163,-0.1568747907876968,0.0893062651157379,-0.3506516814231872,0.0,0.0,-0.3713033199310303,0.1360195875167846
0.0380180366337299,0.0166562423110008,-0.0631603077054023,-0.1842467635869979,0.0721273347735405,-0.3435787558555603,0.0,0.0,0.0477278232574462,-0.4124552607536316
0.037213135510683,0.0124334432184696,-0.0637116134166717,-0.1869547069072723,0.0555336065590381,-0.3318749070167541,0.0,0.0,0.7616733312606812,-0.6689097881317139
0.0362759605050087,0.0089044785127043,-0.0786441639065742,-0.156350553035736,0.0406187400221824,-0.2982969880104065,0.0,0.0,0.4391036033630371,-0.1028673648834228
0.0353396423161029,0.0057947253808379,-0.0791570395231247,-0.1378808617591858,0.0263239350169897,-0.2858957946300506,0.0,0.0,0.3504663705825805,-0.1899113655090332
0.0344343185424804,0.002637050114572,-0.076747789978981,-0.1401565670967102,0.0127159468829631,-0.2721597552299499,0.0,0.0,0.2932085990905761,-0.3557771444320678
0.0334010124206543,-0.0004092240415047,-0.0894800573587417,-0.1353307664394378,-0.0009466214687563,-0.2732513546943664,0.0,0.0,0.565513014793396,-0.0339701771736145
0.0323747619986534,-0.0027009034529328,-0.1081505194306373,-0.1018660515546798,0.0045114140957593,0.1091709285974502,1.0,1.0,0.5566413402557373,0.9994595050811768
0.031585119664669,-0.0038356208242475,-0.090901993215084,-0.0507429502904415,0.0154827907681465,0.2184058427810669,1.0,1.0,0.5565415620803833,0.9989581108093262
0.0309692379087209,-0.0037309431936591,-0.0690491273999214,0.0045450301840901,0.0228060875087976,0.146407276391983,1.0,1.0,-0.3382782936096191,0.9984016418457032
0.030455207452178,-0.0033213878050446,-0.0482724085450172,0.0182451680302619,0.0196903254836797,-0.0623363256454467,1.0,1.0,-0.9082446098327636,0.9746537208557128
0.0301102641969919,-0.0025521658826619,-0.0286679621785879,0.0342522338032722,0.0139351822435855,-0.1151148676872253,1.0,1.0,-0.9551075100898744,0.7261433601379395
0.0298274047672748,-0.0016168617876246,-0.021227478981018,0.0416183732450008,0.0069557577371597,-0.1396002471446991,1.0,1.0,-0.9483994841575624,-0.0395182371139526
0.0295474044978618,-0.0007202887791208,-0.021190732717514,0.0398633107542991,0.0002274784055771,-0.1345746666193008,1.0,1.0,-0.9432038068771362,-0.1638741493225097
0.0293183326721191,-0.0003732109034899,-0.0201932992786169,0.0154229355975985,-0.0024607693776488,-0.0537647902965545,1.0,1.0,-0.7398769855499268,0.1706647872924804
