x_pos,y_pos,x_vel,y_vel,angle,ang_vel,leg_1,leg_2,main_booster,lat_booster
-0.001558780670166,1.4033061265945437,-0.1584376096725464,-0.3383969068527221,0.0022846257779747,0.045105256140232,0.0,0.0,0.6385885043217634,0.9486134758035796
-0.0030173300765454,1.396079182624817,-0.1468012779951095,-0.3211986422538757,0.0032156477682292,0.0186231099069118,0.0,0.0,-0.7204108218074718,0.716630609635623
-0.0044336318969726,1.38852858543396,-0.1413108110427856,-0.3355870544910431,0.00291179260239,-0.0060778162442147,0.0,0.0,-0.7746494759162317,-0.7633888072553474
-0.0059432983398437,1.3806567192077637,-0.1529967635869979,-0.3498623967170715,0.004915805067867,0.0400841273367404,0.0,0.0,-0.5362910737279043,-0.8009169954381681
-0.0075194360688328,1.3724690675735474,-0.1614139974117279,-0.3639183938503265,0.008667204529047,0.0750349834561348,0.0,0.0,-0.4305236784695943,-0.8861304811352664
-0.0091615673154592,1.3639613389968872,-0.1698903739452362,-0.3781619369983673,0.0142785366624593,0.1122371554374694,0.0,0.0,-0.6609016184518677,-0.909941927425693
-0.0108852386474609,1.3551344871520996,-0.1804399490356445,-0.3923999071121216,0.0222652815282344,0.1597494930028915,0.0,0.0,-0.6339263348631279,0.7042249702832677
-0.012542056851089,1.3459947109222412,-0.17250756919384,-0.4063317477703094,0.0290200877934694,0.1351082921028137,0.0,0.0,0.4777507687325097,-0.954861310841623
-0.0143054006621241,1.337666392326355,-0.1855779439210891,-0.370348572731018,0.0381631068885326,0.1828776150941848,0.0,0.0,0.1913472973791565,-0.8101266266145417
-0.0161456111818552,1.3298077583312988,-0.1953954845666885,-0.3495983183383941,0.0494202226400375,0.2251628339290619,0.0,0.0,-0.0407781414736314,-0.688964006962803
-0.0180197712033987,1.3216302394866943,-0.2004799097776413,-0.3639285862445831,0.0623595006763935,0.2588090300559997,0.0,0.0,0.7666362240692579,0.8685644185108083
-0.0197597499936819,1.3139950037002563,-0.1859956979751587,-0.3398847281932831,0.0742435827851295,0.2377035915851593,0.0,0.0,-0.6916907269875341,-0.9681552752218922
-0.0215374939143657,1.3060424327850342,-0.1917901188135147,-0.354204386472702,0.0881465524435043,0.278084397315979,0.0,0.0,-0.3690412919692778,0.9170611077782448
-0.0232077594846487,1.2977765798568726,-0.179487258195877,-0.3681519627571106,0.1005326136946678,0.2477436959743499,0.0,0.0,-0.6156441058837849,-0.6864933824088875
-0.0248882286250591,1.2891963720321655,-0.1820719540119171,-0.3823500275611877,0.1144755035638809,0.278883159160614,0.0,0.0,-0.1950657265204309,0.6689324956997934
-0.026470374315977,1.280303716659546,-0.1711588352918625,-0.396269291639328,0.1273586899042129,0.2576875984668731,0.0,0.0,0.1777644823979638,-0.6159321601374181
-0.0280303955078125,1.2720222473144531,-0.170842245221138,-0.3693998456001282,0.1421592086553573,0.2960370182991028,0.0,0.0,-0.9985679915985346,0.7951703034406904
-0.0294692032039165,1.2634357213974,-0.1572275757789611,-0.3829571902751922,0.1555109620094299,0.2670595049858093,0.0,0.0,0.748701275475327,-0.7262840040210049
-0.0309382434934377,1.2558131217956543,-0.1624419391155243,-0.3404739797115326,0.1710686832666397,0.3111828863620758,0.0,0.0,0.2870842253150711,0.8971886199634982
-0.0324324592947959,1.2485270500183103,-0.1635810732841491,-0.3255191147327423,0.1852856278419494,0.2843644022941589,0.0,0.0,-0.9261444152318344,0.7257336258268633
-0.0338042266666889,1.2409507036209106,-0.1500520855188369,-0.3383911848068237,0.1982463747262954,0.2592387199401855,0.0,0.0,0.020347352822289,0.975519530026954
-0.0350868217647075,1.2334809303283691,-0.1396583467721939,-0.3335550427436828,0.209756538271904,0.2302237749099731,0.0,0.0,-0.2102011924022295,-0.9181342703673948
-0.036363411694765,1.225677251815796,-0.1409602612257003,-0.3487760424613952,0.2232230454683303,0.2693541049957275,0.0,0.0,0.7820847047810868,0.7521093553281014
-0.0375109687447547,1.2180904150009155,-0.1272040903568267,-0.3391325771808624,0.2358605414628982,0.2527726292610168,0.0,0.0,-0.990726008790524,-0.8723316626094139
-0.0386747345328331,1.2101614475250244,-0.1314139515161514,-0.3548746705055237,0.2511760592460632,0.3063370585441589,0.0,0.0,-0.4245962120650799,-0.7349734695827247
-0.0398360267281532,1.2018756866455078,-0.1334207206964492,-0.3713146448135376,0.2688371837139129,0.3532224297523498,0.0,0.0,0.4675890071720991,-0.641836882932257
-0.0411428436636924,1.1941962242126465,-0.1496568620204925,-0.3449133634567261,0.2883070409297943,0.3893962800502777,0.0,0.0,-0.0514507135708237,0.6835141366609379
-0.0423369407653808,1.1862297058105469,-0.1376988589763641,-0.3577901721000671,0.3071871995925903,0.3776032328605652,0.0,0.0,-0.5347154810877537,0.8376372093767235
-0.0434074401855468,1.1779813766479492,-0.1244231238961219,-0.3703688383102417,0.325227826833725,0.3608126044273376,0.0,0.0,-0.4168016566343611,0.7231726401418
-0.0443476662039756,1.1694446802139282,-0.1104026436805725,-0.3831905722618103,0.3423497080802917,0.3424377143383026,0.0,0.0,-0.9023748695248908,0.9954242572663174
-0.0451347343623638,1.1606464385986328,-0.0934773012995719,-0.394619733095169,0.3578601777553558,0.3102091550827026,0.0,0.0,-0.7652124556065751,-0.6893763813289848
-0.0458971038460731,1.1514997482299805,-0.0928996726870536,-0.410772293806076,0.3754765391349792,0.3523273169994354,0.0,0.0,-0.5780454045538925,-0.618688458787239
-0.0466300025582313,1.1420166492462158,-0.0916605144739151,-0.4264257252216339,0.3950368165969848,0.3912056982517242,0.0,0.0,-0.3486593168812131,0.916384546890977
-0.047217845916748,1.1322517395019531,-0.0759023278951644,-0.4388687312602997,0.4134164154529571,0.3675919771194458,0.0,0.0,-0.7474471309300628,-0.7595138275180303
-0.047774314880371,1.122142314910889,-0.0745147913694381,-0.454959362745285,0.4338276386260986,0.40822434425354,0.0,0.0,-0.0611186964163392,-0.7122636447528369
-0.0482959747314453,1.1116936206817627,-0.0726139545440673,-0.4708624482154846,0.4561701416969299,0.4468502104282379,0.0,0.0,0.8310543681052782,-0.9679851598235734
-0.0490495674312114,1.1015400886535645,-0.0978062823414802,-0.4588238298892975,0.4809973537921905,0.4965444207191467,0.0,0.0,-0.7351662833260268,0.7383504052622923
-0.0496638305485248,1.091125726699829,-0.0825558602809906,-0.4704020321369171,0.504666268825531,0.4733785688877105,0.0,0.0,0.9096600382315998,0.7367860517532235
-0.0506566055119037,1.0816946029663086,-0.11911141872406,-0.4266432821750641,0.5271573662757874,0.4498221278190613,0.0,0.0,0.9924900364971868,-0.7261473057363694
-0.0519473068416118,1.0728908777236938,-0.1504832655191421,-0.3997905552387237,0.5517719388008118,0.4922918677330017,0.0,0.0,-0.9573786408662608,0.9090065005552076
-0.053102396428585,1.063831448554993,-0.1356488317251205,-0.411110371351242,0.5752771496772766,0.470104455947876,0.0,0.0,-0.8528873324394226,0.9309036731719972
-0.0540937408804893,1.0545324087142944,-0.1173735409975051,-0.4213477671146393,0.5968784689903259,0.4320258498191833,0.0,0.0,-0.8982312679290771,0.960524320602417
-0.0549185760319232,1.044988036155701,-0.0988997966051101,-0.4317806363105774,0.6165913939476013,0.3942580819129944,0.0,0.0,-0.7688460350036621,0.9908394813537598
-0.0555779449641704,1.035209059715271,-0.0804974287748336,-0.4416218101978302,0.6343061327934265,0.3542949855327606,0.0,0.0,-0.796970784664154,0.9844632148742676
-0.0560829155147075,1.0251725912094116,-0.0636745542287826,-0.4526216089725494,0.6505416631698608,0.3247111141681671,0.0,0.0,-0.7960119843482971,0.9902567863464355
-0.0564250946044921,1.0148916244506836,-0.0457748770713806,-0.4628838300704956,0.6649644374847412,0.2884552776813507,0.0,0.0,-0.927550733089447,0.9686994552612304
-0.0566062927246093,1.0043706893920898,-0.0281060580164194,-0.4728850722312927,0.6775546669960022,0.2518050670623779,0.0,0.0,-0.8726022243499756,0.9714900255203248
-0.056649874895811,0.993602216243744,-0.0132780894637107,-0.4834159612655639,0.6888835430145264,0.2265761792659759,0.0,0.0,-0.8216502070426941,0.9271327257156372
-0.056559182703495,0.9825804233551024,0.0011019200319424,-0.4942633509635925,0.6990965604782104,0.2042600363492965,0.0,0.0,-0.8614525198936462,0.9925376176834106
-0.0563154220581054,0.9713148474693298,0.0177255310118198,-0.5044478178024292,0.7076895236968994,0.1718594878911972,0.0,0.0,-0.9429960250854492,0.909224271774292
-0.055910013616085,0.95982027053833,0.0354863032698631,-0.5137735605239868,0.7142794728279114,0.131798580288887,0.0,0.0,-0.9589152336120604,0.9864006042480468
-0.0553593635559082,0.9480845332145692,0.0511701293289661,-0.5238462090492249,0.719365119934082,0.101712629199028,0.0,0.0,-0.9318310022354126,0.9557650089263916
-0.0546445846557617,0.9361169934272766,0.0691444724798202,-0.5332575440406799,0.7224367260932922,0.0614316575229167,0.0,0.0,-0.9263861775398254,0.8676958084106445
-0.0537863746285438,0.923907995223999,0.0846135169267654,-0.543332040309906,0.7240352630615234,0.0319705754518508,0.0,0.0,-0.8532178997993469,0.8984053134918213
-0.0527650825679302,0.9114684462547302,0.1024466529488563,-0.5526875257492065,0.7236255407333374,-0.0081944121047854,0.0,0.0,-0.9161372780799866,0.863744854927063
-0.0516030304133892,0.8987676501274109,0.1173801198601722,-0.56379234790802,0.7220789194107056,-0.030931930989027,0.0,0.0,-0.8986764550209045,0.883202075958252
-0.0502884872257709,0.885836660861969,0.1340110599994659,-0.5732104778289795,0.7187169194221497,-0.0672403797507286,0.0,0.0,-0.9132396578788756,0.5966315269470215
-0.0488353744149208,0.8726493716239929,0.1487722694873809,-0.584094226360321,0.7141844034194946,-0.0906497985124588,0.0,0.0,-0.8517640829086304,0.461343765258789
-0.0472850799560546,0.8591479063034058,0.1581545621156692,-0.5982652902603149,0.7101060748100281,-0.0815664231777191,0.0,0.0,-0.7029297947883606,0.9464544057846068
-0.0455928817391395,0.8454008102416992,0.1734310686588287,-0.6085782647132874,0.7046322822570801,-0.1094756126403808,0.0,0.0,-0.4465484619140625,0.957632303237915
-0.043738842010498,0.8314114212989807,0.1910703480243683,-0.6185632944107056,0.6973198652267456,-0.1462500989437103,0.0,0.0,-0.1299078464508056,0.9554883241653442
-0.0417426116764545,0.8171710968017578,0.2063440531492233,-0.6291704177856445,0.6886770725250244,-0.1728552877902984,0.0,0.0,0.358704924583435,0.9518254995346068
-0.0397719368338584,0.8032892942428589,0.2051211148500442,-0.6125920414924622,0.6784111857414246,-0.205317422747612,0.0,0.0,0.1791033744812011,0.6732945442199707
-0.0379242897033691,0.7896720767021179,0.1937148422002792,-0.600439727306366,0.6671045422554016,-0.2261339426040649,0.0,0.0,0.1171833276748657,0.3112695217132568
-0.0361434929072856,0.7760657668113708,0.1867576539516449,-0.6002093553543091,0.6562329530715942,-0.2174315452575683,0.0,0.0,-0.1191855669021606,0.1994637250900268
-0.0342660918831825,0.7621456384658813,0.1961716264486313,-0.6143825054168701,0.64576256275177,-0.2094079256057739,0.0,0.0,-0.053489863872528,0.6805250644683838
-0.0322519317269325,0.7479671239852905,0.2108669579029083,-0.6254571676254272,0.6341333985328674,-0.2325828075408935,0.0,0.0,0.236179232597351,-0.6683595776557922
-0.0302541740238666,0.7337475419044495,0.2077104747295379,-0.6281214952468872,0.624436616897583,-0.1939357221126556,0.0,0.0,0.3688424825668335,-0.7924882173538208
-0.0286065097898244,0.7200496792793274,0.1710210144519806,-0.6058073043823242,0.6168370246887207,-0.1519922614097595,0.0,0.0,-0.5830882787704468,0.8634836673736572
-0.0268149375915527,0.7060831785202026,0.186463862657547,-0.6173141002655029,0.6080223917961121,-0.1762924641370773,0.0,0.0,-0.2805855274200439,0.6634734869003296
-0.0248923301696777,0.6918414235115051,0.2003263682126999,-0.6292482614517212,0.5983304381370544,-0.1938393861055374,0.0,0.0,0.0753110647201538,-0.2599760293960571
-0.023085594177246,0.6778038144111633,0.1884514689445495,-0.6203848123550415,0.5890586972236633,-0.1854344755411148,0.0,0.0,0.0964254140853881,-0.6959625482559204
-0.0216232296079397,0.6640305519104004,0.1526109725236892,-0.6093253493309021,0.5815078616142273,-0.1510170549154281,0.0,0.0,-0.4606987237930298,0.9027159214019777
-0.019999599084258,0.6500068306922913,0.1703616827726364,-0.6197971701622009,0.572077751159668,-0.1886020898818969,0.0,0.0,-0.3525005578994751,-0.1612367033958435
-0.0182809829711914,0.6356679797172546,0.1796745359897613,-0.6339607834815979,0.5629258155822754,-0.1830377578735351,0.0,0.0,-0.1670918464660644,-0.3918616771697998
-0.0164675712585449,0.6210135221481323,0.1889662891626358,-0.6481230854988098,0.5540335178375244,-0.1778463721275329,0.0,0.0,0.2196840047836303,-0.1654630899429321
-0.0147115709260106,0.6063448190689087,0.1831608414649963,-0.6488569974899292,0.5452731251716614,-0.1752082705497741,0.0,0.0,0.3530055284500122,-0.2409386038780212
-0.0132042886689305,0.592187762260437,0.1581566333770752,-0.626216471195221,0.5366999506950378,-0.1714638173580169,0.0,0.0,-0.2621877193450928,-0.1297447085380554
-0.0116037372499704,0.5777145624160767,0.1673716753721237,-0.640375018119812,0.5283238291740417,-0.1675222516059875,0.0,0.0,0.1609308719635009,-0.2835607528686523
-0.0102676395326852,0.5636096000671387,0.1411156207323074,-0.6239893436431885,0.5197570323944092,-0.171335756778717,0.0,0.0,-0.5475746989250183,-0.2970622181892395
-0.0088391304016113,0.5491882562637329,0.1502672433853149,-0.6381456851959229,0.5113402605056763,-0.1683343350887298,0.0,0.0,-0.1514220833778381,0.2370885610580444
-0.0073186876252293,0.5344501733779907,0.1593827605247497,-0.6523007750511169,0.5030485987663269,-0.165832906961441,0.0,0.0,0.1180353164672851,0.3993945121765136
-0.0059547424316406,0.5198575854301453,0.1439584344625473,-0.6458072662353516,0.4945389628410339,-0.1701931655406952,0.0,0.0,0.1588107347488403,0.5680117607116699
-0.0047249794006347,0.5055792927742004,0.1316479444503784,-0.6315037608146667,0.4848322570323944,-0.1941332519054412,0.0,0.0,-0.0326142311096191,0.5411486625671387
-0.0033697127364575,0.4910157918930053,0.1452191472053527,-0.6439096331596375,0.4740510880947113,-0.2156240493059158,0.0,0.0,0.3860197067260742,-0.1301564574241638
-0.0020831108558923,0.4768368303775787,0.1380849778652191,-0.6269901990890503,0.4636251032352447,-0.208519846200943,0.0,0.0,-0.3033244609832763,0.52431321144104
-0.0006686210399493,0.4623650014400482,0.151972621679306,-0.6397329568862915,0.4520539343357086,-0.2314235419034958,0.0,0.0,0.4858849048614502,0.8390705585479736
0.0008201599121093,0.4481640160083771,0.1609793156385421,-0.627295732498169,0.4388139843940735,-0.2647987604141235,0.0,0.0,0.2038671970367431,0.1868075132369995
0.0023155212402343,0.4342798292636871,0.1613240987062454,-0.6134443879127502,0.4260002970695495,-0.25627401471138,0.0,0.0,0.5147883892059326,0.7693545818328857
0.003932571504265,0.4206928312778473,0.1749198287725448,-0.5999337434768677,0.4117178618907928,-0.2856486141681671,0.0,0.0,0.7763586044311523,-0.5193911790847778
0.0052664754912257,0.4078748226165771,0.1458243727684021,-0.5661300420761108,0.3983612954616546,-0.2671312093734741,0.0,0.0,0.5518616437911987,0.3974380493164062
0.0064341546967625,0.3957419395446777,0.1292983591556549,-0.5357851386070251,0.3849828839302063,-0.2675682306289673,0.0,0.0,0.535996675491333,-0.1141175627708435
0.0075586317107081,0.3842194378376007,0.1247133985161781,-0.5088557004928589,0.3719555735588074,-0.2605465352535248,0.0,0.0,-0.0296122431755065,0.833655595779419
0.0088378908112645,0.3724136352539062,0.1423229873180389,-0.5210269689559937,0.3567240238189697,-0.3046308159828186,0.0,0.0,0.83663010597229,-0.5801696181297302
0.0098983766511082,0.3610289096832275,0.1197987645864486,-0.5026427507400513,0.3422804474830627,-0.2888711392879486,0.0,0.0,0.3531994819641113,0.7441719770431519
0.0109265325590968,0.3504030108451843,0.1182480677962303,-0.4686788022518158,0.3261444866657257,-0.3227196633815765,0.0,0.0,0.5278135538101196,-0.6627011895179749
0.011791706085205,0.3401719927787781,0.1010548025369644,-0.4515081942081451,0.3110255300998688,-0.3023787140846252,0.0,0.0,-0.1272374391555786,0.3664382696151733
0.0127327917143702,0.3296244144439697,0.1090278178453445,-0.4656631350517273,0.2955932319164276,-0.3086460828781128,0.0,0.0,0.6742408275604248,0.5502398014068604
0.0136736873537302,0.3198381960391998,0.1102558746933937,-0.4317513108253479,0.2789493501186371,-0.3328776061534881,0.0,0.0,0.4772539138793945,0.3692996501922607
0.0144566539674997,0.3106835782527923,0.0951240807771682,-0.4037524461746216,0.261726438999176,-0.3444590270519256,0.0,0.0,-0.0498371720314025,0.3500264883041382
0.0153111461549997,0.3012132942676544,0.1027115732431411,-0.417913019657135,0.2441255450248718,-0.3520182967185974,0.0,0.0,0.2882782220840454,-0.6575320959091187
0.0160707477480173,0.2919638156890869,0.0924114733934402,-0.4084438681602478,0.2274222522974014,-0.3340657949447632,0.0,0.0,0.7867212295532227,-0.8365058898925781
0.016552161425352,0.2832801938056946,0.0636460036039352,-0.3836222887039184,0.2117321193218231,-0.3138027489185333,0.0,0.0,-0.2014364004135131,0.1978371143341064
0.0170999523252248,0.2742803394794464,0.0707713365554809,-0.3977796137332916,0.1956103295087814,-0.3224359154701233,0.0,0.0,-0.0180722475051879,-0.7846580743789673
0.0176616664975881,0.2649539709091186,0.0713669508695602,-0.4125683903694153,0.1803369671106338,-0.3054671287536621,0.0,0.0,0.3897175788879394,-0.9698776006698608
0.0182146076112985,0.2557560801506042,0.0690048485994339,-0.4071865975856781,0.1665932685136795,-0.2748737931251526,0.0,0.0,0.4750194549560547,-0.974056839942932
0.0187847130000591,0.247273787856102,0.0691461935639381,-0.3756753802299499,0.1544505506753921,-0.2428540289402008,0.0,0.0,0.3644299507141113,-0.9729583263397216
0.0192165374755859,0.2394091188907623,0.0539056546986103,-0.3484666645526886,0.1437503695487976,-0.2140040695667266,0.0,0.0,-0.2490311861038208,-0.9622421264648438
0.0196465495973825,0.2312250882387161,0.0527658648788929,-0.3628200590610504,0.1340150982141494,-0.1947058290243148,0.0,0.0,-0.053993821144104,-0.9290779829025269
0.0200673099607229,0.2227103263139724,0.050747774541378,-0.377681165933609,0.1253936141729354,-0.1724293231964111,0.0,0.0,0.5198662281036377,-0.7242458462715149
0.0203818324953317,0.2149901539087295,0.0391928330063819,-0.3424854874610901,0.117685429751873,-0.1541637480258941,0.0,0.0,0.1100401878356933,-0.8864668607711792
0.0206610672175884,0.2077436000108719,0.0344309881329536,-0.3215680122375488,0.1112291663885116,-0.1291252970695495,0.0,0.0,0.4425529241561889,-0.7483661770820618
0.0209626201540231,0.2007748037576675,0.035556674003601,-0.3093330562114715,0.1058615818619728,-0.1073518991470336,0.0,0.0,-0.0019798874855041,-0.939550757408142
0.0212199203670024,0.193474605679512,0.0294096264988183,-0.3241952955722809,0.1022100150585174,-0.0730310082435607,0.0,0.0,0.335843563079834,-0.2971835136413574
0.0213737487792968,0.1864608824253082,0.0200949851423501,-0.3114065527915954,0.097534954547882,-0.0935015752911567,0.0,0.0,0.3570133447647095,-0.7494472861289978
0.0214432720094919,0.1798077225685119,0.0107510667294263,-0.2954559028148651,0.0937771275639534,-0.0751563385128974,0.0,0.0,0.3452637195587158,-0.0246748328208923
0.0215301513671875,0.173487439751625,0.0129340412095189,-0.2806412279605865,0.0895641446113586,-0.0842600911855697,0.0,0.0,-0.2849293947219848,-0.8261644244194031
0.0216004364192485,0.1668340563774109,0.0105485450476408,-0.2955004274845123,0.086086131632328,-0.0695602968335151,0.0,0.0,0.2633999586105346,-0.8088498115539551
0.0216777808964252,0.1606495976448059,0.0100948698818683,-0.2747311294078827,0.0837422534823417,-0.0468774661421775,0.0,0.0,0.0551260709762573,-0.937007486820221
0.0216850284487009,0.1549183279275894,0.0017785234376788,-0.2546628415584564,0.0826957151293754,-0.0209307707846164,0.0,0.0,-0.2910694479942322,-0.8814807534217834
0.0216561313718557,0.1488507390022277,-0.0028494279831647,-0.2696693539619446,0.0826571732759475,-0.000770857790485,0.0,0.0,0.4170159101486206,-0.0845308303833007
