x_pos,y_pos,x_vel,y_vel,angle,ang_vel,leg_1,leg_2,main_booster,lat_booster
-0.0015120506286621,1.4035282135009766,-0.1537705361843109,-0.3285371661186218,0.0022928486578166,0.0452680364251136,0.0,0.0,-0.6911991834640503,0.7809746265411377
-0.0029461861122399,1.3960591554641724,-0.1444873660802841,-0.3319528698921203,0.0033631820697337,0.0214095991104841,0.0,0.0,0.0632408857345581,0.8808474540710449
-0.0041990280151367,1.3888777494430542,-0.125132530927658,-0.319172590970993,0.0032140605617314,-0.0029826643876731,0.0,0.0,0.0575344562530517,0.241618275642395
-0.0055175782181322,1.3820791244506836,-0.1318243741989135,-0.3021594882011413,0.0031779354903846,-0.0007228424074128,0.0,0.0,-0.4566222429275512,0.6136051416397095
-0.0067663192749023,1.375186324119568,-0.1238020285964012,-0.3063477873802185,0.0021299270447343,-0.0209621097892522,0.0,0.0,-0.1981966495513916,0.3188581466674804
-0.0080036167055368,1.3681970834732056,-0.1231172680854797,-0.3106327056884765,0.0015265804249793,-0.0120682548731565,0.0,0.0,-0.1183021068572998,-0.3755993247032165
-0.0092297550290822,1.361111402511597,-0.1224287748336792,-0.3149193227291107,0.0013488905970007,-0.0035540275275707,0.0,0.0,-0.4520450830459595,0.1540397405624389
-0.0104447361081838,1.3539291620254517,-0.1217366009950637,-0.3192061185836792,0.0015785082941874,0.0045927288010716,0.0,0.0,-0.5554479360580444,0.887226939201355
-0.011580467224121,1.3466604948043823,-0.1124523729085922,-0.3230553567409515,0.0004740925214719,-0.022090408951044,0.0,0.0,-0.7181271910667419,0.1898635625839233
-0.0127054210752248,1.3392951488494873,-0.1117493882775306,-0.3273424804210663,-0.0002608895592857,-0.0147010758519172,0.0,0.0,-0.6406801342964172,0.8298921585083008
-0.0137450220063328,1.331834077835083,-0.1016696318984031,-0.3316047787666321,-0.0025270914193242,-0.0453282035887241,0.0,0.0,-0.4896894693374634,0.0749275684356689
-0.014774227514863,1.3242766857147217,-0.1009588837623596,-0.3358920812606811,-0.0044641401618719,-0.0387447029352188,0.0,0.0,-0.5729540586471558,-0.1377779245376587
-0.015793228521943,1.3166227340698242,-0.1002490296959877,-0.3401791751384735,-0.0060941218398511,-0.0326027646660804,0.0,0.0,-0.3897786140441894,0.7308475971221924
-0.0167380329221487,1.308864951133728,-0.091483399271965,-0.3448017835617065,-0.0090531846508383,-0.0591868050396442,0.0,0.0,-0.8977136015892029,0.4434385299682617
-0.0176730155944824,1.3010108470916748,-0.0907705500721931,-0.3490891754627228,-0.0117464940994977,-0.0538708455860614,0.0,0.0,-0.4882069230079651,-0.3948317766189575
-0.018598461523652,1.293060302734375,-0.0900608152151107,-0.353376567363739,-0.0141966780647635,-0.0490082427859306,0.0,0.0,-0.8802753686904907,0.414262056350708
-0.0195145606994628,1.2850134372711182,-0.0893542319536209,-0.3576639592647552,-0.0164252202957868,-0.0445748083293437,0.0,0.0,-0.8879410624504089,0.6922745704650879
-0.0203540809452533,1.2768625020980835,-0.0801812037825584,-0.3623056411743164,-0.0201532673090696,-0.0745679587125778,0.0,0.0,-0.91963392496109,0.1742963790893554
-0.0211847312748432,1.268615484237671,-0.0794785916805267,-0.3665935397148132,-0.0237025264650583,-0.0709915235638618,0.0,0.0,-0.9754043817520142,-0.0874550342559814
-0.0220067985355854,1.2602719068527222,-0.0787826925516128,-0.3708815574645996,-0.0270959548652172,-0.0678745582699775,0.0,0.0,-0.8340933322906494,0.3002334833145141
-0.0228206627070903,1.2518320083618164,-0.0780936181545257,-0.3751695454120636,-0.0303550139069557,-0.0651869922876358,0.0,0.0,-0.8867592811584473,-0.2831429243087768
-0.0236265175044536,1.2432955503463743,-0.0774125680327415,-0.3794575333595276,-0.0335014164447784,-0.0629334300756454,0.0,0.0,-0.6526366472244263,0.1058219671249389
-0.0244247429072856,1.234663009643555,-0.0767405331134796,-0.3837455809116363,-0.036556638777256,-0.0611099600791931,0.0,0.0,-0.968622863292694,0.150199294090271
-0.0252156257629394,1.2259340286254885,-0.0760785490274429,-0.3880335986614227,-0.0395419746637344,-0.0597117915749549,0.0,0.0,-0.9730226993560792,0.2201905250549316
-0.0259995460510253,1.2171086072921753,-0.0754277259111404,-0.3923217058181762,-0.0424783788621425,-0.0587330944836139,0.0,0.0,-0.8605864644050598,0.2495750188827514
-0.0267774574458599,1.208165407180786,-0.0748490244150161,-0.3975626826286316,-0.0453866906464099,-0.058166068047285,0.0,0.0,-0.9212304353713988,0.4617654085159302
-0.0275490768253803,1.1991260051727295,-0.074231818318367,-0.4018484652042389,-0.0482873059809207,-0.058012343943119,0.0,0.0,-0.8078883290290833,0.7969183921813965
-0.0282652862370014,1.1899948120117188,-0.0674136653542518,-0.4059662520885467,-0.0524402186274528,-0.0830581039190292,0.0,0.0,-0.9720450043678284,-0.0988848209381103
-0.0289758685976266,1.1807676553726196,-0.0668269246816635,-0.4102529287338257,-0.05662452429533,-0.0836860463023185,0.0,0.0,-0.8830718994140625,0.7084174156188965
-0.0296273231506347,1.17143714427948,-0.0594890527427196,-0.4149142205715179,-0.0622203722596168,-0.1119170039892196,0.0,0.0,-0.7853116393089294,-0.088587999343872
-0.0302740093320608,1.162010669708252,-0.058938167989254,-0.4192022681236267,-0.0678847655653953,-0.1132877916097641,0.0,0.0,-0.8171436786651611,-0.4569220542907715
-0.0309161189943552,1.1524884700775146,-0.0584072284400463,-0.4234905242919922,-0.0736354514956474,-0.115013800561428,0.0,0.0,-0.7897742390632629,-0.535678505897522
-0.0316020958125591,1.1428804397583008,-0.0639049857854843,-0.4272593855857849,-0.0782753527164459,-0.0927979722619056,0.0,0.0,-0.9634934663772584,-0.3430037498474121
-0.0322843566536903,1.133176565170288,-0.0634179860353469,-0.4315470159053802,-0.0830353498458862,-0.0952000468969345,0.0,0.0,-0.8395282030105591,-0.4133023023605346
-0.0329632759094238,1.123376488685608,-0.0629551485180854,-0.4358349144458771,-0.0879314541816711,-0.0979219526052475,0.0,0.0,-0.7905818223953247,-0.1697613000869751
-0.0336393341422081,1.113480806350708,-0.0625178962945938,-0.4401231110095978,-0.0929790213704109,-0.1009513884782791,0.0,0.0,-0.8521530628204346,-0.814895749092102
-0.0343802459537982,1.1034941673278809,-0.0705411881208419,-0.4440736174583435,-0.0964993461966514,-0.0704061761498451,0.0,0.0,-0.6929974555969238,-0.6777366399765015
-0.035168744623661,1.093423843383789,-0.0764008611440658,-0.4477254748344421,-0.098932608962059,-0.0486653819680213,0.0,0.0,-0.6856294274330139,-0.0800509452819824
-0.0359557159245014,1.0832576751708984,-0.0760485902428627,-0.4520126283168793,-0.1015596613287925,-0.052541147917509,0.0,0.0,-0.849818229675293,-0.6334050297737122
-0.0367889404296875,1.0730035305023191,-0.0816856622695922,-0.4558592438697815,-0.1031893864274025,-0.0325942859053611,0.0,0.0,-0.2442463636398315,-0.2440195679664611
-0.0376214981079101,1.0626530647277832,-0.0813971534371376,-0.4601464569568634,-0.1050378903746604,-0.0369699075818061,0.0,0.0,-0.9307047128677368,-0.4948324561119079
-0.0384538657963275,1.0522067546844482,-0.0811425670981407,-0.4644338190555572,-0.10711669921875,-0.0415761433541774,0.0,0.0,-0.8754054307937622,0.1540213823318481
-0.0392864234745502,1.0416641235351562,-0.0809232592582702,-0.4687214195728302,-0.1094367057085037,-0.0464001819491386,0.0,0.0,-0.7437912821769714,0.1227152347564697
-0.040119744837284,1.0310256481170654,-0.0807405039668083,-0.4730092585086822,-0.1120081767439842,-0.0514293499290943,0.0,0.0,-0.7447866201400757,0.0913721323013305
-0.0409542098641395,1.020291447639465,-0.0805955156683921,-0.4772973358631134,-0.1148407384753227,-0.0566510930657386,0.0,0.0,-0.8140423893928528,-0.0369299054145813
-0.0417902953922748,1.0094612836837769,-0.0804894790053367,-0.481585681438446,-0.1179433912038803,-0.0620530359447002,0.0,0.0,-0.967208206653595,-0.1587331295013427
-0.0426285751163959,0.9985353350639344,-0.0804234966635704,-0.4858743250370025,-0.1213245391845703,-0.0676229372620582,0.0,0.0,-0.6000593304634094,-0.4564623832702636
-0.0434693321585655,0.9875134229660034,-0.080398604273796,-0.4901632368564605,-0.1249919831752777,-0.073348730802536,0.0,0.0,-0.996702253818512,-0.2645207047462463
-0.044313333928585,0.9763959050178528,-0.0804157629609108,-0.4944525063037872,-0.1289529204368591,-0.0792186483740806,0.0,0.0,-0.8584914803504944,-0.0528740882873535
-0.0451608672738075,0.9651827216148376,-0.0804758220911026,-0.4987421035766601,-0.1332139521837234,-0.0852210223674774,0.0,0.0,-0.9457768201828004,0.1892676353454589
-0.0460124984383583,0.9538738131523132,-0.0805795565247535,-0.5030320882797241,-0.1377811878919601,-0.0913443863391876,0.0,0.0,-0.9837000966072084,-0.5880010724067688
-0.0469188690185546,0.9424836039543152,-0.0870286896824836,-0.5065640211105347,-0.1413707286119461,-0.0717910379171371,0.0,0.0,-0.99229896068573,-0.5461522936820984
-0.0478655807673931,0.9310023188591005,-0.0916445702314376,-0.5105708241462708,-0.1443849056959152,-0.0602834001183509,0.0,0.0,-0.9841989278793336,0.2914258241653442
-0.0488178245723247,0.919425368309021,-0.091882586479187,-0.5148605108261108,-0.147720068693161,-0.066703625023365,0.0,0.0,-0.9907271265983582,0.0558490753173828
-0.0497761741280555,0.907752811908722,-0.0921662300825119,-0.5191505551338196,-0.1513801515102386,-0.0732013136148452,0.0,0.0,-0.9064781665802002,-0.6598330736160278
-0.0508010871708393,0.8959953188896179,-0.1000305861234664,-0.5228067636489868,-0.1538406312465667,-0.0492098554968833,0.0,0.0,-0.9915647506713868,0.0546931028366088
-0.0518330559134483,0.8841422200202942,-0.1004057899117469,-0.5270965099334717,-0.1566322296857834,-0.0558318309485912,0.0,0.0,-0.9965514540672302,0.6830694675445557
-0.0528067573904991,0.8721808791160583,-0.0925617590546608,-0.5321317911148071,-0.1614361107349395,-0.0960775762796402,0.0,0.0,-0.9965776205062866,0.1201870441436767
-0.0537883751094341,0.8601240515708923,-0.0930287465453147,-0.5364232659339905,-0.1665752977132797,-0.1027838811278343,0.0,0.0,-0.9986007809638976,-0.2930829524993896
-0.0547785758972168,0.84797203540802,-0.0935411900281906,-0.5407150983810425,-0.172051191329956,-0.1095180138945579,0.0,0.0,-0.9954489469528198,-0.9053807258605956
-0.0558429732918739,0.8357337117195129,-0.1022934541106224,-0.5444126725196838,-0.1762094646692276,-0.0831653177738189,0.0,0.0,-0.995417058467865,-0.8551430106163025
-0.0569937713444232,0.8234248757362366,-0.1125968545675277,-0.5473520159721375,-0.1787033528089523,-0.0498780310153961,0.0,0.0,-0.9954687356948853,-0.7182782292366028
-0.058199118822813,0.8110308051109314,-0.1188434362411499,-0.5510501265525818,-0.1803916990756988,-0.0337670370936393,0.0,0.0,-0.999596118927002,-0.0312895774841308
-0.0594146735966205,0.7985411286354065,-0.1195315718650817,-0.5553404688835144,-0.1824177354574203,-0.0405208058655262,0.0,0.0,-0.9964715242385864,-0.7288051247596741
-0.0606973655521869,0.7859660983085632,-0.1273522973060608,-0.5590028166770935,-0.1833412498235702,-0.018470149487257,0.0,0.0,-0.9988670349121094,-0.6220303177833557
-0.0620492920279502,0.7733119130134583,-0.1354423612356186,-0.5623724460601807,-0.1830957978963852,0.0049090525135397,0.0,0.0,-0.9975229501724244,-0.8588706254959106
-0.0634758025407791,0.7605900764465332,-0.1442214995622635,-0.5652263760566711,-0.1815163046121597,0.0315898209810256,0.0,0.0,-0.9946072697639464,-0.4457781314849853
-0.0649141296744346,0.7477725744247437,-0.145072653889656,-0.5695165991783142,-0.1802684962749481,0.0249559022486209,0.0,0.0,-0.9955569505691528,-0.6833038330078125
-0.0664143562316894,0.7348811030387878,-0.1522442996501922,-0.5726861953735352,-0.1780360639095306,0.0446485392749309,0.0,0.0,-0.988197386264801,-0.7900609374046326
-0.067998506128788,0.721909761428833,-0.1621401011943817,-0.5760563015937805,-0.1743004471063614,0.0747121796011924,0.0,0.0,-0.9737251400947572,-0.4584817886352539
-0.069595530629158,0.7088430523872375,-0.163102239370346,-0.5803471207618713,-0.170887753367424,0.0682535842061042,0.0,0.0,-0.9732707738876344,-0.5899688601493835
-0.0712490081787109,0.6956931948661804,-0.1695650368928909,-0.5839588046073914,-0.1666719168424606,0.0843167603015899,0.0,0.0,-0.9514518976211548,-0.0104286074638366
-0.072916030883789,0.6824478507041931,-0.1705949455499649,-0.5882497429847717,-0.1627712249755859,0.0780137032270431,0.0,0.0,-0.9824029207229614,-0.6703200340270996
-0.0746425613760948,0.669118344783783,-0.1774241030216217,-0.591908872127533,-0.1580028533935547,0.0953674986958503,0.0,0.0,-0.9349665641784668,-0.4152765274047851
-0.0763830170035362,0.6556932330131531,-0.1785167157649994,-0.5961998105049133,-0.1535403877496719,0.0892493799328804,0.0,0.0,-0.9704212546348572,-0.1501222252845764
-0.0781376808881759,0.6421727538108826,-0.1796386241912841,-0.6004903316497803,-0.1493786722421646,0.083234429359436,0.0,0.0,-0.985649049282074,-0.1872948408126831
-0.0799068436026573,0.6285564303398132,-0.1807886064052581,-0.6047804355621338,-0.145512193441391,0.0773295238614082,0.0,0.0,-0.9477218985557556,-0.2850085496902466
-0.0816905945539474,0.6148447394371033,-0.1819653958082199,-0.6090701818466187,-0.1419351398944854,0.0715413987636566,0.0,0.0,-0.9622417092323304,0.1187509298324585
-0.0834892243146896,0.6010371446609497,-0.1831677854061126,-0.6133596301078796,-0.1386413127183914,0.0658765286207199,0.0,0.0,-0.9620298743247986,-0.2115274667739868
-0.0853029265999794,0.5871337056159973,-0.1843945384025573,-0.6176487803459167,-0.1356242448091507,0.0603412389755249,0.0,0.0,-0.8314483165740967,0.6405107975006104
-0.0870930701494216,0.5731199383735657,-0.1807553470134735,-0.6226789355278015,-0.1338852494955063,0.0347799770534038,0.0,0.0,-0.9613412022590636,-0.4073922634124756
-0.0888985618948936,0.5590101480484009,-0.1820273101329803,-0.626967191696167,-0.1324091553688049,0.0295220166444778,0.0,0.0,-0.9427109956741332,0.2241866588592529
-0.0907195061445236,0.5448044538497925,-0.1833202242851257,-0.6312552690505981,-0.1311886012554168,0.0244113765656948,0.0,0.0,-0.9433989524841307,0.7111010551452637
-0.0925050750374794,0.5304957628250122,-0.1782431751489639,-0.635971188545227,-0.1315057277679443,-0.0063425959087908,0.0,0.0,-0.9697179794311525,0.1581877470016479
-0.094306468963623,0.516090989112854,-0.1795748174190521,-0.6402589082717896,-0.1320628672838211,-0.0111426953226327,0.0,0.0,-0.6819871068000793,0.8216016292572021
-0.0960498824715614,0.5015758275985718,-0.17166368663311,-0.6453598737716675,-0.1347307860851287,-0.0533582493662834,0.0,0.0,-0.976085364818573,-0.0256649255752563
-0.0978092178702354,0.4869646430015564,-0.173030212521553,-0.6496480107307434,-0.1376221776008606,-0.0578281357884407,0.0,0.0,-0.2653523683547973,0.5325289964675903
-0.0995367020368576,0.4722439050674438,-0.1684027016162872,-0.6546661853790283,-0.1419585943222046,-0.0867283269762992,0.0,0.0,0.4354228973388672,0.3537893295288086
-0.1010835617780685,0.4581368267536163,-0.1507179886102676,-0.6273612380027771,-0.1459098756313324,-0.0790256261825561,0.0,0.0,-0.287192165851593,0.0837941169738769
-0.1026464477181434,0.4439339935779571,-0.1521300077438354,-0.6316499710083008,-0.1500582993030548,-0.0829685777425766,0.0,0.0,0.2313485145568847,-0.358606219291687
-0.104145810008049,0.430466741323471,-0.1455811709165573,-0.5989901423454285,-0.1544143557548523,-0.0871209055185318,0.0,0.0,-0.383450984954834,0.0753142833709716
-0.105661392211914,0.4169037640094757,-0.1470193564891815,-0.6032791137695312,-0.1589491367340088,-0.0906952694058418,0.0,0.0,-0.3681111931800842,0.0854238271713256
-0.1071930900216102,0.4032449722290039,-0.148469477891922,-0.6075681447982788,-0.1636531800031662,-0.094081200659275,0.0,0.0,-0.6110780239105225,0.3410865068435669
-0.1087410002946853,0.3894903659820556,-0.149930864572525,-0.6118572354316711,-0.1685170084238052,-0.0972764268517494,0.0,0.0,0.4439207315444946,0.2386560440063476
-0.1102756485342979,0.376309722661972,-0.1482520401477813,-0.5864066481590271,-0.1737434417009353,-0.1045290008187294,0.0,0.0,-0.7089409232139587,0.433988094329834
-0.11182651668787,0.3630333542823791,-0.1497340202331543,-0.5906959772109985,-0.1791103333234787,-0.1073377281427383,0.0,0.0,0.1550434827804565,-0.1206956505775451
-0.1133386641740799,0.3502529561519623,-0.1456642597913742,-0.5686989426612854,-0.1846833527088165,-0.1114603504538536,0.0,0.0,-0.8402360081672668,0.3960981369018554
-0.114867016673088,0.3373768329620361,-0.1471643596887588,-0.5729883909225464,-0.19037726521492,-0.1138783916831016,0.0,0.0,-0.1131728291511535,0.3605015277862549
-0.1164114028215408,0.3244050443172455,-0.1486726552248001,-0.5772778987884521,-0.196182295680046,-0.1161005869507789,0.0,0.0,-0.5535708069801331,-0.0771331787109375
-0.1179718971252441,0.3113375306129455,-0.150188609957695,-0.5815673470497131,-0.2020886689424514,-0.118127204477787,0.0,0.0,-0.5499756932258606,-0.4706212878227234
-0.1195485144853591,0.2981743216514587,-0.1517117470502853,-0.5858567357063293,-0.2080866247415542,-0.1199588924646377,0.0,0.0,0.1107820272445678,-0.7104458808898926
-0.1211458221077919,0.2854276001453399,-0.1551049500703811,-0.5671790838241577,-0.2127579301595688,-0.0934262573719024,0.0,0.0,0.4509798288345337,0.355220079421997
-0.1227477043867111,0.273391842842102,-0.1550316512584686,-0.5356748700141907,-0.2179755717515945,-0.1043525487184524,0.0,0.0,-0.555022656917572,0.6444617509841919
-0.12432861328125,0.2612465322017669,-0.1519056409597396,-0.5407184958457947,-0.2242303192615509,-0.1250945776700973,0.0,0.0,0.9082646369934082,-0.424896776676178
-0.1256215125322342,0.2501785159111023,-0.1236243844032287,-0.4927873611450195,-0.2299725711345672,-0.1148449555039405,0.0,0.0,0.600975751876831,-0.888942301273346
-0.1268534660339355,0.2395303547382354,-0.1193460598587989,-0.4738593399524688,-0.233880802989006,-0.078164704144001,0.0,0.0,0.4017503261566162,-0.4555000066757202
-0.1278315484523773,0.2296877205371856,-0.094487115740776,-0.4379806816577911,-0.2372548133134842,-0.0674802884459495,0.0,0.0,-0.0832808017730712,-0.8390629887580872
-0.128891184926033,0.2197798639535904,-0.1043463945388794,-0.4406100809574127,-0.2388919740915298,-0.0327435359358787,0.0,0.0,0.6879432201385498,-0.0209452509880065
-0.1296183615922927,0.2109962254762649,-0.0717479437589645,-0.3905394971370697,-0.2398722469806671,-0.0196051020175218,0.0,0.0,0.2419894933700561,-0.8408268690109253
-0.130258172750473,0.202751412987709,-0.0647343099117279,-0.3663161098957062,-0.2391140908002853,0.0151629876345396,0.0,0.0,0.2219513654708862,-0.7205401659011841
-0.1308305710554123,0.1953195482492447,-0.0594159178435802,-0.3299528062343597,-0.2369037866592407,0.0442061088979244,0.0,0.0,-0.476966381072998,-0.4353368282318115
-0.1314186155796051,0.1877913326025009,-0.0609872639179229,-0.3342381715774536,-0.2346860319375991,0.0443553999066352,0.0,0.0,-0.7264514565467834,-0.5598891377449036
-0.1320598572492599,0.1801774352788925,-0.0672888159751892,-0.337897390127182,-0.2314771711826324,0.0641770809888839,0.0,0.0,-0.437259316444397,-0.3159021139144897
-0.1327166557312011,0.1724671870470047,-0.068864107131958,-0.342182844877243,-0.2282456457614898,0.0646305829286575,0.0,0.0,-0.4055643081665039,-0.1039893627166748
-0.1333889067173004,0.1646605283021927,-0.0704407319426536,-0.3464681804180145,-0.2249842882156372,0.0652271658182144,0.0,0.0,-0.1261578202247619,-0.582766056060791
-0.1341229379177093,0.1567731201648712,-0.0778675228357315,-0.3498763740062713,-0.2204704582691192,0.0902762115001678,0.0,0.0,-0.1037378311157226,-0.0169147253036499
-0.1348723471164703,0.1487894356250763,-0.0794459581375122,-0.354162335395813,-0.2159135043621063,0.0911392644047737,0.0,0.0,0.4802770614624023,0.0794363021850586
-0.1354537010192871,0.1411440670490265,-0.0632270202040672,-0.3390606641769409,-0.2107660174369812,0.1029498428106308,0.0,0.0,-0.2769498825073242,-0.6276094317436218
-0.1360903680324554,0.1334183067083358,-0.0698757618665695,-0.342496782541275,-0.2045033127069473,0.1252545118331909,0.0,0.0,0.4849336147308349,0.6329951286315918
-0.1365210562944412,0.1266444027423858,-0.0481319278478622,-0.3003706932067871,-0.1993971168994903,0.1021239161491394,0.0,0.0,-0.2468464374542236,0.2733892202377319
