x_pos,y_pos,x_vel,y_vel,angle,ang_vel,leg_1,leg_2,main_booster,lat_booster
-0.0015295029152184,1.40316641330719,-0.1549158692359924,-0.344611793756485,0.0017624013125896,0.0347647033631801,0.0,0.0,-0.0202559828758239,0.9186058044433594
-0.0029864311218261,1.3949733972549438,-0.145441323518753,-0.3641324639320373,0.0015117821749299,-0.0050124367699027,0.0,0.0,0.191195011138916,0.165593147277832
-0.0043530464172363,1.386758804321289,-0.1368929594755172,-0.3650888204574585,0.0017457446083426,0.0046797953546047,0.0,0.0,0.1030271053314209,0.234260082244873
-0.0058050155639648,1.3785861730575562,-0.1450940072536468,-0.3632276952266693,0.0016371852252632,-0.0021710977889597,0.0,0.0,-0.4873928427696228,0.8557870388031006
-0.0071805953048169,1.3699584007263184,-0.1354202032089233,-0.383461058139801,-0.0004679289413616,-0.0421063192188739,0.0,0.0,0.4236125946044922,0.8098615407943726
-0.008364200592041,1.3615732192993164,-0.1149010881781578,-0.3726799190044403,-0.0038979824166744,-0.0686074867844581,0.0,0.0,-0.610313355922699,-0.0999272465705871
-0.0095525737851858,1.3527297973632812,-0.1154682487249374,-0.3930476605892181,-0.0072338739410042,-0.0667239129543304,0.0,0.0,-0.106065034866333,0.1987154483795166
-0.0107455253601074,1.3434288501739502,-0.1160369738936424,-0.4134075939655304,-0.0104581378400325,-0.0644911378622055,0.0,0.0,0.0763781070709228,0.2868971824645996
-0.0119450567290186,1.3344874382019043,-0.1167846173048019,-0.3974200189113617,-0.0135906413197517,-0.0626555308699607,0.0,0.0,-0.3662890195846557,0.084797978401184
-0.0131487846374511,1.3250877857208252,-0.1173557490110397,-0.4177888333797455,-0.0165767315775156,-0.0597271807491779,0.0,0.0,-0.0713772773742675,0.4892452955245971
-0.0143566131591796,1.3152302503585815,-0.1179275885224342,-0.4381481409072876,-0.0193997882306575,-0.0564661845564842,0.0,0.0,0.206687331199646,0.7914023399353027
-0.0154395103454589,1.305488109588623,-0.1040939837694168,-0.4330423474311828,-0.0235517434775829,-0.0830467194318771,0.0,0.0,-0.1128166913986206,-0.1177268028259277
-0.0165261272341012,1.2952879667282104,-0.1046624034643173,-0.4534095823764801,-0.0275077689439058,-0.079127661883831,0.0,0.0,-0.2505382895469665,0.6558300256729126
-0.0175586696714162,1.2846214771270752,-0.098013162612915,-0.4741739928722381,-0.0327037535607814,-0.1039287596940994,0.0,0.0,-0.8968202471733093,0.3043339252471924
-0.018594741821289,1.2734969854354858,-0.0985772311687469,-0.4945372641086578,-0.0376735106110572,-0.0994043722748756,0.0,0.0,-0.7041718363761902,-0.3324673175811767
-0.0196339599788188,1.2619144916534424,-0.0991411805152893,-0.5149003863334656,-0.0424038730561733,-0.0946157574653625,0.0,0.0,-0.542363166809082,-0.8256868124008179
-0.020726203918457,1.249886989593506,-0.1059790700674057,-0.5346580147743225,-0.04561498016119,-0.0642281323671341,0.0,0.0,0.8126208782196045,-0.8650898933410645
-0.0216989517211914,1.2380026578903198,-0.0963565930724144,-0.5282232761383057,-0.0465172119438648,-0.0180460438132286,0.0,0.0,0.0863107442855835,0.032435655593872
-0.0225861556828022,1.2264461517333984,-0.0883935093879699,-0.5136277079582214,-0.0468435510993003,-0.0065275295637547,0.0,0.0,-0.6615585684776306,-0.2211953401565551
-0.0234761238098144,1.2144312858581543,-0.0889622792601585,-0.5339922308921814,-0.0468800961971282,-0.0007308835047297,0.0,0.0,-0.8239176273345947,-0.1069257259368896
-0.0243687629699707,1.201958179473877,-0.0895282551646232,-0.5543511509895325,-0.0466160625219345,0.00528096081689,0.0,0.0,-0.613943874835968,-0.1301634311676025
-0.0252638813108205,1.1890268325805664,-0.0900916755199432,-0.5747106671333313,-0.0460412316024303,0.01149782538414,0.0,0.0,-0.6802347898483276,-0.3141224384307861
-0.0261613838374614,1.175637125968933,-0.0906515941023826,-0.5950713753700256,-0.0451458469033241,0.0179091766476631,0.0,0.0,-0.5692515969276428,-0.6204061508178711
-0.0271045677363872,1.1617850065231323,-0.0966653004288673,-0.6155747771263123,-0.0428311415016651,0.0462982431054115,0.0,0.0,-0.4953824281692505,-0.2443541288375854
-0.0280500408262014,1.147474765777588,-0.0972204357385635,-0.6359357237815857,-0.040178794413805,0.0530517771840095,0.0,0.0,-0.76445072889328,0.4884985685348511
-0.0289979930967092,1.1326849460601809,-0.0978271216154098,-0.6572498083114624,-0.0371798314154148,0.0599792003631591,0.0,0.0,-0.562699019908905,-0.0959996581077575
-0.0299476627260446,1.1174368858337402,-0.0983622521162033,-0.6776091456413269,-0.0338268466293811,0.067059725522995,0.0,0.0,-0.0348181128501892,0.7814376354217529
-0.0308503154665231,1.1017364263534546,-0.0927991420030593,-0.6977453231811523,-0.0313289761543273,0.0499573871493339,0.0,0.0,-0.3399124145507812,0.3549933433532715
-0.0317544937133789,1.0855778455734253,-0.0933181419968605,-0.7181045413017273,-0.0284635666757822,0.0573082193732261,0.0,0.0,0.4308609962463379,0.1582543849945068
-0.0326661095023155,1.0695949792861938,-0.0943580120801925,-0.7102908492088318,-0.025308733806014,0.0630966871976852,0.0,0.0,0.1256316900253296,-0.0656216740608215
-0.0335515961050987,1.0540186166763306,-0.0921818614006042,-0.6922282576560974,-0.0217157453298568,0.0718595832586288,0.0,0.0,-0.0381442904472351,0.124921441078186
-0.0344379432499408,1.0379841327667236,-0.0926712676882743,-0.7125882506370544,-0.017738377675414,0.0795472711324691,0.0,0.0,-0.28329598903656,0.462874174118042
-0.0353251472115516,1.021491765975952,-0.0931492447853088,-0.7329486012458801,-0.0133718457072973,0.0873310640454292,0.0,0.0,-0.3185417652130127,0.6758368015289307
-0.0361653342843055,1.004534363746643,-0.0876204520463943,-0.7536357641220093,-0.009813698939979,0.0711627826094627,0.0,0.0,-0.2912393808364868,0.1893547773361206
-0.0370059981942176,0.9871190190315248,-0.0880730301141738,-0.7739962339401245,-0.0058578317984938,0.0791172981262207,0.0,0.0,-0.1516933441162109,0.5413248538970947
-0.0378027930855751,0.969249188899994,-0.0829725340008735,-0.7941983938217163,-0.0026093714404851,0.0649689435958862,0.0,0.0,0.7653065919876099,-0.0271174907684326
-0.0386264808475971,0.9516515135765076,-0.0859402865171432,-0.782121479511261,0.0009142886265181,0.0704735964536666,0.0,0.0,-0.1945050358772277,0.7653355598449707
-0.0393856987357139,0.9336015582084656,-0.0782684236764907,-0.8022153377532959,0.0032279531005769,0.0462732538580894,0.0,0.0,0.9430525302886964,0.6185760498046875
-0.0401484481990337,0.916587233543396,-0.0776477605104446,-0.7562028765678406,0.0045887869782745,0.0272165182977914,0.0,0.0,0.6168251037597656,0.6333886384963989
-0.0408332832157611,0.9000083208084106,-0.0690718814730644,-0.7368406653404236,0.0051726177334785,0.0116765480488538,0.0,0.0,-0.1495479345321655,-0.1756895184516906
-0.0415173545479774,0.882971465587616,-0.0694265365600586,-0.7572005391120911,0.0061726807616651,0.0200011823326349,0.0,0.0,0.0925137996673584,0.1498850584030151
-0.0421212203800678,0.8659964799880981,-0.0621950849890708,-0.7544505000114441,0.007968763820827,0.0359215661883354,0.0,0.0,-0.1396057605743408,0.3928534984588623
-0.0427238456904888,0.848563551902771,-0.0625094622373581,-0.774810791015625,0.0101853888481855,0.044332168996334,0.0,0.0,-0.0778478384017944,0.5590047836303711
-0.0432735458016395,0.8306722640991211,-0.0563358888030052,-0.795178234577179,0.0115295061841607,0.0268823690712451,0.0,0.0,0.7810347080230713,0.8426214456558228
-0.0438069328665733,0.8127894401550293,-0.0533378645777702,-0.7947914600372314,0.0115328906103968,6.741491233697161e-05,0.0,0.0,0.6937260627746582,0.2891619205474853
-0.0442952141165733,0.7949633002281189,-0.0494899228215217,-0.7922809720039368,0.0121797332540154,0.0129371974617242,0.0,0.0,0.7596408128738403,0.5893867015838623
-0.0446708686649799,0.7773918509483337,-0.0376508608460426,-0.7809528112411499,0.012263486161828,0.0016750633949413,0.0,0.0,0.5610249042510986,0.2217918634414672
-0.0451600067317485,0.7605420351028442,-0.0489332340657711,-0.7488797903060913,0.0122842723503708,0.0004158235096838,0.0,0.0,-0.102024495601654,-0.0358863472938537
-0.0456464774906635,0.7432340979576111,-0.0491049624979496,-0.7692399621009827,0.0127344951033592,0.009004377759993,0.0,0.0,-0.3738230466842651,-0.0470759868621826
-0.0461300835013389,0.7254684567451477,-0.0492501631379127,-0.7896000146865845,0.013615146279335,0.0176132395863533,0.0,0.0,0.0731459856033325,0.7504327297210693
-0.0464488044381141,0.7078040838241577,-0.0317660868167877,-0.785078763961792,0.0135103045031428,-0.0020968595054,0.0,0.0,0.5269118547439575,-0.059699535369873
-0.0468263626098632,0.6907020211219788,-0.0378457568585872,-0.7600981593132019,0.0135914105921983,0.0016221295809373,0.0,0.0,-0.1567203998565673,0.1847892999649047
-0.0472002997994422,0.6731417775154114,-0.0379081070423126,-0.7804583311080933,0.0141053795814514,0.0102793397381901,0.0,0.0,0.4985954761505127,0.7729061841964722
-0.0475159659981727,0.6562172770500183,-0.0309757087379694,-0.7521941661834717,0.013520591892302,-0.0116956308484077,0.0,0.0,0.2865241765975952,0.4216713905334472
-0.0477164275944232,0.6394066214561462,-0.0204347949475049,-0.7471454739570618,0.0139065459370613,0.0077191526070237,0.0,0.0,0.4969213008880615,0.6307418346405029
-0.0479626655578613,0.6227744817733765,-0.0239833537489175,-0.7391988635063171,0.0132712833583354,-0.0127051789313554,0.0,0.0,-0.1406316757202148,0.5012893676757812
-0.0481581687927246,0.6056899428367615,-0.018180975690484,-0.7593032717704773,0.011918107047677,-0.0270633697509765,0.0,0.0,0.6523895263671875,-0.3248485326766968
-0.0482185371220111,0.5891615152359009,-0.005746959708631,-0.7345924377441406,0.011638605967164,-0.0055902316235005,0.0,0.0,0.1680097579956054,0.2930378913879394
-0.0482272133231163,0.5730491280555725,-0.0012789198663085,-0.7161112427711487,0.0120388511568307,0.0080049373209476,0.0,0.0,-0.1910902857780456,0.817247748374939
-0.04817371442914,0.5564867854118347,0.0059406803920865,-0.7360973954200745,0.0114547051489353,-0.0116829508915543,0.0,0.0,0.6762223243713379,0.4056249856948852
-0.0480665192008018,0.5400309562683105,0.0106262136250734,-0.7313739061355591,0.0115465987473726,0.0018377287779003,0.0,0.0,0.2615346908569336,0.8060834407806396
-0.0479825958609581,0.5239241123199463,0.0095712011680006,-0.7158488631248474,0.0103838387876749,-0.0232551656663417,0.0,0.0,0.7511746883392334,0.8107011318206787
-0.0476894378662109,0.5081827640533447,0.0314007699489593,-0.699603259563446,0.0083197709172964,-0.0412812680006027,0.0,0.0,-0.0717135667800903,0.1322166919708252
-0.0473895072937011,0.4919833838939667,0.0316438674926757,-0.7199636697769165,0.0066915634088218,-0.0325641930103302,0.0,0.0,0.4782991409301758,-0.2861957550048828
-0.0470778457820415,0.4758640825748443,0.032339908182621,-0.7164096236228943,0.0055314972996711,-0.0232013277709484,0.0,0.0,0.6028649806976318,-0.5017375946044922
-0.0469300262629985,0.4601457118988037,0.0148631380870938,-0.6985954642295837,0.0054543064907193,-0.0015436981339007,0.0,0.0,0.9707272052764891,0.7525871992111206
-0.0466928482055664,0.4455099105834961,0.0248013213276863,-0.6504735350608826,0.0043808436021208,-0.021469123661518,0.0,0.0,0.9073147773742676,0.8027544021606445
-0.0462823882699012,0.4309141337871551,0.0430835969746112,-0.6486994624137878,0.0023672278039157,-0.0402720011770725,0.0,0.0,0.3788599967956543,0.5322458744049072
-0.0457990653812885,0.416935384273529,0.0509464964270591,-0.6212752461433411,-0.0002130385837517,-0.0516054853796958,0.0,0.0,0.8976335525512695,-0.4868041276931762
-0.0454154983162879,0.4033142626285553,0.0410346388816833,-0.6053876876831055,-0.0028586832340806,-0.052912950515747,0.0,0.0,0.4117265939712524,0.2665165662765503
-0.0451003089547157,0.3901033401489258,0.0341196283698082,-0.5871610641479492,-0.0054330108687281,-0.0514864437282085,0.0,0.0,-0.5162854194641113,-0.1301122307777404
-0.044776726514101,0.376434326171875,0.0345340892672538,-0.607521116733551,-0.0075734425336122,-0.0428084917366504,0.0,0.0,0.514690637588501,-0.1132603287696838
-0.0445565208792686,0.3634699583053589,0.0242977738380432,-0.5762073397636414,-0.0098268035799264,-0.0450673475861549,0.0,0.0,-0.2880978584289551,0.4949359893798828
-0.0443274490535259,0.3500474691390991,0.0247452110052108,-0.5965670943260193,-0.0116473007947206,-0.0364096909761428,0.0,0.0,0.9168157577514648,0.2480193376541137
-0.0441232696175575,0.3368481397628784,0.0220093745738267,-0.5866500735282898,-0.0132164796814322,-0.0313835777342319,0.0,0.0,0.7872719764709473,0.0875633955001831
-0.0438317283987998,0.3237166106700897,0.0299630202353,-0.5836297869682312,-0.0140137504786252,-0.0159455891698598,0.0,0.0,0.8581998348236084,0.4080829620361328
-0.043561078608036,0.3107002973556518,0.0276018474251031,-0.5785089731216431,-0.0145445829257369,-0.0106166694313287,0.0,0.0,0.9176692962646484,0.1460237503051757
-0.0432772636413574,0.2986068427562713,0.0285204760730266,-0.5374871492385864,-0.0146903274580836,-0.0029147104360163,0.0,0.0,0.6242365837097168,-0.5905777812004089
-0.0429341308772563,0.2872631549835205,0.0326361916959285,-0.5041472911834717,-0.0130242686718702,0.0333210304379463,0.0,0.0,0.3466293811798095,0.2241884469985962
-0.0426640510559082,0.2764623761177063,0.0253131799399852,-0.4800217747688293,-0.0113531667739152,0.0334218963980674,0.0,0.0,0.2743998765945434,0.900223970413208
-0.0424253456294536,0.2655781805515289,0.0236373823136091,-0.4837432503700256,-0.0111226085573434,0.0046113105490803,0.0,0.0,0.5152519941329956,0.4171401262283325
-0.0421318039298057,0.2553225755691528,0.0285164155066013,-0.4557981789112091,-0.0102949803695082,0.0165525712072849,0.0,0.0,0.713371992111206,0.4461812973022461
-0.0419272407889366,0.2455056011676788,0.0196700133383274,-0.4363016188144684,-0.0095288436859846,0.0153228398412466,0.0,0.0,-0.0948383808135986,0.6808247566223145
-0.041663933545351,0.2352327406406402,0.0263773538172245,-0.4565728306770324,-0.0095700332894921,-0.0008238580776378,0.0,0.0,0.5193840265274048,0.1996991634368896
-0.0413954742252826,0.2254664301872253,0.0265146978199481,-0.4340553283691406,-0.0092404494062066,0.0065916678868234,0.0,0.0,-0.2777875661849975,0.5349060297012329
-0.0410684570670127,0.2152414172887802,0.0331702902913093,-0.4544478058815002,-0.0097086112946271,-0.0093631735071539,0.0,0.0,0.4594663381576538,-0.6937007308006287
-0.0407604202628135,0.2050055414438247,0.0294212698936462,-0.4549230337142944,-0.0083368364721536,0.0274353474378585,0.0,0.0,0.5857663154602051,0.310235857963562
-0.0403499603271484,0.1948900371789932,0.0388189889490604,-0.449565976858139,-0.0061370534822344,0.0439955070614814,0.0,0.0,0.5666205883026123,-0.2670742869377136
-0.0397865287959575,0.1851275116205215,0.0530437119305133,-0.4338816702365875,-0.0028780016582459,0.0651809424161911,0.0,0.0,0.2351431846618652,-0.3634077310562134
-0.039107896387577,0.1753488928079605,0.0636615380644798,-0.4346047043800354,0.0012746452121064,0.0830527395009994,0.0,0.0,0.5891599655151367,-0.5535062551498413
-0.0384696014225482,0.1662003397941589,0.0581077113747596,-0.4066167175769806,0.0069218422286212,0.1129438504576683,0.0,0.0,0.4073843955993652,-0.6991469860076904
-0.0378517135977745,0.15756855905056,0.0541953817009925,-0.383684903383255,0.0144155565649271,0.1498742699623108,0.0,0.0,-0.1629530191421508,0.7288163900375366
-0.0371541008353233,0.1484837383031845,0.0635378360748291,-0.4038442373275757,0.020562769845128,0.1229440569877624,0.0,0.0,0.4900575876235962,-0.5777917504310608
-0.0363992676138877,0.1393787413835525,0.0674508139491081,-0.4048011004924774,0.0284871198236942,0.1584872454404831,0.0,0.0,0.2037914991378784,0.2232218980789184
-0.0356831550598144,0.1303712427616119,0.0633675307035446,-0.4005100131034851,0.0366298779845237,0.1628553867340088,0.0,0.0,0.3120114803314209,0.7888619899749756
-0.0348438248038291,0.1219507530331611,0.0767919346690177,-0.3744361102581024,0.0436838045716285,0.1410784572362899,0.0,0.0,0.4309709072113037,-0.6470556259155273
-0.0340891852974891,0.1138069257140159,0.066678337752819,-0.362229973077774,0.052368339151144,0.1736907958984375,0.0,0.0,0.1164426803588867,0.226319670677185
-0.0334362983703613,0.1060048416256904,0.0564926452934742,-0.3470883965492248,0.0610457547008991,0.1735484898090362,0.0,0.0,0.0162609815597534,-0.2710767984390259
-0.0327462181448936,0.0983936637639999,0.0596024468541145,-0.338684618473053,0.0703473463654518,0.186032086610794,0.0,0.0,-0.0985789895057678,0.8639234304428101
-0.0319843292236328,0.0903385952115058,0.0680069103837013,-0.3584100902080536,0.0784506350755691,0.1620658040046692,0.0,0.0,0.7496652603149414,0.5633721351623535
-0.0313237197697162,0.083010658621788,0.0588989630341529,-0.3260785341262817,0.085543654859066,0.1418604105710983,0.0,0.0,0.333462119102478,0.7396385669708252
-0.0306513793766498,0.075828418135643,0.0612312071025371,-0.3195651769638061,0.0914889276027679,0.1189057677984237,0.0,0.0,0.6165664196014404,0.935797929763794
-0.0300771705806255,0.0690613090991973,0.0531219914555549,-0.3010289072990417,0.0957516878843307,0.0852549374103546,0.0,0.0,0.5351994037628174,0.9302170276641846
-0.0296236984431743,0.0625491216778755,0.0427614375948905,-0.2895964384078979,0.0983186513185501,0.0513393469154834,0.0,0.0,0.673090934753418,0.7960066795349121
-0.0290515907108783,0.0566971860826015,0.0556639209389686,-0.2601925432682037,0.0998462885618209,0.0305530820041894,0.0,0.0,-0.1279807090759277,0.7993596792221069
-0.0284000393003225,0.0503909923136234,0.0650642961263656,-0.2802827656269073,0.0999428629875183,0.0019311722135171,0.0,0.0,0.8339760303497314,0.7804951667785645
-0.0275871269404888,0.044932659715414,0.0820710584521293,-0.2425382584333419,0.0991629436612129,-0.0155979637056589,0.0,0.0,-0.0479993820190429,-0.6783690452575684
-0.0268205646425485,0.0390140637755394,0.07573252171278,-0.2631123661994934,0.1000853329896926,0.0184475779533386,0.0,0.0,0.6397550106048584,-0.3192685842514038
-0.0259882919490337,0.0339247323572635,0.0813504308462143,-0.2263181656599044,0.1019510105252265,0.0373134389519691,0.0,0.0,0.3510603904724121,-0.0151377916336059
-0.0251327510923147,0.029094610363245,0.0831046402454376,-0.2148418575525283,0.1043802350759506,0.0485845580697059,0.0,0.0,0.4172658920288086,-0.6430624723434448
-0.0243987087160348,0.0248491391539573,0.0694151520729065,-0.1889698356389999,0.1083369255065918,0.0791342407464981,0.0,0.0,-0.0344308018684387,0.2976861000061035
-0.0236555095762014,0.0201461892575025,0.0700809881091117,-0.2093330174684524,0.1125393062829971,0.0840476602315902,0.0,0.0,0.7522042989730835,0.4014164209365845
-0.0228731147944927,0.0157249793410301,0.0733838230371475,-0.1968746930360794,0.1173665300011634,0.0965443700551986,0.0,0.0,0.5556778907775879,0.5928401947021484
-0.022227382287383,0.0117008062079548,0.0609883740544319,-0.1791372448205948,0.1209301277995109,0.0712718665599823,0.0,1.0,0.9768742322921752,0.9298523664474488
-0.0218410491943359,0.0088852019980549,0.0556216314435005,-0.1240903809666633,0.1033359616994857,-0.3528337478637695,0.0,1.0,0.7129616737365723,0.2194445133209228
-0.0216379165649414,0.0070227477699518,0.052791029214859,-0.0808569192886352,0.0711001232266426,-0.644782304763794,0.0,1.0,0.6046547889709473,-0.2140451669692993
-0.0214826576411724,0.0057030296884477,0.0536080971360206,-0.0572876520454883,0.0333997160196304,-0.7540743947029114,0.0,1.0,0.4015159606933594,-0.6507235765457153
-0.0212365146726369,0.0043520187027752,0.0594428889453411,-0.0596255846321582,-0.0009868639754131,-0.6877323389053345,0.0,1.0,0.1795227527618408,-0.414273202419281
-0.0209202766418457,0.0032906150445342,0.0661287456750869,-0.0475461333990097,-0.0350529067218303,-0.6813220977783203,0.0,0.0,-0.112453818321228,-0.9627147316932678
-0.0205842014402151,0.0025064803194254,0.0470936000347137,-0.0352236069738864,-0.0483655855059623,-0.2662422060966491,1.0,0.0,-0.0602293610572814,-0.4020474553108215
-0.0201333053410053,0.0019414639100432,0.0396278165280818,-0.0249434486031532,-0.0429656729102134,0.1079989224672317,1.0,0.0,-0.6157614588737488,-0.1015570163726806
