x_pos,y_pos,x_vel,y_vel,angle,ang_vel,leg_1,leg_2,main_booster,lat_booster
-0.001516532851383,1.4031636714935305,-0.1533709466457367,-0.3447335958480835,0.0015308051370084,0.0301793664693832,0.0,0.0,0.6540734111852406,0.7315517165344528
-0.0029127120506018,1.3956589698791504,-0.1395625621080398,-0.3335461914539337,0.0014736885204911,-0.0011417079949751,0.0,0.0,-0.2188400461935036,-0.8992534798171882
-0.004357433412224,1.387686014175415,-0.1455878615379333,-0.3543559908866882,0.0025821006856858,0.0221702829003334,0.0,0.0,0.3599031159074428,0.0511619680340584
-0.0058949468657374,1.3798686265945437,-0.1541866660118103,-0.3474386036396026,0.0030081667937338,0.008522069081664,0.0,0.0,-0.1129751913532903,0.645732635011125
-0.007364940829575,1.3715927600860596,-0.1456525176763534,-0.367821604013443,0.0016825969796627,-0.026514071971178,0.0,0.0,0.8934446225602155,-0.4704635682517647
-0.0086730001494288,1.3637900352478027,-0.1300217509269714,-0.3467901945114136,0.0009175327722914,-0.0153026711195707,0.0,0.0,0.7722764194302061,-0.0850704908686179
-0.0100003238767385,1.3564553260803225,-0.1316656768321991,-0.3259839713573456,-0.000145885584061,-0.0212703831493854,0.0,0.0,-0.2870304989390364,-0.7611985202669312
-0.0113678928464651,1.3486618995666504,-0.1366504579782486,-0.3463722765445709,-0.0002459191018715,-0.0020007130224257,0.0,0.0,-0.7967893853207184,-0.2811580185882371
-0.0127308843657374,1.3404077291488647,-0.1360313147306442,-0.3668519854545593,-0.0005066905287094,-0.0052160574123263,0.0,0.0,-0.6220307128741298,-0.2033905291591404
-0.0140895843505859,1.3316926956176758,-0.1354629844427108,-0.3873345553874969,-0.0009159232722595,-0.0081852274015545,0.0,0.0,0.4643643695873956,0.8637902040869809
-0.015289974398911,1.3233075141906738,-0.1178647130727768,-0.3726738095283508,-0.0030557874124497,-0.0428014919161796,0.0,0.0,0.8417313070125505,-0.6856447607985796
-0.0164539329707622,1.315343141555786,-0.1156977042555809,-0.3539720475673675,-0.0037465370260179,-0.0138164460659027,0.0,0.0,0.0204709094927251,0.2829333001910771
-0.0175329204648733,1.3075655698776243,-0.1074702590703964,-0.3456756770610809,-0.0041698534041643,-0.0084671508520841,0.0,0.0,0.4884511268631539,-0.4594091566499871
-0.0185459144413471,1.2998064756393433,-0.1010709181427955,-0.3448468446731567,-0.0043985419906675,-0.0045741745270788,0.0,0.0,-0.3572423078725846,-0.2320310288946546
-0.0195570942014455,1.2915865182876587,-0.1007933169603347,-0.3653318285942077,-0.0047132335603237,-0.0062940986827015,0.0,0.0,0.8526529683519859,0.0896914313489831
-0.0204421989619731,1.28340482711792,-0.0887118875980377,-0.3636274337768554,-0.004522138275206,0.0038221508730202,0.0,0.0,-0.9212247996788924,-0.4172431214112917
-0.0213265419006347,1.2747622728347778,-0.088564284145832,-0.3841148912906647,-0.0043906462378799,0.0026300747413188,0.0,0.0,-0.6187433000285549,0.9197962414132616
-0.0221207626163959,1.265650510787964,-0.0772202163934707,-0.4049769341945648,-0.0065616909414529,-0.0434249825775623,0.0,0.0,0.1867065416646236,-0.6195102286863298
-0.0228825565427541,1.2569483518600464,-0.0753181502223014,-0.3867683708667755,-0.0074048773385584,-0.0168655104935169,0.0,0.0,0.4414450601272415,0.4671275208197643
-0.0237116813659667,1.248526692390442,-0.0817068964242935,-0.3743063509464264,-0.0085961632430553,-0.0238278247416019,0.0,0.0,0.5463312157835774,0.7755328159538837
-0.0243422500789165,1.2407026290893557,-0.0605188608169555,-0.3477455973625183,-0.0111006377264857,-0.0500942096114158,0.0,0.0,0.7516442118379192,-0.1492530143924335
-0.0249568931758403,1.2331211566925049,-0.0589949786663055,-0.3369709849357605,-0.0135378390550613,-0.0487484708428382,0.0,0.0,-0.7711569998096441,-0.1662866843317559
-0.0255738254636526,1.22507905960083,-0.0592451617121696,-0.357456624507904,-0.0159526038914918,-0.0482996627688407,0.0,0.0,0.6814515215971193,-0.9374945616237874
-0.0261829383671283,1.2170419692993164,-0.0605133101344108,-0.3572085499763489,-0.016354639083147,-0.0080414023250341,0.0,0.0,-0.2726556251698988,0.0149871886613266
-0.0267955772578716,1.2085440158843994,-0.0609040670096874,-0.3776959478855133,-0.0167093146592378,-0.0070937438867986,0.0,0.0,-0.8204732414266724,-0.4064622667110927
-0.0274124145507812,1.1995635032653809,-0.0613832771778106,-0.3991314768791199,-0.0170025676488876,-0.0058651180006563,0.0,0.0,0.3725758362389222,-0.5432568235150268
-0.0280629154294729,1.1910319328308103,-0.0659295916557312,-0.37917560338974,-0.0161343608051538,0.017364252358675,0.0,0.0,-0.3885221796473725,-0.4029612346883244
-0.028718376532197,1.1820393800735474,-0.0665136873722076,-0.3996571600437164,-0.0151811307296156,0.0190645717084407,0.0,0.0,-0.8124971652521076,0.1952971353545639
-0.0293792728334665,1.1725859642028809,-0.0671587660908699,-0.4201386868953705,-0.014131374657154,0.0209950804710388,0.0,0.0,0.3403832679682976,-0.0697939330703899
-0.0300576202571392,1.1632654666900637,-0.0689266249537468,-0.414235919713974,-0.0130528286099433,0.021571047604084,0.0,0.0,0.6817249003798993,-0.3628681501121227
-0.0307120326906442,1.1547762155532837,-0.0667448863387107,-0.3772850632667541,-0.0117678781971335,0.0256989412009716,0.0,0.0,-0.9716112017631532,0.5500180721282959
-0.0313354507088661,1.1458224058151243,-0.0628073811531066,-0.3979465663433075,-0.0113070048391819,0.0092176590114831,0.0,0.0,-0.967837929725647,0.7094849348068237
-0.0319176688790321,1.136413335800171,-0.0575915277004241,-0.4181777238845825,-0.011924966238439,-0.0123593043535947,0.0,0.0,-0.9162859916687012,0.4026631116867065
-0.0325075164437294,1.126543641090393,-0.0585093796253204,-0.4386591911315918,-0.0123951854184269,-0.0094043891876935,0.0,0.0,-0.9178043007850648,-0.3710936307907104
-0.0331053733825683,1.1162129640579224,-0.0594746842980384,-0.4591406285762787,-0.0127087412402033,-0.0062709683552384,0.0,0.0,-0.9843719005584716,0.4401832818984985
-0.0337117202579975,1.1054214239120483,-0.0604849644005298,-0.4796220362186432,-0.0128571391105651,-0.0029678982682526,0.0,0.0,-0.9571533799171448,0.7305470705032349
-0.0342716202139854,1.0941643714904783,-0.054603487253189,-0.5003291368484497,-0.0142220016568899,-0.027297306805849,0.0,0.0,-0.3778640031814575,-0.0700228214263916
-0.0348404869437217,1.0824464559555054,-0.0556963384151458,-0.5208106637001038,-0.0154060497879982,-0.0236808136105537,0.0,0.0,-0.9763931632041932,-0.5170325636863708
-0.0354624763131141,1.0702743530273438,-0.0622894465923309,-0.5409806966781616,-0.015306394547224,0.0019927700050175,0.0,0.0,-0.9867835640907288,0.3297674655914306
-0.0360940918326377,1.0576415061950684,-0.0634553059935569,-0.5614621043205261,-0.0150119280442595,0.0058892336674034,0.0,0.0,-0.946346402168274,0.6047942638397217
-0.0366961471736431,1.0445517301559448,-0.0597089454531669,-0.5817663073539734,-0.0155054861679673,-0.0098712304607033,0.0,0.0,-0.8058479428291321,-0.5386077165603638
-0.0373423583805561,1.0310009717941284,-0.0651913434267044,-0.6022577881813049,-0.0149403270334005,0.011303168721497,0.0,0.0,-0.9149398803710938,-0.4770393371582031
-0.0379989631474018,1.0169891119003296,-0.0664499625563621,-0.6227390766143799,-0.0141622619703412,0.0155609920620918,0.0,0.0,-0.9703472852706908,-0.4767529368400574
-0.0386663451790809,1.002516508102417,-0.0677353888750076,-0.6432203650474548,-0.0131660215556621,0.0199247933924198,0.0,0.0,-0.8311876654624939,-0.1635574102401733
-0.0393444076180458,0.9875829219818116,-0.0690457075834274,-0.6637017130851746,-0.0119466250762343,0.0243877340108156,0.0,0.0,-0.8212020397186279,0.3475821018218994
-0.0400335304439067,0.9721886515617372,-0.07037915289402,-0.6841831207275391,-0.0104994587600231,0.0289434287697076,0.0,0.0,-0.870717465877533,0.3495604991912842
-0.0407339110970497,0.9563333988189696,-0.0717340260744094,-0.7046645879745483,-0.0088201686739921,0.0335856154561042,0.0,0.0,-0.3392583727836609,0.4478602409362793
-0.041445542126894,0.9400172829627992,-0.0731087177991867,-0.7251462340354919,-0.0069047505967319,0.0383083708584308,0.0,0.0,-0.5907815098762512,0.1210548877716064
-0.0421688072383403,0.9232405424118042,-0.0745017454028129,-0.7456279397010803,-0.0047494466416537,0.0431061312556266,0.0,0.0,-0.6366661190986633,0.4660549163818359
-0.0429036132991313,0.9060028791427612,-0.0759117156267166,-0.7661097645759583,-0.0023507552687078,0.0479734987020492,0.0,0.0,-0.8608047366142273,0.0535370111465454
-0.0436501502990722,0.888304591178894,-0.0773373246192932,-0.7865917086601257,0.0002945013984572,0.0529053695499897,0.0,0.0,0.5608400106430054,0.8841784000396729
-0.0443998351693153,0.871195375919342,-0.0760401487350463,-0.7604119777679443,0.0013474889565259,0.0210599415004253,0.0,0.0,0.0986223220825195,-0.1155816912651062
-0.0450891479849815,0.8540688753128052,-0.0706034153699874,-0.7611789703369141,0.0029890884179621,0.0328319407999515,0.0,0.0,0.5692713260650635,0.106544017791748
-0.0457899086177349,0.8376181125640869,-0.0720035880804061,-0.7311484217643738,0.0048995953984558,0.0382104255259037,0.0,0.0,-0.6840858459472656,0.3446507453918457
-0.0465026870369911,0.8207066059112549,-0.073480412364006,-0.751630425453186,0.0070672975853085,0.0433539077639579,0.0,0.0,-0.4139822125434875,0.1320952177047729
-0.0472277626395225,0.8033344745635986,-0.0749676004052162,-0.7721125483512878,0.0094942841678857,0.0485398098826408,0.0,0.0,0.425060510635376,0.7536913156509399
-0.0478217117488384,0.7865417003631592,-0.0607377775013446,-0.7463549971580505,0.0108245825394988,0.0266057755798101,0.0,0.0,0.0328787565231323,0.4898710250854492
-0.0483463294804096,0.7699218988418579,-0.0544751696288585,-0.7386695146560669,0.0128169609233737,0.0398475527763366,0.0,0.0,-0.4697860479354858,0.6652581691741943
-0.0488242134451866,0.7528495788574219,-0.0485695153474807,-0.7587836980819702,0.0135864177718758,0.0153890457004308,0.0,0.0,0.1245782375335693,0.2973065376281738
-0.0493736267089843,0.7361174821853638,-0.055756140500307,-0.7436555027961731,0.0143819861114025,0.0159116759896278,0.0,0.0,0.0010594129562377,0.3972694873809814
-0.0499078743159771,0.719261884689331,-0.0546494834125041,-0.7491520643234253,0.0155882285907864,0.0241250786930322,0.0,0.0,-0.0088898539543151,0.6338833570480347
-0.0504130348563194,0.7019497156143188,-0.050941027700901,-0.7694332003593445,0.0160118471831083,0.0084723504260182,0.0,0.0,0.0778449773788452,0.3984612226486206
-0.0508556365966796,0.684684693813324,-0.0453403666615486,-0.7673426270484924,0.017077412456274,0.0213112942874431,0.0,0.0,0.3468477725982666,0.2031948566436767
-0.0513003356754779,0.6677089929580688,-0.0459058210253715,-0.7544963955879211,0.0185018498450517,0.0284887216985225,0.0,0.0,0.1550902128219604,0.8160750865936279
-0.0516919121146202,0.6506885886192322,-0.0392370298504829,-0.7564586997032166,0.0185785889625549,0.0015348106389865,0.0,0.0,0.5533363819122314,0.5815813541412354
-0.0521862991154193,0.634039044380188,-0.0483262427151203,-0.7399677634239197,0.0174691788852214,-0.0221880935132503,0.0,0.0,0.1386986970901489,0.6186791658401489
-0.0526385307312011,0.6178221702575684,-0.0431490316987037,-0.7207216024398804,0.015425038523972,-0.0408827625215053,0.0,0.0,-0.2004307508468628,-0.2192742228507995
-0.0531036369502544,0.6011447906494141,-0.0447101891040802,-0.7412039041519165,0.0136526972055435,-0.0354467742145061,0.0,0.0,0.2708410024642944,0.8951743841171265
-0.0534957870841026,0.5850037932395935,-0.035909466445446,-0.717349648475647,0.0103877913206815,-0.0652981027960777,0.0,0.0,-0.5817176103591919,0.4347196817398071
-0.0539008155465126,0.5684021711349487,-0.0374767072498798,-0.737832248210907,0.0073948008939623,-0.0598596259951591,0.0,0.0,0.1087831258773803,0.7593096494674683
-0.0543329231441021,0.5520246028900146,-0.0388664416968822,-0.7278767824172974,0.0031087156385183,-0.0857217907905578,0.0,0.0,0.0031667947769165,0.3064424991607666
-0.054760456085205,0.5357533097267151,-0.0387744158506393,-0.7231637835502625,-0.0008194192778319,-0.0785628333687782,0.0,0.0,0.1990796327590942,0.543687105178833
-0.0552601814270019,0.5199471116065979,-0.0449634939432144,-0.7025108933448792,-0.0057587828487157,-0.0987873449921608,0.0,0.0,-0.6782490015029907,0.1358270645141601
-0.055772878229618,0.5036802887916565,-0.0465394631028175,-0.7229943871498108,-0.0104274665936827,-0.0933734625577926,0.0,0.0,0.7412614822387695,0.2156035900115966
-0.0563297271728515,0.4875716865062713,-0.0510726980865001,-0.7159762978553772,-0.014990453608334,-0.0912596881389617,0.0,0.0,0.6709442138671875,-0.4420799016952514
-0.056826114654541,0.4714940190315246,-0.0456029996275901,-0.7146095037460327,-0.0189659297466278,-0.0795096009969711,0.0,0.0,0.972299575805664,-0.1333940029144287
-0.0573655143380165,0.4555644094944,-0.0500080585479736,-0.7080376744270325,-0.0228474382311105,-0.0776300281286239,0.0,0.0,0.9404251575469972,0.0704193115234375
-0.057906437665224,0.4405714273452759,-0.0503939762711524,-0.6664152145385742,-0.026506895199418,-0.0731890276074409,0.0,0.0,0.9239847660064696,0.6440441608428955
-0.0582843795418739,0.4265426993370056,-0.0333191975951194,-0.6235852837562561,-0.0309193581342697,-0.0882494300603866,0.0,0.0,0.4870150089263916,0.2601730823516845
-0.0587535873055458,0.4131609201431274,-0.0422468930482864,-0.5948497653007507,-0.0355338491499424,-0.092289887368679,0.0,0.0,0.1591508388519287,-0.5705880522727966
-0.0593733787536621,0.3996685445308685,-0.0585422217845916,-0.5997430086135864,-0.0389263294637203,-0.067849576473236,0.0,0.0,-0.1604577302932739,0.5737783908843994
-0.0599576942622661,0.3857177495956421,-0.0540365688502788,-0.6201549172401428,-0.0432736612856388,-0.0869465544819831,0.0,0.0,0.714260458946228,0.3749440908432007
-0.0606345161795616,0.3722079992294311,-0.0630452409386634,-0.6005754470825195,-0.0478465519845485,-0.0914575606584549,0.0,0.0,-0.8163993954658508,0.8269495964050293
-0.0612648949027061,0.3582367897033691,-0.057160448282957,-0.6211413741111755,-0.0536554604768753,-0.1161782592535018,0.0,0.0,0.9881889820098876,0.1202480792999267
-0.0618777275085449,0.345066636800766,-0.0555960834026336,-0.5855560302734375,-0.0592737719416618,-0.112366184592247,0.0,0.0,0.9475337266921996,-0.1157479286193847
-0.0623604767024517,0.3324535191059112,-0.0433315187692642,-0.5607845187187195,-0.0641613453626632,-0.0977515876293182,0.0,0.0,0.5944795608520508,0.1158528327941894
-0.0628124251961708,0.3198719620704651,-0.040616039186716,-0.5593814253807068,-0.0686900243163108,-0.0905736535787582,0.0,0.0,0.6171820163726807,-0.5965307354927063
-0.0631999969482421,0.3074097633361816,-0.0358723923563957,-0.5540106892585754,-0.0715442225337028,-0.0570836961269378,0.0,0.0,0.5527175664901733,-0.8664186000823975
-0.0634761825203895,0.2952799797058105,-0.0269510503858327,-0.5391328930854797,-0.0722067430615425,-0.0132503630593419,0.0,0.0,0.6862027645111084,0.4249193668365478
-0.0635946244001388,0.2832759022712707,-0.0120953619480133,-0.5335003137588501,-0.0719652473926544,0.0048302202485501,0.0,0.0,0.8935391902923584,0.1064504384994506
-0.0636710152029991,0.2720997333526611,-0.0080925179645419,-0.4966970086097717,-0.0715105459094047,0.0090938527137041,0.0,0.0,0.6260895729064941,0.745067834854126
-0.0636148452758789,0.2615752518177032,0.0063538975082337,-0.4677898287773132,-0.0722330063581466,-0.0144491670653224,0.0,0.0,-0.4057230353355407,0.2757763862609863
-0.0635718330740928,0.2505897879600525,0.0047848201356828,-0.4882700741291046,-0.072718009352684,-0.0097000654786825,0.0,0.0,0.1255947351455688,-0.7498893141746521
-0.063507080078125,0.239465907216072,0.0051462175324559,-0.4943294823169708,-0.0714097321033477,0.0261656604707241,0.0,0.0,0.5695534944534302,-0.5529402494430542
-0.0635185241699218,0.2286137640476226,-0.0036717094480991,-0.4821997284889221,-0.0689045935869216,0.0501027628779411,0.0,0.0,0.6162419319152832,-0.1304830312728881
-0.063402459025383,0.2185551226139068,0.0084550818428397,-0.4469071626663208,-0.0657886937260627,0.0623178370296955,0.0,0.0,-0.5723082423210144,-0.0382699966430664
-0.0632996559143066,0.2080356478691101,0.0068982308730483,-0.4673883318901062,-0.0624486021697521,0.0668019577860832,0.0,0.0,0.4903501272201538,0.1809715032577514
-0.0632774382829666,0.1981400102376938,-0.0008523588767275,-0.4396774172782898,-0.0594072267413139,0.060827612876892,0.0,0.0,-0.0712805986404419,0.2992476224899292
-0.0632684677839279,0.1877836138010025,-0.002400983357802,-0.4601587355136871,-0.0561491064727306,0.0651620030403137,0.0,0.0,0.6385494470596313,0.8344442844390869
-0.0632238388061523,0.1780861020088195,0.0027407032903283,-0.4309366941452026,-0.054435733705759,0.034267358481884,0.0,0.0,-0.5012155771255493,0.3045847415924072
-0.0631923675537109,0.1679276078939438,0.0012020173016935,-0.4514175653457641,-0.0525137111544609,0.0384406968951225,0.0,0.0,0.3918662071228027,0.7457499504089355
-0.0631166473031044,0.1579314023256302,0.006958819925785,-0.4442576467990875,-0.0519074276089668,0.0121258459985256,0.0,0.0,0.6629010438919067,-0.0550607442855834
-0.0631400123238563,0.1483900398015976,-0.0026024568360298,-0.424050897359848,-0.0516442954540252,0.0052627795375883,0.0,0.0,0.2499713897705078,-0.0908514857292175
-0.0632698088884353,0.1389900743961334,-0.0129126459360122,-0.4177761375904083,-0.051712267100811,-0.0013593377079814,0.0,0.0,0.4254258871078491,0.3732370138168335
-0.0632894486188888,0.1300508826971054,-0.0025193146429955,-0.3972786664962768,-0.0511665605008602,0.0109141441062092,0.0,0.0,0.4478157758712768,0.3504964113235473
-0.063252069056034,0.1211310029029846,0.0027483445592224,-0.3964061737060547,-0.050185989588499,0.0196112915873527,0.0,0.0,0.5697016716003418,0.2199633121490478
-0.0630537047982215,0.1128257364034652,0.0180104691535234,-0.3690636456012726,-0.0483866035938262,0.035987950861454,0.0,0.0,0.3818105459213257,-0.7263978719711304
-0.0629155188798904,0.1050437539815902,0.010385557077825,-0.3457570970058441,-0.0449981540441513,0.0677691772580146,0.0,0.0,0.1103461980819702,0.0166773796081542
-0.0626688003540039,0.0976551622152328,0.0206260327249765,-0.3282663226127624,-0.0409948490560054,0.0800661891698837,0.0,0.0,-0.3816608190536499,0.5866384506225586
-0.062382698059082,0.089802585542202,0.0257195867598056,-0.3489256501197815,-0.0381404496729373,0.0570880360901355,0.0,0.0,0.7263647317886353,0.4190107583999634
-0.0620843879878521,0.0827684700489044,0.02680622972548,-0.312553346157074,-0.0351601503789424,0.0596060454845428,0.0,0.0,-0.0834726095199585,0.9226016998291016
-0.061718463897705,0.0752773880958557,0.035465084016323,-0.3329107463359833,-0.0340435877442359,0.0223311893641948,0.0,0.0,0.6738803386688232,0.1395055055618286
-0.0612677559256553,0.0680176094174385,0.0434010177850723,-0.3226187825202942,-0.0323994308710098,0.0328832082450389,0.0,0.0,0.5242475271224976,-0.361047625541687
-0.0609240531921386,0.0611576661467552,0.0330934971570968,-0.3048581480979919,-0.0311328321695327,0.0253320392221212,0.0,0.0,0.6798412799835205,0.0202099084854125
-0.060706902295351,0.0546276681125164,0.0209009852260351,-0.2902053296566009,-0.0303311087191104,0.0160347633063793,0.0,0.0,0.5457882881164551,0.8545082807540894
-0.0604410171508789,0.0484250411391258,0.0273896008729934,-0.2756887376308441,-0.0311282556504011,-0.0159429777413606,0.0,0.0,0.4802608489990234,0.5604853630065918
-0.0601030364632606,0.0424738973379135,0.0355468913912773,-0.2645344138145447,-0.0328531526029109,-0.0344981737434864,0.0,0.0,0.4311361312866211,-0.4295183420181274
-0.0596537590026855,0.0365232564508914,0.0460220016539096,-0.2644969522953033,-0.0339327715337276,-0.0215924065560102,0.0,0.0,0.5343341827392578,0.8694407939910889
-0.0590242370963096,0.0310589894652366,0.0655339509248733,-0.242917999625206,-0.0364863276481628,-0.0510708801448345,0.0,0.0,0.0889080762863159,-0.0667904615402221
-0.0583704002201557,0.0259299613535404,0.0677744895219802,-0.2280185520648956,-0.0388528481125831,-0.0473306477069854,0.0,0.0,0.1150680780410766,-0.4184192419052124
