x_pos,y_pos,x_vel,y_vel,angle,ang_vel,leg_1,leg_2,main_booster,lat_booster
-0.0014792442088946,1.4031450748443604,-0.1494882553815841,-0.3455609679222107,0.0013923092046752,0.0274373237043619,0.0,0.0,-0.1989152431488037,0.7302556037902832
-0.0028491020202636,1.394910216331482,-0.1364314705133438,-0.3659945130348205,0.0008441897225566,-0.0109629053622484,0.0,0.0,0.1012481451034545,0.5198535919189453
-0.0040304185822606,1.386595606803894,-0.1164044141769409,-0.3695353865623474,-0.0008538174442946,-0.0339633375406265,0.0,0.0,0.2226923704147339,0.6302199363708496
-0.0052072526887059,1.3783541917800903,-0.1142225414514541,-0.3662912249565124,-0.004283080343157,-0.0685916543006897,0.0,0.0,-0.182719349861145,-0.0530927777290344
-0.0063293455168604,1.3696333169937134,-0.1084547489881515,-0.3876053392887115,-0.0080035058781504,-0.0744150131940841,0.0,0.0,0.2632920742034912,0.079300045967102
-0.0072863576933741,1.3610550165176392,-0.0921695679426193,-0.3812831342220306,-0.0114980619400739,-0.0698978751897811,0.0,0.0,-0.3602854013442993,-0.6758424639701843
-0.0082398410886526,1.3519980907440186,-0.0929455384612083,-0.4025470912456512,-0.0138633344322443,-0.0473096892237663,0.0,0.0,-0.7357456684112549,-0.1453258991241455
-0.0091324802488088,1.3424619436264038,-0.0866350829601287,-0.4238558411598205,-0.0164693277329206,-0.0521247312426567,0.0,0.0,-0.8267143368721008,-0.1344698667526245
-0.0099627496674656,1.3324463367462158,-0.0801687836647033,-0.4451670050621032,-0.0192963331937789,-0.0565452799201011,0.0,0.0,-0.3877476453781128,0.3301087617874145
-0.0107288360595703,1.3219515085220337,-0.0735595524311065,-0.4664784073829651,-0.0223248451948165,-0.0605755634605884,0.0,0.0,-0.8440164923667908,-0.5344332456588745
-0.0114656444638967,1.310978889465332,-0.0713454931974411,-0.4877058863639831,-0.0246264301240444,-0.0460358187556266,0.0,0.0,-0.8430874943733215,-0.838853657245636
-0.0121937748044729,1.2995274066925049,-0.0718103945255279,-0.5089740753173828,-0.0256203096359968,-0.0198796484619379,0.0,0.0,-0.6489191055297852,-0.700005054473877
-0.0128969196230173,1.2876017093658447,-0.0702669769525528,-0.530033528804779,-0.0256640650331974,-0.0008749674889259,0.0,0.0,-0.5694317817687988,-0.4224461317062378
-0.0135306362062692,1.2751964330673218,-0.0632056966423988,-0.551344633102417,-0.0258233994245529,-0.0031870331149548,0.0,0.0,-0.8252877593040466,-0.7162055373191833
-0.014136791229248,1.2623209953308103,-0.0614678189158439,-0.5722328424453735,-0.0249857120215892,0.0167552642524242,0.0,0.0,-0.6962162852287292,-0.8022627234458923
-0.0147233009338378,1.2489585876464844,-0.0607461147010326,-0.5938543677330017,-0.022915743291378,0.0414029359817504,0.0,0.0,-0.2140491008758545,-0.7118719816207886
-0.0152804376557469,1.235126495361328,-0.0588641166687011,-0.6147135496139526,-0.0198006890714168,0.0623068138957023,0.0,0.0,-0.6500767469406128,-0.4610968232154846
-0.0157641414552927,1.2208150625228882,-0.0514919683337211,-0.6360250115394592,-0.0167069546878337,0.061880350112915,0.0,0.0,-0.8741657733917236,-0.7690228819847107
-0.0162242893129587,1.2060328722000122,-0.0504395142197608,-0.65694260597229,-0.0123285772278904,0.0875753462314605,0.0,0.0,-0.82295161485672,-0.3523198366165161
-0.0166092868894338,1.190771460533142,-0.0429510697722435,-0.6782547831535339,-0.0079234214499592,0.0881107598543167,0.0,0.0,-0.6735387444496155,0.2011092901229858
-0.0169182773679494,1.1750308275222778,-0.0354103296995162,-0.6995671391487122,-0.0034664748236536,0.0891470909118652,0.0,0.0,-0.5863707661628723,-0.10867840051651
-0.0171506889164447,1.1588109731674194,-0.0278227739036083,-0.7208796739578247,0.0010660791303962,0.0906593352556228,0.0,0.0,-0.5690158605575562,-0.0214660763740539
-0.0173057559877634,1.1421117782592771,-0.020192764699459,-0.7421923279762268,0.0056980107910931,0.0926468819379806,0.0,0.0,-0.6011060476303101,0.5135657787322998
-0.0173376090824604,1.124927997589111,-0.006834780331701,-0.7637374401092529,0.0093135172501206,0.0723165571689605,0.0,0.0,0.1241301298141479,0.3304980993270874
-0.0173915866762399,1.107920527458191,-0.0087460568174719,-0.7559143304824829,0.0126272877678275,0.0662812665104866,0.0,0.0,-0.5585948824882507,0.4904536008834839
-0.0173662193119525,1.090412139892578,-0.0009887159103527,-0.7781827449798584,0.0161095336079597,0.069644883275032,0.0,0.0,0.0431008338928222,0.3710218667984009
-0.0172659866511821,1.0731126070022583,0.0062806741334497,-0.7689171433448792,0.0197938922792673,0.0736873596906662,0.0,0.0,-0.0549278259277343,0.3416066169738769
-0.0170857422053813,1.0553338527679443,0.0140838222578167,-0.7902275323867798,0.0236908439546823,0.0779389962553978,0.0,0.0,-0.165503978729248,0.6512502431869507
-0.0167844779789447,1.0370824337005615,0.0269662924110889,-0.8112190961837769,0.0268061347305774,0.0623057410120964,0.0,0.0,-0.0785518884658813,0.8076081275939941
-0.0163405425846576,1.0183513164520264,0.0425566807389259,-0.8325262069702148,0.0286248624324798,0.0363745056092739,0.0,0.0,0.4489450454711914,0.3113100528717041
-0.0158199314028024,1.0002549886703491,0.0498646311461925,-0.8043257594108582,0.0307920612394809,0.0433438904583454,0.0,0.0,-0.1712231636047363,0.5197463035583496
-0.0151816364377737,0.9816779494285583,0.0622476860880851,-0.8256781697273254,0.0323501639068126,0.0311621986329555,0.0,0.0,0.2445067167282104,0.3224132061004638
-0.0145428655669093,0.963524043560028,0.0622718520462513,-0.8068810105323792,0.0339287780225276,0.0315722823143005,0.0,0.0,-0.1486514210700988,0.355236291885376
-0.0138216968625783,0.9448907375335692,0.070186361670494,-0.8281909227371216,0.0358320772647857,0.0380660258233547,0.0,0.0,0.1701977252960205,0.7459259033203125
-0.0129616735503077,0.9264495968818665,0.0852192640304565,-0.8196258544921875,0.0366048030555248,0.0154546331614255,0.0,0.0,0.1924992799758911,0.5599837303161621
-0.0119800567626953,0.9083549380302428,0.0981262475252151,-0.8042085766792297,0.0366450138390064,0.0008041327819228,0.0,0.0,-0.332253098487854,-0.3612778186798095
-0.0109151843935251,0.8897809982299805,0.1060747280716896,-0.8255185484886169,0.0370539501309394,0.0081787090748548,0.0,0.0,-0.1215695142745971,-0.655585527420044
-0.0098155019804835,0.8707301616668701,0.1079259738326072,-0.8467550277709961,0.0390655063092708,0.0402313135564327,0.0,0.0,-0.2159276604652404,0.8325437307357788
-0.0085709569975733,0.8512128591537476,0.1235883384943008,-0.8674535751342773,0.0399215035140514,0.0171198695898056,0.0,0.0,-0.4206414222717285,-0.2134017944335937
-0.0072425841353833,0.83121657371521,0.1315602958202362,-0.8887637257575989,0.0411826074123382,0.025222111493349,0.0,0.0,-0.26605886220932,-0.4330870509147644
-0.0058302879333496,0.8107409477233887,0.1395381093025207,-0.9100741744041444,0.0428593754768371,0.0335354655981063,0.0,0.0,-0.6064825654029846,-0.4251124858856201
-0.0043336870148777,0.7897862792015076,0.1475208550691604,-0.931384801864624,0.044961642473936,0.0420453771948814,0.0,0.0,-0.0061503648757934,-0.2752435803413391
-0.0027529716026037,0.7683524489402771,0.1555076837539672,-0.9526956677436828,0.0474985428154468,0.0507379844784736,0.0,0.0,0.0053151845932006,-0.8940775990486145
-0.0011017799843102,0.7469198107719421,0.1603237092494964,-0.9527204036712646,0.0522439554333686,0.0949083343148231,0.0,0.0,0.6024565696716309,-0.8774048089981079
0.000506019569002,0.7254170775413513,0.153821662068367,-0.9559329748153688,0.0591237805783748,0.1375962793827057,0.0,0.0,0.9374687671661376,0.0306472778320312
0.0022290230263024,0.7040276527404785,0.1646280586719513,-0.950967252254486,0.0667110681533813,0.151745930314064,0.0,0.0,0.9638434648513794,0.0525165796279907
0.0040736198425292,0.6829622387886047,0.1759803742170334,-0.9366415143013,0.0750987976789474,0.167754665017128,0.0,0.0,0.981648087501526,-0.6944178938865662
0.0057280538603663,0.662899911403656,0.1554666757583618,-0.8921968340873718,0.0849731341004371,0.1974867582321167,0.0,0.0,0.7248245477676392,0.8783732652664185
0.007312870118767,0.6435863971710205,0.1500599682331085,-0.8588790893554688,0.0933168977499008,0.1668752580881118,0.0,0.0,0.4980878829956054,0.5547230243682861
0.0089626312255859,0.6244853734970093,0.1572384536266327,-0.8494380712509155,0.1009880602359771,0.1534232944250106,0.0,0.0,0.5208621025085449,0.3829915523529053
0.0107755661010742,0.6057109236717224,0.1724540293216705,-0.8350435495376587,0.1097574308514595,0.1753875613212585,0.0,0.0,0.556721568107605,0.7803521156311035
0.0125983236357569,0.5874989628791809,0.1746303737163543,-0.8100005388259888,0.1173578202724456,0.1520077884197235,0.0,0.0,0.5859112739562988,0.595001220703125
0.0146156307309865,0.5694697499275208,0.1945125311613083,-0.8018850684165955,0.1245381236076355,0.1436060816049575,0.0,0.0,0.729456901550293,0.7296454906463623
0.0166744235903024,0.5522233843803406,0.1996125876903534,-0.7670396566390991,0.130766287446022,0.124563455581665,0.0,0.0,0.1590478420257568,-0.0170344710350036
0.01887683942914,0.5350282788276672,0.2130068242549896,-0.7648821473121643,0.1379816830158233,0.1443075537681579,0.0,0.0,0.3539713621139526,0.6141222715377808
0.02107410505414,0.5179184675216675,0.213379830121994,-0.7610360980033875,0.1443105190992355,0.1265769302845001,0.0,0.0,-0.0608026385307312,-0.0276402235031127
0.0233559608459472,0.5003308653831482,0.2213411033153534,-0.7823544144630432,0.1511494070291519,0.1367773711681366,0.0,0.0,0.8249540328979492,-0.0115789771080017
0.0257610324770212,0.4834046065807342,0.2324432134628296,-0.7531150579452515,0.1592063009738922,0.161137580871582,0.0,0.0,0.6248267889022827,0.0819547176361084
0.0281948093324899,0.4672177135944366,0.2344686239957809,-0.7203966975212097,0.1681185513734817,0.1782454550266266,0.0,0.0,0.4848220348358154,0.8900516033172607
0.0305870063602924,0.4516036808490753,0.2316827476024627,-0.6948280334472656,0.1756698489189148,0.1510263681411743,0.0,0.0,0.0140978097915649,-0.0300981998443603
0.033054731786251,0.4358561038970947,0.2385818213224411,-0.7008799314498901,0.1838866770267486,0.1643364280462265,0.0,0.0,0.7523964643478394,0.78499436378479
0.0354164130985736,0.4207174479961395,0.2292619496583938,-0.6737040877342224,0.1908184289932251,0.1386350691318512,0.0,0.0,0.0063997507095336,0.378840684890747
0.0378762260079383,0.4055865705013275,0.2382231503725052,-0.6734970808029175,0.1986223757266998,0.1560792773962021,0.0,0.0,0.3673270940780639,0.0245132446289062
0.0403389930725097,0.3907303512096405,0.2379161566495895,-0.6614208817481995,0.2070425450801849,0.1684029996395111,0.0,0.0,0.6570608615875244,0.6247086524963379
0.0428599342703819,0.3760004341602325,0.2444600313901901,-0.6557509303092957,0.2147574573755264,0.1542986929416656,0.0,0.0,0.7205953598022461,-0.6027576327323914
0.0451514236629009,0.3616364002227783,0.220124214887619,-0.6397387385368347,0.223867267370224,0.182196170091629,0.0,0.0,0.3286724090576172,0.9003556966781616
0.0474602691829204,0.3478424549102783,0.2231494635343551,-0.6142557263374329,0.2317008078098297,0.1566710323095321,0.0,0.0,0.1426079273223877,0.5043668746948242
0.0499058738350868,0.3338960409164428,0.2372016012668609,-0.6210172176361084,0.2391782402992248,0.1495483815670013,0.0,0.0,0.8437494039535522,-0.1067492365837097
0.0522379875183105,0.3208717405796051,0.2251997292041778,-0.5801817774772644,0.247328370809555,0.1630028635263443,0.0,0.0,0.0493414402008056,0.5978341102600098
0.0545601844787597,0.3077980279922485,0.2249605655670166,-0.5822979807853699,0.2547196745872497,0.1478259414434433,0.0,0.0,0.5314856767654419,0.7411253452301025
0.0567714683711528,0.2951477766036987,0.2149944603443145,-0.5633090138435364,0.2609798908233642,0.1252043545246124,0.0,0.0,0.5115513801574707,-0.3529069423675537
0.0589448921382427,0.2828565537929535,0.2105740308761596,-0.5474965572357178,0.2679068148136139,0.1385379284620285,0.0,0.0,0.4208335876464844,-0.4811164736747741
0.0609008781611919,0.2710950374603271,0.1888085603713989,-0.5239917635917664,0.274858683347702,0.1390373259782791,0.0,0.0,0.4291977882385254,0.6064388751983643
0.0629151314496994,0.2596255540847778,0.1951894611120224,,0.2812634408473968,0.1280950605869293,0.0,0.0,0.1626830101013183,0.5104615688323975
0.0649481788277626,0.2480777353048324,0.1976062953472137,-0.5143436789512634,0.2871236205101013,0.1172041520476341,0.0,0.0,0.5279470682144165,0.2137744426727295
0.0670366287231445,0.2365122586488723,0.2023491114377975,-0.5153146386146545,0.2938146591186523,0.1338210254907608,0.0,0.0,0.4442427158355713,0.1794567108154297
0.0690923705697059,0.2248840630054474,0.1986904442310333,-0.5182148218154907,0.3009186089038849,0.1420788913965225,0.0,0.0,0.6088511943817139,0.7913047075271606
0.0710475891828537,0.2139161974191665,0.18971648812294,-0.4886780083179474,0.3069311082363128,0.1202498078346252,0.0,0.0,0.6992580890655518,0.4240701198577881
0.0729063004255294,0.2037086337804794,0.1791796088218689,-0.4551005065441131,0.3138664960861206,0.1387071162462234,0.0,0.0,0.7479493618011475,0.2250694036483764
0.0744627937674522,0.1942031681537628,0.1489827185869217,-0.4239231646060943,0.3207953572273254,0.138577714562416,0.0,0.0,0.9685533046722412,0.6155328750610352
0.0758629813790321,0.1847218871116638,0.134469524025917,-0.4226288497447967,0.3265750110149383,0.115592636168003,0.0,0.0,0.8442047834396362,0.6912838220596313
0.0771525353193283,0.1760730147361755,0.1241419315338134,-0.3854915797710418,0.3315933048725128,0.100366435945034,0.0,0.0,0.5487942695617676,0.8059000968933105
0.0783017128705978,0.1676917225122451,0.1113279834389686,-0.3733309805393219,0.3353464305400848,0.0750625655055046,0.0,0.0,0.8300644159317017,0.8611315488815308
0.0792780891060829,0.1599007993936538,0.0953314080834388,-0.3468004465103149,0.3377583920955658,0.0482391640543937,0.0,0.0,0.8563389778137207,0.76424241065979
0.0801093131303787,0.1527711302042007,0.0818273425102233,-0.3171787858009338,0.3391163349151611,0.0271586589515209,0.0,0.0,0.4747328758239746,0.8560436964035034
0.0809859260916709,0.1459764838218689,0.0874122232198715,-0.3020408749580383,0.3393741250038147,0.0051560867577791,0.0,0.0,0.4844410419464111,0.6148066520690918
0.0818997398018837,0.1391698867082595,0.0917636007070541,-0.3024245500564575,0.3389756679534912,-0.007969370111823,0.0,0.0,0.9287762641906738,0.6872429847717285
0.0828887969255447,0.1326317340135574,0.0998270288109779,-0.2903695404529571,0.3380072712898254,-0.0193677172064781,0.0,0.0,0.8678324222564697,0.7121106386184692
0.0839542374014854,0.126647338271141,0.1079510077834129,-0.2656449377536773,0.3365422785282135,-0.0293000247329473,0.0,0.0,0.537818193435669,0.8689767122268677
0.0851682648062706,0.120805412530899,0.1237848177552223,-0.2590843141078949,0.334043025970459,-0.0499853044748306,0.0,0.0,0.8079425096511841,-0.2490835189819336
0.0861712470650672,0.1156485676765441,0.1021956205368042,-0.2287592142820358,0.3320628702640533,-0.0396033599972724,0.0,0.0,0.8511941432952881,0.6121141910552979
0.0870392769575119,0.111265979707241,0.0892896056175232,-0.1942117512226104,0.3294702172279358,-0.0518530011177063,0.0,0.0,0.5078778266906738,0.5056462287902832
0.0879234299063682,0.1073507368564605,0.0910653844475746,-0.1734057813882827,0.3267025947570801,-0.0553522184491157,0.0,0.0,0.3818891048431396,0.8518579006195068
0.0889341384172439,0.1034163311123848,0.1047717481851577,-0.1740328669548034,0.3228522539138794,-0.0770068913698196,0.0,0.0,0.1995776891708374,0.6117327213287354
-999.0,0.0995320677757263,0.0999581441283226,-0.1716504395008087,0.3182364702224731,-0.0923161804676055,0.0,0.0,-0.589335560798645,-0.6633324027061462
0.0908535942435264,0.0951572731137275,0.0992284789681434,-0.1938219219446182,0.3153243660926819,-0.0582422390580177,0.0,0.0,-0.1872925162315368,-0.0534468293190002
0.0918685942888259,0.0903054103255271,0.1037741303443908,-0.2151456624269485,0.3129617571830749,-0.0472524352371692,0.0,0.0,0.1802091598510742,0.1336599588394165
0.0926719680428505,0.0857463702559471,0.0824799463152885,-0.2021630704402923,0.3107376396656036,-0.0444826297461986,0.0,0.0,0.5566961765289307,0.0249406099319458
0.0933972373604774,0.0816868618130683,0.073780670762062,-0.1801561862230301,0.3094426989555359,-0.0258991010487079,0.0,0.0,0.3648796081542969,0.5604891777038574
0.0939709693193435,0.0780377686023712,0.059288240969181,-0.1617736965417862,0.3074482977390289,-0.0398875549435615,0.0,0.0,0.0456017255783081,-0.0429828166961669
0.094389721751213,0.0745652019977569,0.0435065105557441,-0.1539916396141052,0.3057615756988525,-0.0337347462773323,0.0,0.0,-0.1624971032142639,0.426701545715332
0.0948434844613075,0.0706154182553291,0.046476624906063,-0.1753145158290863,0.30462446808815,-0.0227419026196002,0.0,0.0,-0.4755961894989013,0.0875027179718017
0.095328614115715,0.0661884173750877,0.0490893088281154,-0.1966372430324554,0.3040367066860199,-0.0117553863674402,0.0,0.0,0.0063056945800781,0.4353706836700439
0.0956585854291915,0.0616995431482791,0.033448152244091,-0.199411004781723,0.3035738170146942,-0.0092580448836088,0.0,0.0,-0.166974663734436,0.1580147743225097
0.0960125923156738,0.056733451783657,0.035312931984663,-0.2207335829734802,0.303659051656723,0.0017046075081452,0.0,0.0,-0.1485427618026733,-0.0587652921676635
0.0963866263628006,0.0512900687754154,0.0367904901504516,-0.2420561164617538,0.3042914569377899,0.0126481223851442,0.0,0.0,0.3619375228881836,0.5412265062332153
0.0967519730329513,0.0463509410619735,0.0361894629895687,-0.2195889800786972,0.3046513199806213,0.0071974815800786,0.0,0.0,0.5416426658630371,-0.0357507467269897
0.0968919768929481,0.0419611297547817,0.0132158519700169,-0.1952659636735916,0.3054567873477936,0.0161090828478336,0.0,0.0,0.5720808506011963,0.2421420812606811
0.0969249755144119,0.0383185483515262,0.001394388382323,-0.1622961461544037,0.3074326515197754,0.0395175591111183,0.0,0.0,0.3928011655807495,-0.0971942543983459
0.0968755707144737,0.0349264480173587,-0.0076617198064923,-0.1513338685035705,0.3102459907531738,0.056266862899065,0.0,0.0,0.1877162456512451,0.4784846305847168
0.0966420173645019,0.0318933352828025,-0.0265617631375789,-0.1354945749044418,0.3135724365711212,0.0665286853909492,0.0,1.0,0.6500276327133179,0.6719958782196045
0.0962350815534591,0.0304834935814142,-0.0276890601962804,-0.0603451207280159,0.2989916205406189,-0.293249636888504,0.0,1.0,-0.1881989240646362,0.9833555221557616
0.0958373993635177,0.0292762853205204,-0.0103618474677205,-0.0479355975985527,0.2686648964881897,-0.6066562533378601,0.0,1.0,0.7331074476242065,0.4686810970306396
0.0951649695634841,0.0284648984670639,-0.0380668975412845,-0.0309838484972715,0.2389084100723266,-0.5951306223869324,0.0,1.0,-0.053813099861145,0.6841063499450684
0.0945322960615158,0.027199326083064,-0.0328148268163204,-0.0515985749661922,0.20806884765625,-0.6167917847633362,0.0,0.0,-0.9940715432167052,-0.0221063494682312
0.0938940048217773,0.0254679061472415,-0.0336960777640342,-0.0729946419596672,0.1777650415897369,-0.6060765981674194,0.0,0.0,-0.9696232676506042,0.5107911825180054
0.0932884216308593,0.023280868306756,-0.0297498013824224,-0.0938043519854545,0.146925151348114,-0.6167982816696167,0.0,0.0,-0.878763735294342,-0.1288574337959289
0.0926698669791221,0.0206276997923851,-0.0314062498509883,-0.1151985749602317,0.1166124939918518,-0.6062535047531128,0.0,0.0,-0.4570847153663635,0.2068690061569214
0.0920352935791015,0.0175078250467777,-0.0334370136260986,-0.1365890800952911,0.0868216827511787,-0.5958167910575867,0.0,0.0,0.5083084106445312,-0.7751449346542358
0.0912812203168869,0.0150231691077351,-0.0474334582686424,-0.1090374216437339,0.0591295361518859,-0.5538431406021118,0.0,0.0,0.0207611322402954,-0.4048902988433838
0.0905322059988975,0.0123614883050322,-0.0475732162594795,-0.1174379736185073,0.0321274027228355,-0.5400429368019104,0.0,0.0,0.4932968616485595,-0.7756006121635437
0.0897766128182411,0.0100692370906472,-0.0504407212138175,-0.1015284806489944,0.0073263617232441,-0.4960209727287292,0.0,0.0,0.2651742696762085,-0.621596097946167
