x_pos,y_pos,x_vel,y_vel,angle,ang_vel,leg_1,leg_2,main_booster,lat_booster
-0.0015329361194744,1.4032089710235596,-0.1550156623125076,-0.3427172601222992,0.001543863909319,0.0304377321153879,0.0,0.0,-0.7872899098891066,-0.8990673839899908
-0.0031404495239257,1.3951010704040527,-0.1636794954538345,-0.3603593409061432,0.0044392556883394,0.0579140298068523,0.0,0.0,0.7512948002555462,0.7011854476637982
-0.0045514106750488,1.3872157335281372,-0.1427640169858932,-0.3504621088504791,0.0060867806896567,0.0329534448683261,0.0,0.0,0.857565577648093,-0.6711119260323054
-0.0061738016083836,1.379753351211548,-0.164635956287384,-0.3316686749458313,0.0084491018205881,0.0472508817911148,0.0,0.0,-0.1433746561713449,0.8617276248753127
-0.0077255247160792,1.3718793392181396,-0.1552332788705825,-0.349962055683136,0.0085095521062612,0.0012093430850654,0.0,0.0,-0.4476610383187838,-0.5567491237941222
-0.0093230251222848,1.3635884523391724,-0.1604399979114532,-0.3684848845005035,0.0091911479830741,0.0136330779641866,0.0,0.0,-0.587032536934873,-0.8760301656050952
-0.0110045429319143,1.3548811674118042,-0.1704297065734863,-0.3870064914226532,0.0114402985200285,0.0449871942400932,0.0,0.0,0.6456343398047073,0.8816798440074087
-0.0124710081145167,1.346731424331665,-0.1472139209508896,-0.3622096478939056,0.0119898505508899,0.0109924916177988,0.0,0.0,-0.4964228384974334,-0.5073506446007916
-0.0139919277280569,1.3381710052490234,-0.1534534245729446,-0.3804802000522613,0.0133361108601093,0.0269277635961771,0.0,0.0,0.5587017003355557,0.6728564663762391
-0.0154839511960744,1.3302282094955444,-0.1489795744419098,-0.3530149459838867,0.0131188193336129,-0.0043463241308927,0.0,0.0,0.2050672840450524,0.7031653695801137
-0.0168700218200683,1.32252299785614,-0.1368432790040969,-0.3424409925937652,0.0113815469667315,-0.0347488597035408,0.0,0.0,-0.0484987158425529,0.6112470337410013
-0.0182170867919921,1.3144018650054932,-0.131362572312355,-0.3609136641025543,0.008065934292972,-0.0663183629512786,0.0,0.0,0.2668740128170552,0.8406293434105684
-0.0194034576416015,1.3066766262054443,-0.113489530980587,-0.3433249294757843,0.0029728200752288,-0.1018714532256126,0.0,0.0,-0.3924014520657317,-0.5240829064464065
-0.0206422805786132,1.2985310554504397,-0.1194426268339157,-0.3620258569717407,-0.0014214104739949,-0.0878925025463104,0.0,0.0,0.6221873498876564,-0.8363945644938655
-0.0218084342777729,1.2911927700042725,-0.1138867959380149,-0.3261498212814331,-0.0041130441240966,-0.053837526589632,0.0,0.0,-0.7633717822556056,0.6338736366068107
-0.0229322426021099,1.2834312915802002,-0.107938602566719,-0.3449781537055969,-0.0085106389597058,-0.0879598930478096,0.0,0.0,-0.0996470839584682,0.83892431815066
-0.023991871625185,1.2752635478973389,-0.0992328599095344,-0.3630655705928802,-0.0151689322665333,-0.1331779062747955,0.0,0.0,-0.0270799074336223,-0.8486569605373728
-0.025120448321104,1.2666747570037842,-0.1072045192122459,-0.3817920982837677,-0.0207550674676895,-0.1117328256368637,0.0,0.0,-0.1519184988153408,-0.9786635122865726
-0.0263317115604877,1.257681965827942,-0.1169166937470436,-0.3997390568256378,-0.0249241348356008,-0.0833890810608863,0.0,0.0,0.4606683508197158,0.7827780521641822
-0.0275668147951364,1.249024748802185,-0.1173813492059707,-0.3848747909069061,-0.0309844613075256,-0.1212173923850059,0.0,0.0,-0.4825576825374986,-0.8744926300924161
-0.0288750641047954,1.2399613857269287,-0.1258722990751266,-0.4029264748096466,-0.0358816385269165,-0.0979524776339531,0.0,0.0,-0.3702742783493853,0.6615090723490213
-0.0301493648439645,1.2304764986038208,-0.1209136694669723,-0.4217198193073272,-0.0423268973827362,-0.1289166808128357,0.0,0.0,-0.566907587470018,-0.9240437690029808
-0.0315005294978618,1.2205790281295776,-0.1298510879278183,-0.440045416355133,-0.0475338213145732,-0.1041477546095848,0.0,0.0,-0.9202046828985956,-0.8095577777098794
-0.0329283699393272,1.2102614641189575,-0.1387622058391571,-0.4586914777755737,-0.0515210106968879,-0.0797506272792816,0.0,0.0,0.1889105128580719,0.8175065004274614
-0.0344053283333778,1.2002290487289429,-0.1417309194803238,-0.4461038708686828,-0.0574236884713172,-0.1180641502141952,0.0,0.0,-0.7576018307341232,0.6518562332186106
-0.0358643531799316,1.189760446548462,-0.1387542486190796,-0.4655646085739136,-0.0645045638084411,-0.1416172832250595,0.0,0.0,0.966397578195846,0.5311073747255748
-0.0372418388724327,1.1801702976226809,-0.1293362379074096,-0.4266120791435241,-0.0728215798735618,-0.1663404703140258,0.0,0.0,0.5254887826294636,-0.8371150444899872
-0.0387852676212787,1.17133629322052,-0.1472372710704803,-0.3929831385612488,-0.0798569768667221,-0.1407079249620437,0.0,0.0,0.345858446812892,-0.8582387097497489
-0.0404876694083213,1.1630607843399048,-0.1645569205284118,-0.3681167662143707,-0.0854904204607009,-0.1126689463853836,0.0,0.0,-0.5298956846960567,-0.8863008943398292
-0.0422842986881732,1.1543762683868408,-0.1756322830915451,-0.3862151801586151,-0.0894827023148536,-0.0798456147313118,0.0,0.0,0.9555667763447482,-0.7293002935969739
-0.0440463051199913,1.1467864513397217,-0.1735164076089859,-0.3374854922294616,-0.0921438559889793,-0.0532231107354164,0.0,0.0,-0.7625730633735657,0.9271798133850098
-0.0457671172916889,1.1387674808502195,-0.1675919592380523,-0.3566836416721344,-0.0965947285294532,-0.0890176370739936,0.0,0.0,-0.9361629486083984,0.3517521619796753
-0.0475101470947265,1.1303335428237915,-0.1696376502513885,-0.3751516938209533,-0.101220965385437,-0.092524766921997,0.0,0.0,-0.9927783012390136,0.8506960868835449
-0.0492162704467773,1.1214679479599,-0.1642373949289322,-0.3944705128669739,-0.1075385436415672,-0.1263515800237655,0.0,0.0,-0.8133883476257324,0.3082582950592041
-0.0509446151554584,1.112187743186951,-0.1663155704736709,-0.4129403531551361,-0.1140243336558342,-0.1297158598899841,0.0,0.0,-0.4923039674758911,0.9542288780212402
-0.0526177398860454,1.1024867296218872,-0.1586539298295974,-0.4318350255489349,-0.1226332411170005,-0.1721785068511963,0.0,0.0,-0.904632329940796,0.5726823806762695
-0.0542707443237304,1.0923612117767334,-0.1553816944360733,-0.4508806765079498,-0.132497563958168,-0.1972865611314773,0.0,0.0,0.1506909132003784,0.3505545854568481
-0.055849839001894,1.0826045274734497,-0.147982656955719,-0.4345435798168182,-0.1423958837985992,-0.197966381907463,0.0,0.0,-0.5992475748062134,0.832827091217041
-0.0573897361755371,1.0724302530288696,-0.1423614025115966,-0.4533427655696869,-0.1539982706308365,-0.2320477068424224,0.0,0.0,-0.8380381464958191,-0.1679312586784362
-0.0589521415531635,1.061842679977417,-0.1444844007492065,-0.4718207716941833,-0.1657490283250808,-0.2350149154663086,0.0,0.0,-0.8617560267448425,0.389369249343872
-0.0605369582772254,1.0508415699005127,-0.1466095149517059,-0.4902991652488708,-0.1776438504457473,-0.2378967553377151,0.0,0.0,-0.6212441325187683,0.497525691986084
-0.0621441826224327,1.039427399635315,-0.148734375834465,-0.508777916431427,-0.1896784156560897,-0.2406914234161377,0.0,0.0,-0.7265097498893738,-0.1583672761917114
-0.0637736320495605,1.0275999307632446,-0.1508566588163375,-0.5272569060325623,-0.2018482834100723,-0.2433971613645553,0.0,0.0,0.6851174831390381,-0.5548643469810486
-0.0652540177106857,1.016131043434143,-0.13723024725914,-0.511245608329773,-0.212750032544136,-0.2180352210998535,0.0,0.0,-0.7701051235198975,-0.7185631990432739
-0.0668169036507606,1.0042591094970703,-0.1469052731990814,-0.5290204882621765,-0.2222410589456558,-0.1898204982280731,0.0,0.0,0.5527336597442627,-0.582436740398407
-0.0683329552412033,0.9924266338348388,-0.1433650255203247,-0.5271506905555725,-0.2305749505758285,-0.1666776686906814,0.0,0.0,0.29127037525177,-0.7674068808555603
-0.0697980895638465,0.9806881546974182,-0.1397746205329895,-0.5227853059768677,-0.2374181300401687,-0.1368637084960937,0.0,0.0,-0.3848925828933716,-0.8893051147460938
-0.0713643059134483,0.9685734510421752,-0.1518823206424713,-0.5392000079154968,-0.2422363311052322,-0.0963641032576561,0.0,0.0,-0.2372586131095886,0.0051510334014892
-0.0729520767927169,0.9560440182685852,-0.1539321094751358,-0.5576690435409546,-0.2471617013216018,-0.0985073298215866,0.0,0.0,-0.1728881001472473,-0.6373363733291626
-0.0746118575334549,0.943117082118988,-0.1623449623584747,-0.5751485824584961,-0.2508583068847656,-0.0739321410655975,0.0,0.0,0.7875272035598755,-0.8770394921302795
-0.0760398879647255,0.9306342601776124,-0.1411138474941253,-0.555076539516449,-0.2525843977928161,-0.0345217809081077,0.0,0.0,-0.2068482637405395,-0.291215181350708
-0.0774886161088943,0.9177364706993104,-0.1430918872356414,-0.5735437273979187,-0.2544029057025909,-0.0363707579672336,0.0,0.0,-0.5872679352760315,-0.7962783575057983
-0.0790081992745399,0.9044387340545654,-0.1513798683881759,-0.5911155939102173,-0.254995197057724,-0.0118460832163691,0.0,0.0,-0.5104600787162781,-0.7488858699798584
-0.0806034058332443,0.8907544612884521,-0.1603405773639679,-0.6080406904220581,-0.2541578114032745,0.0167477764189243,0.0,0.0,-0.96662175655365,-0.8744610548019409
-0.0822689086198806,0.8766716718673706,-0.1686029732227325,-0.6255534291267395,-0.2520705163478851,0.0417463555932045,0.0,0.0,-0.9328859448432922,-0.8301877379417419
-0.0840276703238487,0.8621984720230103,-0.17975914478302,-0.6425907611846924,-0.2481149286031723,0.0791115388274192,0.0,0.0,-0.5862332582473755,-0.1612937450408935
-0.085805132985115,0.8473101258277893,-0.181559607386589,-0.6610584259033203,-0.2442272305488586,0.0777538493275642,0.0,0.0,-0.7265471816062927,-0.7055734992027283
-0.0876418128609657,0.8320252299308777,-0.1885109990835189,-0.6785313487052917,-0.2393019795417785,0.0985050052404403,0.0,0.0,-0.5989406108856201,0.1541435718536377
-0.0894960388541221,0.8163253664970398,-0.1902181953191757,-0.6969995498657227,-0.2344350516796112,0.0973383411765098,0.0,0.0,-0.4007930159568786,-0.2773057818412781
-0.0913673415780067,0.8002105355262756,-0.1918735355138778,-0.7154674530029297,-0.2296217978000641,0.0962651073932647,0.0,0.0,-0.0199261903762817,-0.0350313186645507
-0.0932549461722374,0.7836806774139404,-0.1934735774993896,-0.7339352965354919,-0.2248576283454895,0.0952834337949752,0.0,0.0,0.303277850151062,0.3121237754821777
-0.0951122269034385,0.7675712704658508,-0.1900255531072616,-0.7153232097625732,-0.220503956079483,0.0870734602212905,0.0,0.0,-0.3583154678344726,0.2977185249328613
-0.0969846695661544,0.7510468363761902,-0.1915043294429779,-0.7337905168533325,-0.2161904871463775,0.0862690359354019,0.0,0.0,0.1146543025970459,0.2643568515777588
-0.0987671837210655,0.7347078323364258,-0.1825647801160812,-0.7255470752716064,-0.2118394821882248,0.08702053129673,0.0,0.0,-0.0959803462028503,0.4379820823669433
-0.1005635261535644,0.7179539799690247,-0.1839079856872558,-0.7440140843391418,-0.2075202912092209,0.0863838419318199,0.0,0.0,0.4134736061096191,-0.095606505870819
-0.1023721694946289,0.7015596032142639,-0.1846364438533783,-0.728108286857605,-0.2037188708782196,0.0760283768177032,0.0,0.0,-0.2583543062210083,-0.3519783020019531
-0.1041930168867111,0.6847502589225769,-0.1858292818069458,-0.7465749382972717,-0.1999414414167404,0.0755485445261001,0.0,0.0,0.6097755432128906,-0.2269306182861328
-0.105890080332756,0.667920708656311,-0.1738097071647644,-0.7474328875541687,-0.1958143264055252,0.0825419351458549,0.0,0.0,0.6637969017028809,0.2171010971069336
-0.1074036583304405,0.6519328951835632,-0.1555628478527069,-0.71001797914505,-0.1915780454874038,0.0847256705164909,0.0,0.0,0.149971604347229,0.1455440521240234
-0.1089282035827636,0.6360338926315308,-0.1563573181629181,-0.7061287760734558,-0.1876581609249115,0.0783975720405578,0.0,0.0,0.5274466276168823,0.2513561248779297
-0.1104279533028602,0.6206657290458679,-0.153474360704422,-0.6825870871543884,-0.1841411888599395,0.0703397169709205,0.0,0.0,-0.0490520000457763,0.0833804607391357
-0.1119352355599403,0.6048823595046997,-0.1542271971702575,-0.7010532021522522,-0.1806313693523407,0.0701965391635894,0.0,0.0,0.720440149307251,0.1138225793838501
-0.113422967493534,0.590017557144165,-0.1516571938991546,-0.6603120565414429,-0.1777463853359222,0.0576999261975288,0.0,0.0,0.3858604431152344,0.2292546033859253
-0.1147700324654579,0.5754361748695374,-0.1378605365753173,-0.6476858854293823,-0.174577921628952,0.0633692890405654,0.0,0.0,-0.3873242139816284,0.7464706897735596
-0.1160674095153808,0.5604192018508911,-0.1314819157123565,-0.6672173142433167,-0.172824740409851,0.0350636169314384,0.0,0.0,0.5490436553955078,0.0670669078826904
-0.1172528266906738,0.5454207062721252,-0.1205911040306091,-0.6663631796836853,-0.1707735061645507,0.041024275124073,0.0,0.0,0.4831831455230713,0.0012328624725341
-0.1184165924787521,0.5304644107818604,-0.1183027625083923,-0.6645032167434692,-0.1688483208417892,0.0385038070380687,0.0,0.0,0.6897234916687012,0.4388684034347534
-0.119453527033329,0.5162944197654724,-0.1055839881300926,-0.6295637488365173,-0.1669556200504303,0.0378539524972438,0.0,0.0,-0.0036682486534118,0.1079403162002563
-0.1204903572797775,0.501708984375,-0.105579674243927,-0.6480289697647095,-0.1650541126728058,0.0380300991237163,0.0,0.0,0.1168243885040283,0.7577465772628784
-0.1214609146118164,0.4875397682189941,-0.0973855480551719,-0.6297057867050171,-0.1647235751152038,0.0066108563914895,0.0,0.0,0.7785136699676514,0.0341770648956298
-0.1225078552961349,0.473516970872879,-0.1043891459703445,-0.6232702732086182,-0.1650256812572479,-0.0060420357622206,0.0,0.0,0.7571154832839966,-0.4205552339553833
-0.1233704537153244,0.460312008857727,-0.0861740112304687,-0.5868962407112122,-0.1651165336370468,-0.0018171945121139,0.0,0.0,-0.1409424543380737,0.8793177604675293
-0.1241710633039474,0.4466772973537445,-0.0785184651613235,-0.6061601638793945,-0.1666585057973861,-0.03083954192698,0.0,0.0,0.8734328746795654,-0.9545859098434448
-0.1249797791242599,0.433803915977478,-0.0811472088098526,-0.5721197724342346,-0.166385143995285,0.0054671289399266,0.0,0.0,0.2918665409088135,0.936003804206848
-0.1256276071071624,0.4213129580020904,-0.063187725841999,-0.5553340911865234,-0.1679748147726059,-0.0317929871380329,0.0,0.0,0.5191612243652344,-0.975208342075348
-0.1261629164218902,0.4091942310333252,-0.0540014430880546,-0.5385571718215942,-0.1675074100494384,0.0093480292707681,0.0,0.0,0.1786925792694091,-0.507282555103302
-0.1266692131757736,0.3970217406749725,-0.05217045545578,-0.5408294796943665,-0.1659729480743408,0.030689638108015,0.0,0.0,0.6774940490722656,-0.6928707361221313
-0.1270500123500824,0.3850217461585998,-0.0412340871989727,-0.5329843759536743,-0.1628161519765854,0.0631356686353683,0.0,0.0,0.5105726718902588,0.4285264015197754
-0.1272006928920745,0.3733465671539306,-0.0188680551946163,-0.5184882879257202,-0.1590216159820556,0.0758906006813049,0.0,0.0,0.1114923954010009,0.2461838722229004
-0.1272028982639312,0.3616267442703247,-0.0044657117687165,-0.5204324126243591,-0.1547780930995941,0.0848703831434249,0.0,0.0,0.608038067817688,0.2714796066284179
-0.1270826309919357,0.3505766093730926,0.0077869147062301,-0.4906801283359527,-0.1505454331636428,0.084653191268444,0.0,0.0,0.4465699195861816,-0.3555492162704468
-0.1268196105957031,0.3400901556015014,0.0219227448105812,-0.4656277000904083,-0.1461734473705291,0.0874395817518234,0.0,0.0,0.0852583646774292,-0.107957899570465
-0.1263942718505859,0.3298208713531494,0.0377607271075248,-0.4559505879878998,-0.1414098739624023,0.0952715575695037,0.0,0.0,-0.5495781898498535,0.4012820720672607
-0.1259501427412033,0.319136381149292,0.0396186746656894,-0.4744172990322113,-0.1366340965032577,0.0955155715346336,0.0,0.0,0.0455243587493896,-0.2541136741638183
-0.1254753172397613,0.308522492647171,0.0428429394960403,-0.471312403678894,-0.132001057267189,0.0926606208086013,0.0,0.0,-0.0856810212135315,-0.0195308327674865
-0.1249793991446495,0.2974933385848999,0.0449296049773693,-0.4897790253162384,-0.1273582279682159,0.09285619109869,0.0,0.0,0.4575402736663818,-0.3927743434906006
-0.1244178786873817,0.2867999076843261,0.0515606477856636,-0.4748775660991668,-0.1228022500872612,0.0911198928952217,0.0,0.0,0.1503341197967529,0.550814151763916
-0.1238167732954025,0.276530385017395,0.0568028688430786,-0.4561545550823211,-0.1195105165243148,0.0658346191048622,0.0,0.0,-0.0807440280914306,-0.6925877332687378
-0.123237706720829,0.2658574283123016,0.0533966645598411,-0.4739986360073089,-0.1150296777486801,0.0896168500185012,0.0,0.0,0.5909487009048462,-0.3276880979537964
-0.1226017922163009,0.2558547854423523,0.0593179389834404,-0.4442421197891235,-0.110784076154232,0.0849120542407035,0.0,0.0,0.3300292491912842,-0.377902626991272
-0.1219392791390419,0.2463465332984924,0.0622799098491668,-0.4223000705242157,-0.1068453192710876,0.0787754356861114,0.0,0.0,0.0973403453826904,-0.5732421875
-0.121278092265129,0.2369246780872345,0.0610331818461418,-0.4183931350708008,-0.10179403424263,0.1010257601737976,0.0,0.0,-0.6869754195213318,-0.2012102603912353
-0.1205889731645584,0.2270877659320831,0.0638203844428062,-0.4368602931499481,-0.0967458486557006,0.10096375644207,0.0,0.0,0.1039779186248779,0.0047290325164794
-0.1199374198913574,0.2173727303743362,0.0605359748005867,-0.4314875602722168,-0.092168241739273,0.0915523841977119,0.0,0.0,0.3890087604522705,0.4468101263046264
-0.1191121116280555,0.2081326395273208,0.0775060206651687,-0.4103685617446899,-0.0871865898370742,0.0996329486370086,0.0,0.0,0.0324763059616088,-0.6390648484230042
-0.1182437911629676,0.1988175064325332,0.0804786682128906,-0.4136503338813782,-0.0808962509036064,0.1258071064949035,0.0,0.0,-0.5700426697731018,0.6319369077682495
-0.1172824874520301,0.1890847235918045,0.0913745909929275,-0.4323205947875976,-0.0761796981096267,0.0943309813737869,0.0,0.0,0.4183242321014404,0.5751789808273315
-0.1162143722176551,0.1799350380897522,0.1032628789544105,-0.406474769115448,-0.0726707130670547,0.0701796635985374,0.0,0.0,0.1138139963150024,-0.6129815578460693
-0.1150127425789833,0.1712327301502227,0.115241564810276,-0.3865408599376678,-0.0678023695945739,0.0973669439554214,0.0,0.0,-0.2418993711471557,-0.9200481176376344
-0.1138416305184364,0.1621218770742416,0.1105933785438537,-0.4046440124511719,-0.0613561570644378,0.1289243251085281,0.0,0.0,0.2485452890396118,-0.1834050416946411
-0.112604521214962,0.1535204946994781,0.1172324419021606,-0.3820339739322662,-0.0549600198864936,0.1279227584600448,0.0,0.0,-0.0954803228378295,-0.805254340171814
-0.1113904938101768,0.1445162147283554,0.1135084480047226,-0.399924635887146,-0.0471494384109973,0.156211644411087,0.0,0.0,0.5488566160202026,0.0477460622787475
-0.1100461035966873,0.135735884308815,0.1262111961841583,-0.3899982273578644,-0.0390207022428512,0.1625748425722122,0.0,0.0,0.3513309955596924,0.754605770111084
-0.1086993217468261,0.1273032277822494,0.1281622946262359,-0.3746289610862732,-0.0325854159891605,0.1287057846784591,0.0,0.0,0.1683173179626464,-0.528724730014801
-0.1074467673897743,0.1190070509910583,0.1179167255759239,-0.3685780763626098,-0.025332223623991,0.1450637280941009,0.0,0.0,0.3713271617889404,0.6249120235443115
-0.1061165779829025,0.1109960377216339,0.1270098686218261,-0.3559517860412597,-0.0194015391170978,0.1186138018965721,0.0,0.0,0.0582990646362304,-0.663891613483429
-0.1047771424055099,0.1030825227499008,0.1266225278377533,-0.3516370058059692,-0.0121754128485918,0.1445223540067672,0.0,0.0,0.4459431171417236,0.7531360387802124
-0.10321044921875,0.0952158570289611,0.1507058441638946,-0.3495946824550628,-0.0062917056493461,0.1176743060350418,0.0,0.0,0.6477304697036743,0.2629314661026001
-0.1015052795410156,0.0879561528563499,0.1641516834497451,-0.3226388394832611,-1.0161197678826284e-05,0.1256308257579803,0.0,0.0,-0.0318925380706787,0.4578721523284912
-0.0997629165649414,0.0802816003561019,0.1679364144802093,-0.3411071002483368,0.0062159500084817,0.1245223507285118,0.0,0.0,0.6903877258300781,0.2932257652282715
