x_pos,y_pos,x_vel,y_vel,angle,ang_vel,leg_1,leg_2,main_booster,lat_booster
-0.0015973091358318,1.4033509492874146,-0.1626536846160888,-0.3364049792289734,0.0026158096734434,0.0516627803444862,0.0,0.0,-0.2765349149703979,0.8825368881225586
-0.0031949044205248,1.3955276012420654,-0.1612291038036346,-0.3477067053318023,0.0040681380778551,0.0290499832481145,0.0,0.0,-0.639816403388977,0.6744122505187988
-0.0048043252900242,1.3874257802963257,-0.1615693271160125,-0.3600807189941406,0.0046904790215194,0.0124481134116649,0.0,0.0,0.1294424533843994,0.9466555118560792
-0.0065146447159349,1.3795596361160278,-0.1705584377050399,-0.3496062159538269,0.0042214537970721,-0.0093813808634877,0.0,0.0,-0.3379940986633301,0.7664015293121338
-0.0082304002717137,1.3714227676391602,-0.1700600385665893,-0.3616327941417694,0.0027184062637388,-0.0300638172775506,0.0,0.0,0.1742298603057861,0.743602991104126
-0.0098574636504054,1.3635913133621216,-0.160646304488182,-0.3480662107467651,0.0006847086478956,-0.0406776815652847,0.0,0.0,-0.4785211086273193,0.4884054660797119
-0.0115649225190281,1.3554861545562744,-0.1695086061954498,-0.3602255582809448,-0.0005370216676965,-0.0244368407875299,0.0,0.0,0.1775214672088623,0.583226203918457
-0.0131895067170262,1.347800850868225,-0.1611072421073913,-0.3415675759315491,-0.0018777705263346,-0.0268172286450862,0.0,0.0,-0.2748915553092956,0.8377532958984375
-0.01483154296875,1.339851140975952,-0.1620190739631652,-0.3533330857753753,-0.0040272353217005,-0.0429933294653892,0.0,0.0,0.2259352207183838,0.5986789464950562
-0.0165074355900287,1.3324397802352903,-0.1650390475988388,-0.3294013738632202,-0.0065439576283097,-0.0503393597900867,0.0,0.0,-0.1077468395233154,-0.064170241355896
-0.0182665828615427,1.3247547149658203,-0.1741944849491119,-0.3415623605251312,-0.0082388492301106,-0.0339013263583183,0.0,0.0,-0.4059507846832275,0.8370541334152222
-0.0200358387082815,1.3167937994003296,-0.1741657108068466,-0.3538410365581512,-0.0109641971066594,-0.054512221366167,0.0,0.0,-0.6126877665519714,0.7925999164581299
-0.0218132976442575,1.3085620403289795,-0.1738978624343872,-0.3658847510814667,-0.014774071983993,-0.0762044265866279,0.0,0.0,-0.7068038582801819,0.4960075616836548
-0.0236755367368459,1.3000568151474,-0.1832124888896942,-0.3780397474765777,-0.0177564099431037,-0.0596520118415355,0.0,0.0,-0.4065867066383362,0.867551326751709
-0.0255384445190429,1.2912850379943848,-0.1819714605808258,-0.3899208009243011,-0.0220336709171533,-0.0855529755353927,0.0,0.0,-0.4470970034599304,0.8258442878723145
-0.0274101253598928,1.2822275161743164,-0.1817255169153213,-0.4026489853858948,-0.0274175330996513,-0.1076868548989296,0.0,0.0,0.2054311037063598,0.912818431854248
-0.0291614532470703,1.273835301399231,-0.1687522232532501,-0.3731156885623932,-0.0337227508425712,-0.1261160969734192,0.0,0.0,-0.558100700378418,0.3825597763061523
-0.0309989936649799,1.2651695013046265,-0.1782187223434448,-0.3852790296077728,-0.0391956456005573,-0.1094678193330764,0.0,0.0,-0.7844483256340027,0.8413559198379517
-0.0328456871211528,1.256233811378479,-0.1780245006084442,-0.3973306119441986,-0.0457753390073776,-0.1316058486700058,0.0,0.0,-0.4644848108291626,0.8513851165771484
-0.0347209945321083,0.0,-0.1802474707365036,-0.4097276031970978,-0.052986029535532,-0.1442268788814544,0.0,0.0,-0.9063947796821594,0.8823668956756592
-0.0365987792611122,1.2375332117080688,-0.1791861355304718,-0.4219718277454376,-0.0614866390824317,-0.1700273156166076,0.0,0.0,-0.7315610647201538,0.2784130573272705
-0.0385636314749717,1.227772831916809,-0.1887517571449279,-0.4341294467449188,-0.0691521391272544,-0.1533236503601074,0.0,0.0,-0.5720275044441223,0.1148761510848999
-0.040615938603878,1.2177387475967407,-0.1983396559953689,-0.4462853968143463,-0.0759835988283157,-0.1366410851478576,0.0,0.0,-0.6995760798454285,0.7380565404891968
-0.042691420763731,1.2074154615402222,-0.1998378932476043,-0.4592174589633941,-0.0836228355765342,-0.1527989655733108,0.0,0.0,-0.1304304599761963,0.9241664409637452
-0.0447987541556358,1.1968140602111816,-0.2024565190076828,-0.4716495871543884,-0.0918333679437637,-0.1642252504825592,0.0,0.0,-0.4061538577079773,0.924871563911438
-0.0469397529959678,1.1859153509140017,-0.2052554786205291,-0.4849633276462555,-0.1006063967943191,-0.175460860133171,0.0,0.0,0.5579676628112793,0.9651637077331544
-0.0490197166800498,1.1757593154907229,-0.1980572044849395,-0.4520792067050934,-0.110466144979,-0.1971949487924575,0.0,0.0,0.1814768314361572,0.9596459865570068
-0.0511557571589946,1.1662254333496094,-0.2025820314884185,-0.4245803654193878,-0.1214236691594123,-0.2191505134105682,0.0,0.0,-0.8646907210350037,0.8637895584106445
-0.0533263199031353,1.156415939331055,-0.2055288553237915,-0.4369625449180603,-0.1329008489847183,-0.2295436412096023,0.0,0.0,-0.5244285464286804,0.898544192314148
-0.0555175766348838,1.1463162899017334,-0.2066989690065384,-0.4500270187854767,-0.1452861577272415,-0.2477062493562698,0.0,0.0,-0.2963377237319946,0.5822649002075195
-0.0577494613826274,1.1359399557113647,-0.2104138880968094,-0.4624691605567932,-0.1580448001623153,-0.2551730275154114,0.0,0.0,-0.7378605604171753,0.8346571922302246
-0.0600134842097759,1.125272274017334,-0.2130120992660522,-0.4755958020687103,-0.1714397966861724,-0.2679000198841095,0.0,0.0,-0.8027339577674866,-0.1407002210617065
-0.0623657219111919,1.1143313646316528,-0.2226847857236862,-0.487751692533493,-0.1840163618326187,-0.2515310645103454,0.0,0.0,0.1694041490554809,0.4998562335968017
-0.0648037940263748,1.1035059690475464,-0.2319073230028152,-0.4826485812664032,-0.1959863603115081,-0.2393999397754669,0.0,0.0,-0.7122420072555542,0.27986741065979
-0.0673302635550499,1.092406988143921,-0.2415658235549926,-0.4948000013828277,-0.2071444392204284,-0.223161906003952,0.0,0.0,-0.4855467081069946,0.3313543796539306
-0.0699448585510253,1.081033706665039,-0.2512140870094299,-0.5069491267204285,-0.217494398355484,-0.2069991081953048,0.0,0.0,-0.5128952264785767,0.5839204788208008
-0.0726051330566406,1.0693689584732056,-0.255476176738739,-0.5200238823890686,-0.2281668484210968,-0.2134493291378021,0.0,0.0,-0.4155478477478027,0.3114598989486694
-0.0753534287214279,1.0574297904968262,-0.2650981247425079,-0.532170832157135,-0.2380397617816925,-0.1974582970142364,0.0,0.0,0.0800902843475341,0.3653321266174316
-0.0780849456787109,1.046027898788452,-0.2640954554080963,-0.508242666721344,-0.2472371011972427,-0.1839468777179718,0.0,0.0,-0.8700845241546631,-0.2091955542564392
-0.0809042900800705,1.034350872039795,-0.2736817002296448,-0.5203860998153687,-0.2556450963020324,-0.1681607663631439,0.0,0.0,0.3020918369293213,-0.0791255831718444
-0.0837376564741134,1.0233213901519775,-0.27548748254776,-0.4915955662727356,-0.2636590003967285,-0.1602781862020492,0.0,0.0,-0.2660065293312073,0.1136620044708252
-0.0866585746407508,1.0120162963867188,-0.2850288450717926,-0.5037366151809692,-0.2708957195281982,-0.1447346359491348,0.0,0.0,-0.7734071016311646,-0.1291135549545288
-0.0896670371294021,1.0004358291625977,-0.2945439219474792,-0.5158763527870178,-0.2773621380329132,-0.1293284595012664,0.0,0.0,-0.6902051568031311,-0.0818399786949157
-0.0927629470825195,0.988579273223877,-0.3040302097797394,-0.5280150771141052,-0.2830657064914703,-0.1140714660286903,0.0,0.0,-0.0463538169860839,0.5631704330444336
-0.0959074050188064,0.9764235019683838,-0.3085987269878387,-0.5414094924926758,-0.2890868782997131,-0.1204234734177589,0.0,0.0,-0.3185199499130249,0.3886704444885254
-0.0991388335824012,0.9639918208122252,-0.3180194795131683,-0.5535473227500916,-0.2943620979785919,-0.1055043116211891,0.0,0.0,-0.6689780950546265,0.8318798542022705
-0.1023886650800705,0.9512483477592468,-0.3187795877456665,-0.5676386952400208,-0.3007678985595703,-0.1281157284975052,0.0,0.0,-0.3706949949264526,0.8566642999649048
-0.1056704521179199,0.9382137060165404,-0.3213301599025726,-0.5807532668113708,-0.3078560531139374,-0.1417628973722458,0.0,0.0,-0.8851923942565918,0.8416140079498291
-0.1089874282479286,0.9248870611190796,-0.3242676556110382,-0.5938941240310669,-0.3155583143234253,-0.1540450900793075,0.0,0.0,0.2749634981155395,0.4949245452880859
-0.1122836098074913,0.9118519425392152,-0.322817862033844,-0.5808359384536743,-0.3226336538791656,-0.1415068358182907,0.0,0.0,-0.2690222263336181,0.970160722732544
-0.1155755072832107,0.8984960913658142,-0.3207051157951355,-0.5955084562301636,-0.3314723074436188,-0.1767732352018356,0.0,0.0,0.2630138397216797,0.867091178894043
-0.1187508553266525,0.0,-0.3079979419708252,-0.572684645652771,-0.341436356306076,-0.1992813944816589,0.0,0.0,0.2555990219116211,0.7245454788208008
-0.1217563599348068,0.8729483485221863,-0.2903859317302704,-0.567438542842865,-0.352114200592041,-0.2135568559169769,0.0,0.0,0.166184663772583,0.8006348609924316
-0.124588206410408,0.8607268929481506,-0.2721142768859863,-0.5459279417991638,-0.3637813031673431,-0.2333420217037201,0.0,0.0,0.6803686618804932,0.2998417615890503
-0.1271852552890777,0.8488449454307556,-0.2499295771121978,-0.5306029915809631,-0.3741228282451629,-0.206829622387886,0.0,0.0,0.4514636993408203,0.5273336172103882
-0.1297599822282791,0.8372905254364014,-0.2470873594284057,-0.5162793397903442,-0.385163813829422,-0.220819741487503,0.0,0.0,0.6998977661132812,-0.8864198923110962
-0.1320715844631195,0.8265871405601501,-0.223227709531784,-0.4778716266155243,-0.3936198949813843,-0.1691208332777023,0.0,0.0,0.8704992532730103,-0.600377082824707
-0.1340606659650802,0.8165991902351379,-0.1930969357490539,-0.4455315172672272,-0.3998321294784546,-0.1242448464035987,0.0,0.0,0.84055495262146,-0.8839006423950195
-0.1357505768537521,0.807597815990448,-0.1655701100826263,-0.4010337293148041,-0.4035082757472992,-0.0735228881239891,0.0,0.0,0.9819027185440063,-0.8950685858726501
-0.1373056471347808,0.7997283339500427,-0.154117539525032,-0.3501538038253784,-0.4049974381923675,-0.0297834184020757,0.0,0.0,0.959916353225708,-0.8774186968803406
-0.1387715339660644,0.7921828031539917,-0.1474597752094268,-0.3351096212863922,-0.4040678441524505,0.0185919180512428,0.0,0.0,0.939730167388916,-0.7208331823348999
-0.1401605606079101,0.7856091856956482,-0.1413173377513885,-0.2914824783802032,-0.4014802575111389,0.0517520308494567,0.0,0.0,0.9356372356414796,-0.9282615780830384
-0.1413116455078125,0.7795435190200806,-0.1199737191200256,-0.2682184875011444,-0.3962725698947906,0.1041530817747116,0.0,0.0,0.989187240600586,-0.9376360177993774
-0.1422936469316482,0.7742499113082886,-0.1053182110190391,-0.2333089262247085,-0.3886742293834686,0.1519665420055389,0.0,0.0,0.9840269088745116,-0.8178440928459167
-0.1432209908962249,0.7693752646446228,-0.1017989069223404,-0.2142054587602615,-0.3790116906166076,0.193250685930252,0.0,0.0,0.9183366298675536,0.1059236526489257
-0.1441029608249664,0.7652627229690552,-0.0969774350523948,-0.1804732531309127,-0.3696865439414978,0.1865023821592331,0.0,0.0,0.8968394994735718,-0.7579803466796875
-0.1447319984436035,0.762276828289032,-0.0735451728105545,-0.1299956291913986,-0.3584417104721069,0.2248967587947845,0.0,0.0,0.1151763200759887,0.1847484111785888
-0.1453125029802322,0.0,-0.0692281797528266,-0.1310626566410064,-0.3466868102550506,0.2350982874631881,0.0,0.0,-0.5921879410743713,-0.0015458464622497
-0.145964428782463,0.7559826970100403,-0.0766250938177108,-0.1432201862335205,-0.3347168266773224,0.2393994778394699,0.0,0.0,-0.7723460793495178,0.3167275190353393
-0.1466865539550781,0.7524270415306091,-0.0838564187288284,-0.1553794741630554,-0.3225716054439544,0.2429042160511016,0.0,0.0,-0.8476516008377075,0.4734035730361938
-0.1474774330854416,0.748599112033844,-0.0909138470888137,-0.1675403863191604,-0.3102918565273285,0.245594710111618,0.0,0.0,-0.7282456159591675,0.7047314643859863
-0.1482799500226974,0.7444735169410706,-0.0907537043094635,-0.1811448186635971,-0.2994269728660583,0.21729776263237,0.0,0.0,-0.9224993586540222,0.1287072896957397
-0.149148553609848,0.7400760054588318,-0.0974368751049041,-0.1933057755231857,-0.2885108292102813,0.2183229029178619,0.0,0.0,-0.4899993538856506,-0.0844818353652954
-0.1500814408063888,0.7354065179824829,-0.1039210334420204,-0.2054679095745086,-0.2775855958461761,0.2185047566890716,0.0,0.0,-0.7107363343238831,0.2618194818496704
-0.1510771811008453,0.7304652333259583,-0.110197827219963,-0.2176310718059539,-0.2666934728622436,0.2178428173065185,0.0,0.0,-0.2346953749656677,-0.4375037550926208
-0.1521339416503906,0.7252521514892578,-0.1162590608000755,-0.2297950834035873,-0.2558763921260834,0.2163409441709518,0.0,0.0,-0.1916420459747314,0.5533773899078369
-0.1532108336687088,0.7197465300559998,-0.1171499863266944,-0.2430761158466339,-0.2462412863969802,0.1927024275064468,0.0,0.0,-0.6824671030044556,-0.8159347772598267
-0.154407113790512,0.7140003442764282,-0.1306058764457702,-0.2535863220691681,-0.2350865751504898,0.2230941504240036,0.0,0.0,-0.9456660747528076,0.1104955673217773
-0.1556588113307953,0.7079828977584839,-0.1359733641147613,-0.2657530605792999,-0.2241295874118805,0.219139888882637,0.0,0.0,-0.3282613754272461,-0.1954349875450134
-0.1569637358188629,0.7016943693161011,-0.1410945951938629,-0.2779200971126556,-0.2134093791246414,0.2144041359424591,0.0,0.0,-0.4528120756149292,0.4350136518478393
-0.1583198606967926,0.6951344609260559,-0.1459626853466034,-0.2900871634483337,-0.2029638588428497,0.208910584449768,0.0,0.0,-0.8609942197799683,0.8935787677764893
-0.1596500426530838,0.6882883310317993,-0.1411889344453811,-0.303179383277893,-0.1947402954101562,0.1644711345434188,0.0,0.0,-0.8778457045555115,0.8647100925445557
-0.1609713584184646,0.6811536550521851,-0.1385236382484436,-0.3162679672241211,-0.1883075833320617,0.1286541372537613,0.0,0.0,-0.9781941771507264,0.8749109506607056
-0.1622748374938964,0.6737328767776489,-0.1347900331020355,-0.3292551636695862,-0.1838486045598983,0.0891795009374618,0.0,0.0,-0.9826602339744568,0.683128833770752
-0.1635679304599762,0.6660286784172058,-0.132005289196968,-0.3420739471912384,-0.1811427175998687,0.0541174001991748,0.0,0.0,-0.982038915157318,0.9176759719848632
-0.1648189574480056,0.6580299735069275,-0.1252559572458267,-0.3554798066616058,-0.1809863895177841,0.0031267732847481,0.0,0.0,-0.9977915287017822,-0.4482910633087158
-0.1661069840192794,0.6497589349746704,-0.1284892708063125,-0.3676397204399109,-0.1813014447689056,-0.0063011599704623,0.0,0.0,-0.9941241145133972,0.2703886032104492
-0.1674294471740722,0.6412156224250793,-0.1314373016357422,-0.3798000514507293,-0.1821151077747345,-0.0162730924785137,0.0,0.0,-0.9956443309783936,0.947699785232544
-0.1686922013759613,0.6323747634887695,-0.1225826367735862,-0.393386036157608,-0.1858184784650802,-0.0740674287080764,0.0,0.0,-0.9852157831192015,-0.503109335899353
-0.1700145751237869,0.6232666969299316,-0.1287764012813568,-0.4052440822124481,-0.1892967671155929,-0.0695659071207046,0.0,0.0,-0.9524391293525696,0.0519196987152099
-0.1713634431362152,0.613886833190918,-0.1308600902557373,-0.4174068570137024,-0.1933456659317016,-0.0809783786535263,0.0,0.0,-0.9859424233436584,-0.7598137855529785
-0.1727911978960037,0.6042571663856506,-0.1396069824695587,-0.4284020364284515,-0.1965350210666656,-0.0637868344783783,0.0,0.0,-0.6850733757019043,0.8686527013778687
-0.1741584837436676,0.5943349003791809,-0.1308605968952179,-0.4417788684368133,-0.2024389058351516,-0.1180777177214622,0.0,0.0,-0.973672330379486,-0.4132499694824219
-0.1755441725254058,0.5841413736343384,-0.132082998752594,-0.453945130109787,-0.2089720666408538,-0.1306636035442352,0.0,0.0,-0.6489446759223938,-0.6664786338806152
-0.1770016700029373,0.5736926794052124,-0.1400892734527588,-0.4652001559734344,-0.2146955132484436,-0.1144686117768287,0.0,0.0,0.2616795301437378,-0.6934317946434021
-0.1783134490251541,0.5639408826828003,-0.1263562142848968,-0.4341252148151397,-0.2195764183998108,-0.0976179093122482,0.0,0.0,-0.7248772978782654,-0.4364444613456726
-0.1796358078718185,0.5539179444313049,-0.1267392039299011,-0.4462922811508178,-0.2251337021589279,-0.1111457198858261,0.0,0.0,0.7810770273208618,-0.8283091187477112
-0.1809809654951095,0.5449565052986145,-0.1297320574522018,-0.3990225493907928,-0.2299819141626358,-0.0969639644026756,0.0,0.0,-0.6256382465362549,-0.7816846966743469
-0.182382196187973,0.5357460379600525,-0.1359845697879791,-0.4100106656551361,-0.2341812402009964,-0.0839869603514671,0.0,0.0,-0.6767578721046448,-0.836243212223053
-0.1838551461696624,0.5262952446937561,-0.1442732363939285,-0.4205178022384643,-0.2372529655694961,-0.0614345259964466,0.0,0.0,-0.2426751255989074,-0.8598912954330444
-0.1854025870561599,0.5166066288948059,-0.1529485285282135,-0.4308967590332031,-0.2390708327293396,-0.0363572053611278,0.0,0.0,0.8963512182235718,0.2396551370620727
-0.1868403404951095,0.5074900388717651,-0.1411359906196594,-0.4056133925914764,-0.2417551428079605,-0.0536860413849353,0.0,0.0,0.8563088178634644,-0.7020622491836548
-0.1883032768964767,0.4991580247879028,-0.143997773528099,-0.3706906735897064,-0.2440968751907348,-0.046834796667099,0.0,0.0,0.9155468940734864,0.5024099349975586
-0.1897536218166351,0.4914904832839966,-0.1404467225074768,-0.3415483236312866,-0.2487594485282898,-0.0932515114545822,0.0,0.0,0.9196953773498536,-0.6310804486274719
-0.1909092962741851,0.4847394227981567,-0.111841581761837,-0.3006830215454101,-0.2525583803653717,-0.0759787857532501,0.0,0.0,0.655813455581665,-0.9547642469406128
-0.1919690072536468,0.4782489538192749,-0.1034717708826065,-0.2888986468315124,-0.2551136016845703,-0.0511044450104236,0.0,0.0,0.8364574909210205,-0.9723619222640992
-0.1927008628845214,0.4726868569850921,-0.0721158385276794,-0.2473896592855453,-0.2561972141265869,-0.0216719713062047,0.0,0.0,-0.0572126507759094,-0.9279786944389344
-0.1934898346662521,0.466890275478363,-0.0789890363812446,-0.2576106488704681,-0.256105363368988,0.001837047515437,0.0,0.0,0.1709166765213012,-0.8253777623176575
-0.1940571814775467,0.4616913795471191,-0.0577652752399444,-0.23088239133358,-0.2550486624240875,0.0211337711662054,0.0,0.0,0.7269651889801025,-0.8260363340377808
-0.1944308280944824,0.4570924937725067,-0.0394218191504478,-0.2040380835533142,-0.2529546618461609,0.0418803133070468,0.0,0.0,0.2437707185745239,-0.6382473111152649
-0.1946837455034256,0.453142911195755,-0.0278323888778686,-0.1751027703285217,-0.250369518995285,0.0517028197646141,0.0,0.0,0.6194322109222412,-0.7420148253440857
-0.1947156935930252,0.4500482082366943,-0.0065458072349429,-0.1369723975658416,-0.2469547241926193,0.0682960003614425,0.0,0.0,-0.4401427507400512,-0.2441531419754028
-0.1947240829467773,0.446682870388031,-0.0034044873900711,-0.1491425633430481,-0.2443433254957199,0.0522279441356658,0.0,0.0,0.0545201301574707,-0.6574046611785889
-0.1947480142116546,0.4436732232570648,-0.0053869723342359,-0.1332681477069854,-0.2413022220134735,0.060822207480669,0.0,0.0,-0.7846263647079468,-0.5644946098327637
-0.1947981864213943,0.4404107928276062,-0.0085771596059203,-0.1444182842969894,-0.2376906424760818,0.0722317844629287,0.0,0.0,-0.2889389395713806,-0.5333890318870544
-0.1948630362749099,0.4368927478790283,-0.0103403311222791,-0.1557400971651077,-0.2337784469127655,0.0782443135976791,0.0,0.0,-0.5480138659477234,-0.6593579649925232
-0.1949475258588791,0.4331201314926147,-0.0127521576359868,-0.1669947952032089,-0.2294115573167801,0.0873379334807396,0.0,0.0,-0.8851020336151123,-0.0531861782073974
-0.195001795887947,0.4290767908096313,-0.0089285084977746,-0.1791647225618362,-0.2258640825748443,0.0709496140480041,0.0,0.0,-0.5135626792907715,-0.2651846408843994
-0.1950246840715408,0.4247625768184662,-0.0049920049495995,-0.191333919763565,-0.2231384813785553,0.0545122697949409,0.0,0.0,0.5463199615478516,-0.6209428310394287
-0.1948702782392501,0.4212954342365265,0.0122622977942228,-0.1536185443401336,-0.2199252545833587,0.064264565706253,0.0,0.0,-0.7807962894439697,-0.5807186365127563
