x_pos,y_pos,x_vel,y_vel,angle,ang_vel,leg_1,leg_2,main_booster,lat_booster
-0.0016206741565838,1.4033411741256714,-0.1638325005769729,-0.3368397653102875,0.0015776269137859,0.0311063285917043,0.0,0.0,0.4037383886727086,-0.8593255894852471
-0.0033575058914721,1.3960859775543213,-0.1767564713954925,-0.3224621117115021,0.0046176086179912,0.0608061477541923,0.0,0.0,-0.5742418491362382,0.7610508547316062
-0.0051191328093409,1.3885416984558103,-0.1771115213632583,-0.3352976739406585,0.0055517740547657,0.0186850540339946,0.0,0.0,0.5805789536286243,0.5866112890433839
-0.0070583345368504,1.3814287185668943,-0.1930940449237823,-0.3161298036575317,0.0047389222308993,-0.0162584036588668,0.0,0.0,-0.3252258797094838,-0.9638963609548086
-0.0091549875214695,1.3740348815917969,-0.2100869417190551,-0.3286145329475403,0.0051529109477996,0.0082806106656789,0.0,0.0,0.92396104417278,0.7482647585639044
-0.0111207962036132,1.3673073053359983,-0.1956523954868316,-0.2990013062953949,0.004235400352627,-0.0183522589504718,0.0,0.0,-0.248471571295197,0.5373984065358348
-0.0131438253447413,1.3602964878082275,-0.2000535726547241,-0.3115836679935455,0.0020144309382885,-0.0444234386086463,0.0,0.0,0.9638069489526736,0.9606775572226504
-0.0149941444396972,1.354159951210022,-0.1809642016887664,-0.2727385461330414,-0.0020157173275947,-0.080610416829586,0.0,0.0,0.964239869078454,-0.8373635546428148
-0.0170219428837299,1.3492417335510254,-0.200053408741951,-0.2185935825109481,-0.0047076600603759,-0.0538436397910118,0.0,0.0,-0.9855741742301048,0.526686278429626
-0.0191059112548828,1.344043254852295,-0.2043385803699493,-0.2310613542795181,-0.0087304785847663,-0.0804636627435684,0.0,0.0,-0.2328130574349536,0.7291061095122482
-0.0212220195680856,1.3385616540908811,-0.2055706530809402,-0.2436708062887191,-0.0146940564736723,-0.1192826032638549,0.0,0.0,-0.0923104125331488,0.7260929294006376
-0.0233716014772653,1.3327946662902832,-0.2070014923810959,-0.256408154964447,-0.0225574355572462,-0.157282143831253,0.0,0.0,0.7821221176231801,0.9499366230131332
-0.025369644165039,1.3278738260269165,-0.1899166703224182,-0.2188716679811477,-0.0323402918875217,-0.1956753134727478,0.0,0.0,0.4270079182352262,0.5264983173312816
-0.0273489952087402,1.3231210708618164,-0.1868616640567779,-0.2115042507648468,-0.0433018282055854,-0.2192503660917282,0.0,0.0,-0.4621234675593544,0.9368515805846932
-0.0293337814509868,1.3180911540985107,-0.1847870051860809,-0.2240032106637954,-0.0568532086908817,-0.2710520923137665,0.0,0.0,0.0089647559226497,0.8175864230713218
-0.0312621109187603,1.3130311965942385,-0.177228033542633,-0.2255538552999496,-0.0723079293966293,-0.3091227412223816,0.0,0.0,0.111311980887752,0.5721231681520424
-0.0330968871712684,1.308543086051941,-0.1666126996278762,-0.2003708928823471,-0.0890220329165458,-0.3343127965927124,0.0,0.0,0.6895551309032679,0.6142423970518718
-0.0347887054085731,1.3043158054351809,-0.1512149572372436,-0.1890477985143661,-0.1068661883473396,-0.3569158315658569,0.0,0.0,-0.028897639297384,-0.7917333673322753
-0.0366274826228618,1.2998251914978027,-0.1669664233922958,-0.2008703052997589,-0.1236868426203727,-0.3364433944225311,0.0,0.0,-0.2527959065820728,0.6572439566421335
-0.0385165214538574,1.2950475215911863,-0.1705981940031051,-0.2139642983675003,-0.1419464498758316,-0.365225613117218,0.0,0.0,0.4948035751569868,0.961119395874796
-0.0401978492736816,1.2909650802612305,-0.1477741003036499,-0.183509424328804,-0.1622928082942962,-0.4069640636444092,0.0,0.0,-0.4344415588389296,-0.6753983016406899
-0.042024802416563,1.286613702774048,-0.163442924618721,-0.1956095099449157,-0.1816204786300659,-0.3865879476070404,0.0,0.0,0.4848816337381747,0.7054682182532273
-0.04367570951581,1.282656192779541,-0.144410952925682,-0.1785547435283661,-0.202431246638298,-0.4162531793117523,0.0,0.0,0.773255393693234,0.686864327464662
-0.0452200882136821,1.278865933418274,-0.1323724687099456,-0.1716272085905075,-0.2247445583343505,-0.4463064670562744,0.0,0.0,-0.3943339528176501,0.590284388293749
-0.0468212142586708,1.2747896909713743,-0.1369763314723968,-0.1848673522472381,-0.248271033167839,-0.4705716669559479,0.0,0.0,-0.6214321872321775,0.6209081540745411
-0.0484807007014751,1.2704071998596191,-0.1416760087013244,-0.1990651786327362,-0.2730538547039032,-0.4956563413143158,0.0,0.0,-0.7295925901569085,0.6845527129240051
-0.0501776710152626,1.2657334804534912,-0.143946960568428,-0.2127568870782852,-0.2995396256446838,-0.5297163128852844,0.0,0.0,-0.8769712738917665,0.5780573176195718
-0.0519289001822471,1.2607767581939695,-0.1484046429395675,-0.2260381430387497,-0.3272517621517181,-0.5542425513267517,0.0,0.0,-0.2009407786385579,0.8521051010898955
-0.0537171363830566,1.2555299997329712,-0.1507739424705505,-0.239820197224617,-0.3566322028636932,-0.5876096487045288,0.0,0.0,-0.1975934567358974,0.982908808104879
-0.05552339553833,1.2499704360961914,-0.1507478356361389,-0.2548336088657379,-0.3882775008678436,-0.6329061388969421,0.0,0.0,0.0212615995710705,-0.6006980811773717
-0.0572469718754291,1.2448934316635132,-0.1437371969223022,-0.2337565124034881,-0.4189730882644653,-0.6139124631881714,0.0,0.0,-0.8109574913978577,-0.9997299909591676
-0.059137724339962,1.2395944595336914,-0.162687748670578,-0.2436211854219436,-0.447648137807846,-0.5735008716583252,0.0,0.0,-0.5815580487251282,-0.9999679923057556
-0.0611896514892578,1.2340892553329468,-0.1810402572154998,-0.2526439726352691,-0.4742524623870849,-0.5320866703987122,0.0,0.0,-0.7789517045021057,-0.9956976175308228
-0.0634038895368576,1.2283614873886108,-0.1993649899959564,-0.262321799993515,-0.4988762736320495,-0.4924762845039367,0.0,0.0,-0.9240754246711732,-0.9996876120567322
-0.0657660514116287,1.2224154472351074,-0.2159725725650787,-0.2718003988265991,-0.5217627286911011,-0.4577295780181885,0.0,0.0,-0.8368440866470337,-0.9999239444732666
-0.0682719200849533,1.2162567377090454,-0.2321247607469558,-0.2809456288814544,-0.5428999662399292,-0.4227448105812073,0.0,0.0,-0.844422459602356,-0.9993366599082948
-0.0709286704659462,1.2098803520202637,-0.2490679770708084,-0.2902014851570129,-0.5621428489685059,-0.384857565164566,0.0,0.0,-0.811104416847229,-0.998931348323822
-0.0737222656607627,1.203291416168213,-0.2643929719924927,-0.299232006072998,-0.579690158367157,-0.3509453535079956,0.0,0.0,-0.5204481482505798,-0.9990963339805604
-0.0766574889421463,1.1965019702911377,-0.2803913652896881,-0.3075752258300781,-0.5952517986297607,-0.3112324774265289,0.0,0.0,-0.8341691493988037,-0.993175745010376
-0.0797279328107833,1.1894968748092651,-0.2954923510551452,-0.3166272342205047,-0.6090892553329468,-0.276749312877655,0.0,0.0,-0.3644773960113525,-0.9995858073234558
-0.0829431563615799,1.182297706604004,-0.3119198977947235,-0.3244688808917999,-0.6206856369972229,-0.231927752494812,0.0,0.0,-0.8361978530883789,-0.9927810430526732
-0.0862801522016525,1.1748707294464111,-0.325316309928894,-0.3341167569160461,-0.6308908462524414,-0.2041044533252716,0.0,0.0,-0.6764081716537476,-0.9941920638084412
-0.0897427573800087,1.1672128438949585,-0.3391298651695251,-0.3438590764999389,-0.6396180987358093,-0.1745447069406509,0.0,0.0,-0.7286152243614197,-0.98005211353302
-0.0933233276009559,1.1593296527862549,-0.3521726727485657,-0.3532975316047668,-0.6468799710273743,-0.1452388912439346,0.0,0.0,-0.8907371163368225,-0.998585879802704
-0.0970385521650314,1.15123188495636,-0.3672682642936706,-0.362062007188797,-0.6521494388580322,-0.1053897142410278,0.0,0.0,-0.824901282787323,-0.9779046177864076
-0.1008744239807128,1.142909288406372,-0.3806801438331604,-0.3713822662830353,-0.655773401260376,-0.0724791511893272,0.0,0.0,-0.8257729411125183,-0.9782766699790956
-0.1048245429992675,1.134364128112793,-0.3933876454830169,-0.3806178271770477,-0.6577925086021423,-0.0403818748891353,0.0,0.0,-0.9284921884536744,-0.9602791666984558
-0.1088947281241417,1.1256271600723269,-0.4071714282035827,-0.3882345259189605,-0.6576069593429565,0.0037112317513674,0.0,0.0,-0.0329061150550842,-0.8671519756317139
-0.113077737390995,1.1166903972625732,-0.4200765490531921,-0.3962754011154175,-0.6553962826728821,0.0442139133810997,0.0,0.0,-0.0033809542655944,-0.7802221775054932
-0.1173587813973426,1.1075283288955688,-0.4310539364814758,-0.4056915044784546,-0.6517229676246643,0.0734658613801002,0.0,0.0,0.2677369117736816,0.0868273973464965
-0.121329978108406,1.09850811958313,-0.4002609252929687,-0.399312824010849,-0.6478344202041626,0.0777706578373909,0.0,0.0,0.456019639968872,-0.0242656469345092
-0.124989315867424,1.0900295972824097,-0.3686592280864715,-0.3754574060440063,-0.6444706320762634,0.0672757178544998,0.0,0.0,0.4758408069610595,0.2225289344787597
-0.1283673346042633,1.0816583633422852,-0.3406586349010467,-0.3706236183643341,-0.6409411430358887,0.0705902725458145,0.0,0.0,0.5509253740310669,-0.4928441047668457
-0.1313259154558181,1.073904037475586,-0.2985125184059143,-0.3433273732662201,-0.6376792192459106,0.0652379319071769,0.0,0.0,0.6760797500610352,-0.7070112228393555
-0.1339290589094162,1.0663646459579468,-0.2642536163330078,-0.3331466019153595,-0.6328422427177429,0.0967390462756156,0.0,0.0,0.6440041065216064,-0.486644446849823
-0.1363530158996582,1.0591957569122314,-0.2457671165466308,-0.3169710338115692,-0.6287165880203247,0.0825131684541702,0.0,0.0,0.3761017322540283,-0.2549207210540771
-0.1383398026227951,1.0524822473526,-0.2021457254886627,,-0.6244946718215942,0.0844386368989944,0.0,0.0,0.1849026679992675,-0.5049786567687988
-0.1399989128112793,1.0460176467895508,-0.1702399551868438,-0.2852415442466736,-0.6192272305488586,0.1053488478064537,0.0,0.0,-0.5237480998039246,-0.6306975483894348
-0.1416968405246734,1.0393146276474,-0.1749375164508819,-0.2954803109169006,-0.613005518913269,0.1244347915053367,0.0,0.0,-0.1384385824203491,-0.5690462589263916
-0.143435001373291,1.03237783908844,-0.1799350529909134,-0.3054547607898712,-0.6056352257728577,0.1474058777093887,0.0,0.0,-0.0548028945922851,-0.2978940010070801
-0.1451695412397384,1.0251601934432983,-0.1794018298387527,-0.3180574178695678,-0.5985035300254822,0.1426335275173187,0.0,0.0,0.139126181602478,-0.589698851108551
-0.1467228829860687,1.018367052078247,-0.1621009707450866,-0.2988636791706085,-0.590434193611145,0.1613871753215789,0.0,0.0,0.1335924863815307,-0.8249006867408752
-0.1480375230312347,1.01170551776886,-0.1395960301160812,-0.292468398809433,-0.5807873010635376,0.1929374784231186,0.0,0.0,0.2706762552261352,-0.4767103195190429
-0.1490592956542968,1.0053393840789795,-0.1102572530508041,-0.2794297039508819,-0.5712690949440002,0.1903646290302276,0.0,0.0,-0.0795886516571044,-0.7568790316581726
-0.150108054280281,0.9987353682518004,-0.1141985654830932,-0.2895635962486267,-0.5603621602058411,0.2181392461061477,0.0,0.0,-0.4485765695571899,-0.5593876242637634
-0.1511721611022949,0.99189293384552,-0.1168867200613021,-0.2997790277004242,-0.5482053756713867,0.243135929107666,0.0,0.0,-0.242338478565216,-0.2966529130935669
-0.152202695608139,0.9847702383995056,-0.1134448871016502,-0.3123849928379059,-0.5362293720245361,0.2395207434892654,0.0,0.0,-0.1947451829910278,-0.5538672804832458
-0.1532293260097503,0.9773902297019958,-0.1138723641633987,-0.3236226439476013,-0.5234158039093018,0.2562712132930755,0.0,0.0,-0.7243570685386658,-0.0275048017501831
-0.1542135179042816,0.9697298407554626,-0.1095583438873291,-0.3362285494804382,-0.5107586979866028,0.2531421184539795,0.0,0.0,-0.2243686318397522,-0.7214387059211731
-0.1552085876464843,0.96183443069458,-0.1121735349297523,-0.3462522327899933,-0.4964861273765564,0.2854514122009277,0.0,0.0,0.2304698228836059,-0.5877427458763123
-0.1560183465480804,0.9544129371643066,-0.0946143642067909,-0.324994295835495,-0.4812280833721161,0.3051609098911285,0.0,0.0,-0.4341460466384887,-0.7347426414489746
-0.1568209677934646,0.9467512965202332,-0.0952354073524475,-0.3354097902774811,-0.4646184742450714,0.3321919739246368,0.0,0.0,-0.1641079187393188,-0.0027284026145935
-0.157565027475357,0.9388100504875184,-0.0894049778580665,-0.3480216860771179,-0.4481096565723419,0.3301762342453003,0.0,0.0,-0.7441477179527283,-0.36959969997406
-0.1582469940185547,0.9305893778800964,-0.0832437500357627,-0.3606328070163727,-0.4316863417625427,0.3284662961959839,0.0,0.0,-0.592828094959259,0.0192892551422119
-0.158863827586174,0.9220890998840332,-0.0767721310257911,-0.3732432126998901,-0.4153327643871307,0.3270713686943054,0.0,0.0,-0.3450466394424438,0.4359704256057739
-0.1594123840332031,0.9133092164993286,-0.0700102150440216,-0.385852962732315,-0.3990327715873718,0.3259994387626648,0.0,0.0,-0.1092193126678466,0.4765249490737915
-0.1598898917436599,0.9042494893074036,-0.062977597117424,-0.3984621465206146,-0.382769912481308,0.3252572417259216,0.0,0.0,-0.2271183133125305,0.608191728591919
-0.1602488458156585,0.8948883414268494,-0.050027459859848,-0.412328153848648,-0.3677572011947632,0.3002540469169616,0.0,0.0,-0.7354946732521057,0.5507996082305908
-0.1604845970869064,0.8852251172065735,-0.0365897044539451,-0.4261914789676666,-0.3540244996547699,0.2746539413928985,0.0,0.0,-0.8423600792884827,0.6075923442840576
-0.1606041938066482,0.8752663135528564,-0.0241038631647825,-0.4396740794181824,-0.3412851691246032,0.2547869682312011,0.0,0.0,-0.4964972734451294,0.5536985397338867
-0.160612866282463,0.8650035262107849,-0.0122221624478697,-0.453476995229721,-0.3294113874435425,0.2374754846096038,0.0,0.0,-0.7718150019645691,0.4308801889419555
-0.1605394333600998,0.8544592261314392,-0.0041002365760505,-0.4660744071006775,-0.3174892961978912,0.2384416162967682,0.0,0.0,-0.8920857906341553,0.5918347835540771
-0.1603450775146484,0.8436148166656494,0.008836462162435,-0.4796915352344513,-0.3065060675144195,0.2196647375822067,0.0,0.0,-0.7594903111457825,0.6930909156799316
-0.1600174009799957,0.832468569278717,0.0233096871525049,-0.4934222400188446,-0.2967205345630646,0.1957107633352279,0.0,0.0,-0.8998910784721375,0.3812685012817383
-0.1596024483442306,0.8210400938987732,0.0318998619914054,-0.5060150027275085,-0.2868359684944153,0.1976910382509231,0.0,0.0,-0.9594578742980956,0.1343140602111816
-0.1590990126132965,0.8093290328979492,0.0406204536557197,-0.5186076760292053,-0.2768360078334808,0.1999983638525009,0.0,0.0,-0.7306639552116394,0.4542447328567505
-0.1585055291652679,0.7973356246948242,0.0494604483246803,-0.5312002301216125,-0.2667047381401062,0.2026251852512359,0.0,0.0,-0.9617761969566344,0.4198975563049316
-0.1578207910060882,0.7850599884986877,0.0584096908569335,-0.543792724609375,-0.256426602602005,0.2055628001689911,0.0,0.0,-0.9667637348175048,-0.0245401263236999
-0.1570437401533126,0.7725018262863159,0.067458800971508,-0.556385338306427,-0.2459865361452102,0.2088015526533126,0.0,0.0,-0.7866318821907043,0.3341821432113647
-0.1561733186244964,0.7596613764762878,0.0765991657972335,-0.5689781308174133,-0.2353699803352356,0.2123310267925262,0.0,0.0,-0.9733198285102844,0.5648421049118042
-0.1551648080348968,0.7465270161628723,0.0912914276123046,-0.5822574496269226,-0.2256883233785629,0.1936331689357757,0.0,0.0,-0.9463613033294678,0.4403706789016723
-0.1540612280368805,0.7331099510192871,0.1005918532609939,-0.5948487520217896,-0.215802788734436,0.1977110803127288,0.0,0.0,-0.9161919951438904,0.15910005569458
-0.1528615057468414,0.7194103598594666,0.1099617034196853,-0.6074404120445251,-0.2057005167007446,0.2020454406738281,0.0,0.0,-0.9765385985374452,0.2043192386627197
-0.1515650749206543,0.705428421497345,0.1193948835134506,-0.6200323700904846,-0.1953693181276321,0.2066240012645721,0.0,0.0,-0.9555115699768066,0.1308398246765136
-0.1501709967851638,0.691163957118988,0.1288858354091644,-0.6326247453689575,-0.1847976148128509,0.2114343643188476,0.0,0.0,-0.8898747563362122,0.2753802537918091
-0.1486788690090179,0.6766172051429749,0.1384294331073761,-0.6452176570892334,-0.1739743798971176,0.2164642810821533,0.0,0.0,-0.8788901567459106,0.4987001419067383
-0.147087961435318,0.6617882251739502,0.1480210721492767,-0.6578111052513123,-0.162889301776886,0.2217015922069549,0.0,0.0,-0.9047918915748596,-0.0010091066360473
-0.1453978568315506,0.6466770172119141,0.1576564908027649,-0.6704050898551941,-0.1515325754880905,0.2271343171596527,0.0,0.0,-0.8960294723510742,0.6903607845306396
-0.1435457170009613,0.6312728524208069,0.1751241981983184,-0.683636486530304,-0.141473963856697,0.2011722773313522,0.0,0.0,-0.7156796455383301,-0.3151875138282776
-0.1415934562683105,0.6155864596366882,0.1848365366458892,-0.6962289810180664,-0.1311258673667907,0.2069620192050933,0.0,0.0,-0.7404892444610596,-0.2305056452751159
-0.1395406723022461,0.5996176600456238,0.1945818960666656,-0.7088221311569214,-0.1204802021384239,0.2129133641719818,0.0,0.0,-0.5169281363487244,-0.5354828834533691
-0.1374307572841644,0.5833728909492493,0.1988460272550583,-0.7210510969161987,-0.1084171384572982,0.2412614077329635,0.0,0.0,-0.1774539351463318,-0.0999124646186828
-0.1352196633815765,0.566846489906311,0.208648532629013,-0.7336479425430298,-0.0960419252514839,0.2475040853023529,0.0,0.0,-0.5480766296386719,0.2753615379333496
-0.132906824350357,0.5500384569168091,0.2184759378433227,-0.7462456822395325,-0.0833480283617973,0.2538779973983764,0.0,0.0,0.0579568147659301,0.268035888671875
-0.1303861588239669,0.5336285829544067,0.2386012524366378,-0.728631854057312,-0.0700156390666961,0.2666476368904114,0.0,0.0,-0.010276973247528,0.5453090667724609
-0.127716064453125,0.5169275403022766,0.2544018626213074,-0.7417218089103699,-0.0575504414737224,0.2493041753768921,0.0,0.0,-0.0045884847640991,0.1098370552062988
-0.1249436363577842,0.4999452531337738,0.2642912268638611,-0.7543206810951233,-0.0447494350373744,0.2560201287269592,0.0,0.0,0.3435655832290649,-0.2194327116012573
-0.1220589652657508,0.4836286902427673,0.2752509713172912,-0.724837601184845,-0.0316937826573848,0.261113166809082,0.0,0.0,0.2651437520980835,0.0283598899841308
-0.1189415007829666,0.4680069983005523,0.2976571321487427,-0.6940574049949646,-0.0177875813096761,0.2781240344047546,0.0,0.0,-0.5798760652542114,0.0862761735916137
-0.1157212257385253,0.4521047174930572,0.3075918555259704,-0.7066605687141418,-0.0035319223534315,0.2851132750511169,0.0,0.0,-0.3909711837768554,0.2557408809661865
-0.1123978644609451,0.4359219074249267,0.31753870844841,-0.7192651033401489,0.0110771190375089,0.2921808362007141,0.0,0.0,0.1338739395141601,0.2888486385345459
-0.1089356392621994,0.4202704131603241,0.3308676183223724,-0.6958093643188477,0.0262357145547866,0.3031717538833618,0.0,0.0,0.2082493305206298,-0.5069060325622559
-0.1053547859191894,0.4048402607440948,0.3412169218063354,-0.6861617565155029,0.0429007150232791,0.3333000540733337,0.0,0.0,0.0409637689590454,0.355406641960144
-0.1017642021179199,0.3897096812725067,0.3421844244003296,-0.6730358600616455,0.0595727525651454,0.3334408402442932,0.0,0.0,0.3049267530441284,0.271735668182373
-0.0981957465410232,0.3748995959758758,0.3401016891002655,-0.6589747071266174,0.0761423259973526,0.3313911557197571,0.0,0.0,-0.091564655303955,-0.0752164721488952
-0.0945238098502159,0.3598104119300842,0.3500909805297851,-0.6715875864028931,0.0930810049176216,0.3387736678123474,0.0,0.0,0.7105503082275391,-0.2295432090759277
-0.0907731056213378,0.3452710509300232,0.3575052618980407,-0.6473819017410278,0.1105156764388084,0.3486931622028351,0.0,0.0,0.5140700340270996,0.6269112825393677
-0.0867759734392166,0.3309682309627533,0.3827799260616302,-0.6370195150375366,0.1273581385612487,0.3368489146232605,0.0,0.0,0.3372904062271118,0.1336504220962524
-0.0826673507690429,0.317225307226181,0.3932122588157654,-0.6123987436294556,0.1449416577816009,0.3516705632209778,0.0,0.0,0.6669098138809204,-0.3143194317817688
-0.0785478577017784,0.3044175803661346,0.3938489258289337,-0.5710964798927307,0.1630204170942306,0.3615747392177582,0.0,0.0,0.32887864112854,0.3996675014495849
