x_pos,y_pos,x_vel,y_vel,angle,ang_vel,leg_1,leg_2,main_booster,lat_booster
-0.0014716148143634,1.4034889936447144,-0.149088054895401,-0.3302731513977051,0.0017189348582178,0.0339044854044914,0.0,0.0,-0.0238057971000671,0.7199625968933105
-0.002824401948601,1.395942211151123,-0.1353847533464431,-0.3354152739048004,0.0018274618778377,0.0021713906899094,0.0,0.0,-0.0649056434631347,0.4253195524215698
-0.0041143419221043,1.3882592916488647,-0.1290800422430038,-0.3414613902568817,0.0019128860440105,0.0017088711028918,0.0,0.0,-0.4686057567596435,0.8134384155273438
-0.0052853585220873,1.3804384469985962,-0.1158494725823402,-0.3475973308086395,0.0006811784696765,-0.0246367938816547,0.0,0.0,-0.1946337223052978,0.2583460807800293
-0.0063839913345873,1.3724819421768188,-0.1085992604494094,-0.3536198735237121,-0.0005770496791228,-0.0251665655523538,0.0,0.0,-0.4683896899223327,-0.1347776651382446
-0.0074062347412109,1.3643898963928225,-0.100920483469963,-0.3596425652503967,-0.0018645214149728,-0.0257519278675317,0.0,0.0,-0.6536417603492737,-0.318935751914978
-0.0083479881286621,1.3561625480651855,-0.0928405672311782,-0.3656653761863708,-0.0031828135251998,-0.0263684578239917,0.0,0.0,-0.7435716986656189,0.096634030342102
-0.0092056272551417,1.34779953956604,-0.0843864902853965,-0.3716882169246673,-0.0045336550101637,-0.0270196534693241,0.0,0.0,-0.8597320914268494,-0.4496912956237793
-0.0099755283445119,1.3393012285232544,-0.0755844190716743,-0.3777111172676086,-0.0059187044389545,-0.0277036819607019,0.0,0.0,-0.7546269297599792,0.2963786125183105
-0.0106545444577932,1.3306673765182495,-0.066459521651268,-0.3837340772151947,-0.0073394877836108,-0.028418656438589,0.0,0.0,-0.944010615348816,0.4844967126846313
-0.0112397195771336,1.3218979835510254,-0.0570358522236347,-0.3897570371627807,-0.0087974816560745,-0.0291628129780292,0.0,0.0,-0.8906845450401306,-0.2711809873580932
-0.0117281917482614,1.312993049621582,-0.0473363064229488,-0.3957801163196563,-0.0102940462529659,-0.0299342721700668,0.0,0.0,-0.9330669641494752,-0.6849136352539062
-0.0121599193662405,1.3039569854736328,-0.0426907911896705,-0.4016112387180328,-0.0107658198103308,-0.0094361444935202,0.0,0.0,-0.7211427092552185,0.2839223146438598
-0.01249017752707,1.2947852611541748,-0.0325060710310936,-0.4076341092586517,-0.0112792281433939,-0.0102693140506744,0.0,0.0,-0.6162408590316772,-0.4610493183135986
-0.0127168651670217,1.285478115081787,-0.0221057701855897,-0.4136570692062378,-0.0118347527459263,-0.0111117456108331,0.0,0.0,-0.7587270140647888,-0.3530111908912658
-0.0128380777314305,1.2760354280471802,-0.0115079972892999,-0.4196801483631134,-0.0124336862936615,-0.0119797252118587,0.0,0.0,-0.9473305344581604,-0.5564773678779602
-0.0128857614472508,1.2664642333984375,-0.0049743140116333,-0.4253802001476288,-0.012224824167788,0.0041774753481149,0.0,0.0,-0.6143325567245483,-0.841517448425293
-0.0128751751035451,1.2567514181137085,-0.0004033058939967,-0.4316693246364593,-0.0107864188030362,0.0287708844989538,0.0,0.0,-0.9079768657684326,-0.7983269691467285
-0.0128070833161473,1.2469115257263184,0.0040577854961156,-0.4373092949390411,-0.008065016940236,0.0544330552220344,0.0,0.0,-0.7697991728782654,0.3780417442321777
-0.0126272197812795,1.2369362115859983,0.0152838081121444,-0.4433330297470093,-0.0053914347663521,0.0534766912460327,0.0,0.0,-0.8870254755020142,-0.0851997137069702
-0.0123342517763376,1.226825475692749,0.0266374144703149,-0.449356734752655,-0.0027658590115606,0.0525161251425743,0.0,0.0,-0.817654550075531,0.5243926048278809
-0.0118847843259572,1.216576337814331,0.0434085503220558,-0.4555220007896423,-0.0012515602866187,0.030289102345705,0.0,0.0,-0.9178276658058168,-0.3537988662719726
-0.0113200191408395,1.2061915397644043,0.0549879744648933,-0.461545467376709,0.0002135859976988,0.0293055232614278,0.0,0.0,-0.8925000429153442,0.0837018489837646
-0.0106390956789255,1.195671319961548,0.0666642263531684,-0.4675689339637756,0.0016282148426398,0.0282952152192592,0.0,0.0,-0.885979413986206,-0.5475128889083862
-0.0098944660276174,1.1850169897079468,0.0717125982046127,-0.4735324680805206,0.004337181802839,0.0541846379637718,0.0,0.0,-0.6666412353515625,-0.4604865312576294
-0.0090319635346531,1.1742055416107178,0.083561286330223,-0.4805099368095398,0.0069943978451192,0.053144060075283,0.0,0.0,-0.905142307281494,-0.4422875642776489
-0.0080507276579737,1.1632590293884275,0.0954846739768982,-0.486531525850296,0.0096005108207464,0.052122127264738,0.0,0.0,-0.7302930951118469,-0.6963338255882263
-0.007017231080681,1.1521832942962646,0.0990566611289978,-0.4922855794429779,0.013840727508068,0.0848043113946914,0.0,0.0,-0.9104722738265992,-0.5064689517021179
-0.0059124948456883,1.1409754753112793,0.10498658567667,-0.4981786012649536,0.0192556604743003,0.1082989424467086,0.0,0.0,-0.915150821208954,0.3001174926757812
-0.0046872138045728,1.129632830619812,0.1170940846204757,-0.5042020082473755,0.0246205236762762,0.1072971373796463,0.0,0.0,-0.9092506766319276,-0.7413951754570007
-0.0033978461287915,1.11816143989563,0.1221082806587219,-0.5099709033966064,0.0313635468482971,0.1348603665828704,0.0,0.0,-0.9003847241401672,-0.2427675127983093
-0.0019868849776685,1.1065551042556765,0.1343128383159637,-0.5159956216812134,0.0380572006106376,0.13387331366539,0.0,0.0,-0.8655790090560913,-0.8380186557769775
-0.0005295753362588,1.0948176383972168,0.1370847821235656,-0.5219107270240784,0.0465963631868362,0.1707832515239715,0.0,0.0,-0.8910802006721497,-0.2771042585372925
0.0010500907665118,1.082945704460144,0.1493697166442871,-0.527937650680542,0.0550869181752204,0.1698114722967147,0.0,0.0,-0.6299476027488708,0.0337761640548706
0.0027523040771484,1.070939064025879,0.1616893112659454,-0.5339644551277161,0.0635293200612068,0.1688479781150818,0.0,0.0,-0.752393364906311,-0.3055665493011474
0.0045775412581861,1.0587979555130005,0.1740402281284332,-0.5399913191795349,0.071923978626728,0.1678928434848785,0.0,0.0,-0.9695481061935424,-0.3367756009101867
0.0065259933471679,1.0465222597122192,0.1864194720983505,-0.5460179448127747,0.0802712887525558,0.1669459044933319,0.0,0.0,-0.9724238514900208,-0.580623984336853
0.0085548404604196,1.034111261367798,0.1934170126914978,-0.552135169506073,0.0896537601947784,0.1876492202281952,0.0,0.0,-0.9227398633956908,-0.3710927367210388
0.0107073783874511,1.0215661525726318,0.2058448046445846,-0.5581632852554321,0.0989896953105926,0.1867187619209289,0.0,0.0,-0.8755350112915039,-0.6746217608451843
0.0129332542419433,1.0088798999786377,0.2119341641664505,-0.5645738840103149,0.1095610558986663,0.2114267349243164,0.0,0.0,-0.7506077289581299,-0.2070908546447754
0.0152832027524709,0.9960597157478333,0.2244008034467697,-0.5706039071083069,0.1200866922736167,0.2105128467082977,0.0,0.0,-0.8724259734153748,-0.5207415223121643
0.0177249908447265,0.9830984473228456,0.2328112125396728,-0.5770139694213867,0.1313939541578292,0.2261453419923782,0.0,0.0,-0.7581024765968323,-0.2985583543777466
0.0202910415828228,0.9700033664703368,0.2453080862760543,-0.5830451846122742,0.1426564157009124,0.2252486199140548,0.0,0.0,-0.7898868918418884,-0.7761877179145813
0.0229310039430856,0.9567618370056152,0.251460313796997,-0.5897563099861145,0.1551710963249206,0.2502939105033874,0.0,0.0,-0.4861749410629272,-0.494361400604248
0.025695513933897,0.9433868527412416,0.2639800310134887,-0.595789909362793,0.1676418483257293,0.249414637684822,0.0,0.0,-0.3765523433685303,-0.8817338347434998
0.0285221096128225,0.9298537969589232,0.2686324119567871,-0.6031169891357422,0.1817059367895126,0.2812816798686981,0.0,0.0,-0.1931115388870239,-0.641654908657074
0.0314290039241313,0.9161720871925354,0.2755776643753052,-0.6099971532821655,0.19688580930233,0.303597092628479,0.0,0.0,0.0507434606552124,-0.877823531627655
0.0342045798897743,0.9031023383140564,0.2607989311218261,-0.5831941962242126,0.2137781083583831,0.3378458321094513,0.0,0.0,0.2433472871780395,-0.1740408539772033
0.0368811599910259,0.890738308429718,0.2514642477035522,-0.5519416332244873,0.230166420340538,0.3277661204338074,0.0,0.0,-0.0313305854797363,-0.0424212217330932
0.0396821983158588,0.8782421946525574,0.2640130519866943,-0.5579838156700134,0.2465131729841232,0.3269354701042175,0.0,0.0,-0.1824977993965149,-0.4542856812477112
0.0426077842712402,0.8656138181686401,0.2765624523162842,-0.56402587890625,0.2628189921379089,0.3261163234710693,0.0,0.0,-0.3847007751464844,-0.5779348015785217
0.0456087104976177,0.8528379201889038,0.282970666885376,-0.570991575717926,0.2803624868392944,0.3508701622486114,0.0,0.0,0.5228559970855713,-0.0417497158050537
0.0487172119319438,0.8405629992485046,0.2934099733829498,-0.5490122437477112,0.2983323037624359,0.3593961000442505,0.0,0.0,0.754359245300293,0.2997555732727051
0.051704216748476,0.8293725252151489,0.2813689112663269,-0.5010190606117249,0.3162786066532135,0.3589259088039398,0.0,0.0,-0.0562154650688171,0.45241379737854
0.0548151955008506,0.8180503249168396,0.2939072549343109,-0.5070648789405823,0.3341864049434662,0.3581558465957641,0.0,0.0,0.6793951988220215,0.9341630935668944
0.057860754430294,0.807253360748291,0.2894521951675415,-0.4834364056587219,0.3500043451786041,0.3163590431213379,0.0,0.0,0.7772343158721924,0.8103711605072021
0.0608986839652061,0.7976285815238953,0.2902078330516815,-0.4311413764953613,0.3643232583999634,0.2863784432411194,0.0,0.0,0.9516892433166504,0.679435133934021
0.0639897361397743,0.7891120314598083,0.2965369522571563,-0.3817702829837799,0.377640038728714,0.2663352489471435,0.0,0.0,0.6258895397186279,0.893738865852356
0.0670454055070877,0.7816841006278992,0.2947268486022949,-0.3330344557762146,0.3891800343990326,0.2307998836040496,0.0,0.0,0.8800253868103027,0.7313671112060547
0.0698504447937011,0.7753482460975647,0.2713492512702942,-0.2841303050518036,0.3989570140838623,0.195539504289627,0.0,0.0,0.5180321931838989,0.742884635925293
0.0727504715323448,0.7694063186645508,0.2822699248790741,-0.2662836015224457,0.4072584509849548,0.1660293191671371,0.0,0.0,0.7322580814361572,0.7901320457458496
0.0754328742623329,0.7643144130706787,0.2622802257537842,-0.2280385047197342,0.4136700630187988,0.1282315701246261,0.0,0.0,0.7833833694458008,0.8271875381469727
0.0782087296247482,0.7599795460700989,0.2730205059051513,-0.1940072625875473,0.4186003506183624,0.0986054688692092,0.0,0.0,0.6073266267776489,0.2104290723800659
0.0808866471052169,0.7563404440879822,0.2631694674491882,-0.1631139367818832,0.4236032962799072,0.1000587120652198,0.0,0.0,0.8526546955108643,0.3040649890899658
0.0835110694169998,0.7531861662864685,0.2578202188014984,-0.141588032245636,0.4286137521266937,0.1002089530229568,0.0,0.0,0.9165384769439696,0.6361660957336426
0.085878849029541,0.7507673501968384,0.2337736338376999,-0.1084223166108131,0.4318757355213165,0.065240167081356,0.0,0.0,0.8940747976303101,0.7191636562347412
0.0880314856767654,0.7496091723442078,0.2136345356702804,-0.0519793592393398,0.4336577951908111,0.0356408804655075,0.0,0.0,0.916649341583252,0.5658097267150879
0.0902980789542198,0.7488627433776855,0.2258726805448532,-0.033414788544178,0.4345191717147827,0.0172276701778173,0.0,0.0,0.9713151454925536,0.3602852821350097
0.0922872573137283,0.7493872046470642,0.1980139017105102,0.0230256021022796,0.4354976713657379,0.019570117816329,0.0,0.0,0.9486021995544434,0.7666119337081909
0.0941086784005165,0.7504939436912537,0.1829839646816253,0.0494501031935215,0.4345887303352356,-0.0181788150221109,0.0,0.0,0.9247848987579346,0.5320979356765747
0.0956535339355468,0.7524952292442322,0.1566718816757202,0.0896191224455833,0.4322112500667572,-0.0475495904684066,0.0,0.0,0.6512482166290283,0.7058824300765991
0.0971387848258018,0.7552652955055237,0.1520359218120575,0.124185711145401,0.4283986091613769,-0.0762529522180557,0.0,0.0,0.1506915092468261,0.773482084274292
0.0984589606523513,0.7586842179298401,0.1371261775493621,0.1534913182258606,0.4228631258010864,-0.1107096821069717,0.0,0.0,-0.4040961265563965,0.7225053310394287
0.0999565124511718,0.7620069980621338,0.1564601957798004,0.1496737897396087,0.415612131357193,-0.145019844174385,0.0,0.0,-0.641572892665863,0.3692041635513305
0.1015727072954177,0.7651947736740112,0.1683831512928009,0.1436498165130615,0.4083295166492462,-0.1456524282693863,0.0,0.0,-0.3953734040260315,0.2658615112304687
0.1033069640398025,0.7682476043701172,0.1802374124526977,0.1376257687807083,0.4010152220726013,-0.146285742521286,0.0,0.0,0.0103311538696289,0.070397138595581
0.1050596237182617,0.7714409232139587,0.1822193413972854,0.1438627541065216,0.3935798108577728,-0.1487073451280594,0.0,0.0,-0.5489011406898499,0.3136698007583618
0.1069289222359657,0.7744991183280945,0.1939181238412857,0.1378384977579116,0.3861127495765686,-0.1493412107229232,0.0,0.0,-0.2815946340560913,-0.1896412372589111
0.1089136153459549,0.7774224877357483,0.205529123544693,0.1318141520023346,0.3786140084266662,-0.1499747931957245,0.0,0.0,0.2212544679641723,-0.3039354085922241
0.1107127219438552,0.781006932258606,0.1873681396245956,0.1612673848867416,0.3706999123096466,-0.1582821905612945,0.0,0.0,-0.677853524684906,-0.2512296438217163
0.1126254051923751,0.784456729888916,0.1987810730934143,0.1552424430847168,0.362754225730896,-0.1589137613773346,0.0,0.0,-0.6027718186378479,-0.149297297000885
0.1146506294608116,0.7877715229988098,0.2100823670625686,0.1492174416780471,0.354777067899704,-0.1595436483621597,0.0,0.0,-0.5147983431816101,0.0282651185989379
0.1167870536446571,0.7909515500068665,0.2212628871202469,0.1431923359632492,0.3467684984207153,-0.1601711958646774,0.0,0.0,-0.2309498786926269,-0.3811738491058349
0.119033433496952,0.7939968109130859,0.2323128432035446,0.1371671557426452,0.3387286961078644,-0.1607957780361175,0.0,0.0,-0.0529788732528686,-0.4355854988098144
0.1213885322213172,0.7969071865081787,0.2432218044996261,0.1311418861150741,0.3306578397750854,-0.1614165902137756,0.0,0.0,0.0641530752182006,-0.8883147835731506
0.1237255111336708,0.8002126812934875,0.2397336214780807,0.1482779532670974,0.3243685364723205,-0.1257857680320739,0.0,0.0,0.3134400844573974,-0.5937329530715942
0.1260579079389572,0.8037518858909607,0.2381074130535125,0.1583815068006515,0.3193069696426391,-0.1012317910790443,0.0,0.0,0.4685022830963135,-0.3948025703430176
0.1284601241350174,0.8077043890953064,0.2447505742311477,0.1766576319932937,0.3145966231822967,-0.0942070484161377,0.0,0.0,0.5511798858642578,0.1711716651916504
0.130929559469223,0.8123504519462585,0.2509067356586456,0.2073413282632827,0.310495525598526,-0.0820219665765762,0.0,0.0,0.5345780849456787,0.6870789527893066
0.1335749626159668,0.8174692392349243,0.2695991098880768,0.2285771071910858,0.3052454888820648,-0.1050000041723251,0.0,0.0,0.6318576335906982,0.0248451232910156
0.1360896080732345,0.8235118389129639,0.2565943002700805,0.2696309685707092,0.2999409139156341,-0.1060916781425476,0.0,0.0,0.0638347864151001,0.6965327262878418
0.1386281996965408,0.8301588892936707,0.2603944838047027,0.2967495620250702,0.2932049930095672,-0.1347182244062423,0.0,0.0,0.2220590114593505,0.7699723243713379
0.1412747353315353,0.8374540209770203,0.2726422846317291,0.3258104622364044,0.284976065158844,-0.1645786464214325,0.0,0.0,-0.0702082514762878,0.4899780750274658
0.1440114080905914,0.8446144461631775,0.2816951274871826,0.3197846114635467,0.276720255613327,-0.165116012096405,0.0,0.0,-0.2946161031723022,0.2508161067962646
0.1468353271484375,0.8516401648521423,0.2904641032218933,0.3137587010860443,0.2684382796287536,-0.1656395494937896,0.0,0.0,0.4180440902709961,-0.5423278212547302
0.1495803892612457,0.8596226572990417,0.2813910245895386,0.3560176491737366,0.2614049315452575,-0.1406662762165069,0.0,0.0,-0.3919194936752319,0.459007978439331
0.1524066030979156,0.8674700260162354,0.2895386219024658,0.3499931395053863,0.2543470561504364,-0.1411583721637725,0.0,0.0,-0.1598746180534362,-0.0083450675010681
0.1553106307983398,0.8751828074455261,0.2973488569259643,0.3439685702323913,0.247265413403511,-0.1416325569152832,0.0,0.0,0.0425653457641601,0.0051058530807495
0.1582343131303787,0.8834211230278015,0.2991028428077698,0.3672635853290558,0.2404150962829589,-0.1370066702365875,0.0,0.0,-0.6687282919883728,0.346421480178833
0.1612284630537033,0.8915244936943054,0.3061839938163757,0.3612391352653503,0.2335430085659027,-0.1374415010213852,0.0,0.0,0.4589352607727051,0.1368986368179321
0.1640651673078537,0.9004324674606323,0.2907992601394653,0.3970260322093963,0.2263123393058776,-0.1446135193109512,0.0,0.0,-0.85096675157547,0.001204490661621
0.1669643372297287,0.9092056155204772,0.2970808446407318,0.3910011351108551,0.2190621048212051,-0.1450045704841613,0.0,0.0,-0.1680663228034973,0.2066093683242797
0.1699217855930328,0.91784405708313,0.3029373288154602,0.384976178407669,0.2117935121059417,-0.1453723013401031,0.0,0.0,-0.1075333356857299,0.5622775554656982
0.172965720295906,0.9263570308685304,0.3124663829803467,0.3794832229614258,0.2036601155996322,-0.1626681983470916,0.0,0.0,-0.4100308418273926,0.1010066270828247
0.1760591566562652,0.9347354173660278,0.3174267709255218,0.3734570443630218,0.1955107599496841,-0.1629867553710937,0.0,0.0,0.2491586208343505,-0.4297018051147461
0.1791884452104568,0.9434030055999756,0.3208362460136413,0.3862476944923401,0.1875613033771515,-0.1589891612529754,0.0,0.0,-0.2614296674728393,-0.6124686002731323
0.1823208779096603,0.9519301652908324,0.3202512562274933,0.3798554837703705,0.1805283278226852,-0.1406592428684234,0.0,0.0,-0.1125571727752685,0.2742511034011841
0.1854884177446365,0.960322380065918,0.3237698376178741,0.373830497264862,0.1734833121299743,-0.1409002542495727,0.0,0.0,-0.4604231715202331,-0.7411940097808838
0.1886407881975174,0.9685766100883484,0.3211576342582702,0.3675359189510345,0.1675557494163513,-0.1185513958334922,0.0,0.0,0.0294587612152099,-0.3826397061347961
0.1918047964572906,0.9772419333457948,0.3221146464347839,0.3857562243938446,0.1618386507034301,-0.1143418401479721,0.0,0.0,-0.3012311458587646,0.0812292098999023
0.1949886381626129,0.98577219247818,0.3241143822669983,0.379732608795166,0.1561134755611419,-0.1145032420754432,0.0,0.0,-0.6012874841690063,-0.4197937250137329
0.1981873512268066,0.9941672682762146,0.3255996704101562,0.3737089931964874,0.1503815501928329,-0.1146384254097938,0.0,0.0,0.1952720880508422,-0.433474063873291
0.2014034241437912,1.00293231010437,0.327095091342926,0.3901040256023407,0.1449137926101684,-0.1093552485108375,0.0,0.0,-0.3907591104507446,0.0490748882293701
0.2046240866184234,1.011562466621399,0.3275514245033264,0.384080559015274,0.1394418329000473,-0.1094392985105514,0.0,0.0,0.1455918550491333,0.1468710899353027
0.2077063620090484,1.020569086074829,0.3141359686851501,0.4008359014987945,0.1335551887750625,-0.1177328005433082,0.0,0.0,-0.6699947714805603,0.1806972026824951
0.2107830047607422,1.0294406414031982,0.3135767579078674,0.3948120474815368,0.1276667714118957,-0.1177682727575302,0.0,0.0,-0.8451427817344666,-0.0623620748519897
0.2138489782810211,1.038177251815796,0.3125194907188415,0.3887881338596344,0.1217777505517005,-0.1177806109189987,0.0,0.0,-0.6907224655151367,0.4092835187911987
0.2168994843959808,1.046778917312622,0.3109730184078216,0.3827642202377319,0.1158892065286636,-0.1177707314491272,0.0,0.0,-0.4877569675445556,-0.3706633448600769
0.2199297845363617,1.0552455186843872,0.308947741985321,0.3767402768135071,0.1100022122263908,-0.1177394986152648,0.0,0.0,-0.7110257148742676,-0.5197293162345886
0.2228955328464508,1.0635753870010376,0.3015030026435852,0.370574802160263,0.1051094755530357,-0.0978550836443901,0.0,0.0,-0.3796261548995971,-0.3531140685081482
0.2258317917585373,1.071770191192627,0.2985566556453705,0.3645517230033874,0.1002202704548835,-0.097784087061882,0.0,0.0,-0.6827510595321655,0.1163718700408935
0.2287342995405197,1.0798299312591553,0.2951704859733581,0.3585286736488342,0.0953355431556701,-0.0976945534348487,0.0,0.0,-0.2334732413291931,-0.9181731939315796
