x_pos,y_pos,x_vel,y_vel,angle,ang_vel,leg_1,leg_2,main_booster,lat_booster
-0.00152587890625,1.403014898300171,-0.1543891131877899,-0.3513418734073639,0.0016081897774711,0.0317116156220436,0.0,0.0,0.2411056816034704,0.7903280721388299
-0.0029494285117834,1.3950395584106443,-0.1422431170940399,-0.3544622957706451,0.0014970076736062,-0.0022227857261896,0.0,0.0,-0.0726827197544468,-0.6778587106700239
-0.0044189454056322,1.386448860168457,-0.1477212607860565,-0.381805807352066,0.0022573594469577,0.0152084305882453,0.0,0.0,0.3273622553646695,0.7804715458077875
-0.0059415819123387,1.3778481483459473,-0.1511279791593551,-0.3822549283504486,0.0011422524694353,-0.0223040543496608,0.0,0.0,0.9960234124667426,-0.6961866135889849
-0.0073590278625488,1.3698219060897827,-0.1422874927520752,-0.3567247986793518,0.0016784541076049,0.0107248565182089,0.0,0.0,-0.939895355668821,-0.7851177331189013
-0.0088322637602686,1.3611845970153809,-0.1488979160785675,-0.3838804364204407,0.0032315170392394,0.0310642533004283,0.0,0.0,-0.9204518871555636,0.7560719358946953
-0.0102575300261378,1.351938247680664,-0.1424594223499298,-0.4109516441822052,0.0031588254496455,-0.0014537734678015,0.0,0.0,-0.4488140736519268,0.6668793933370777
-0.0116279600188136,1.342084527015686,-0.1351102739572525,-0.4379394650459289,0.0012526178034022,-0.038127601146698,0.0,0.0,-0.8092289422538548,0.8645399828502438
-0.0129433628171682,1.3316309452056885,-0.1277292817831039,-0.4646059274673462,-0.0025201065000146,-0.0754614323377609,0.0,0.0,-0.2050314040722411,-0.6436036158155156
-0.0143226627260446,1.3205721378326416,-0.1352090835571289,-0.4915096163749695,-0.0052061639726161,-0.0537260770797729,0.0,0.0,-0.537623747950182,-0.5528202306985897
-0.0157537460327148,1.3089044094085691,-0.1411395072937011,-0.518568217754364,-0.0071463463827967,-0.0388076603412628,0.0,0.0,-0.2350807626802247,-0.9841898652126152
-0.0172690395265817,1.296626091003418,-0.1511113494634628,-0.5457096695899963,-0.0075583974830806,-0.0082416832447052,0.0,0.0,-0.882531109044997,0.9436326239699722
-0.0187109000980854,1.2837419509887695,-0.1412776410579681,-0.572644054889679,-0.0104408264160156,-0.0576537549495697,0.0,0.0,0.2209905973911137,-0.8130498400922402
-0.0201743133366107,1.2706345319747925,-0.1449152678251266,-0.5825598239898682,-0.0118494275957345,-0.0281742848455905,0.0,0.0,-0.3096491601890958,-0.9656611852507394
-0.0217157360166311,1.2569286823272705,-0.1540124118328094,-0.6091530323028564,-0.0119883324950933,-0.0027785061392933,0.0,0.0,0.773773528280759,-0.938625717169156
-0.0232176780700683,1.2430799007415771,-0.1519523113965988,-0.6154876947402954,-0.0102483676746487,0.0348028168082237,0.0,0.0,0.0162295033129002,0.8843039010805682
-0.0245662685483694,1.2294185161590576,-0.1346350908279419,-0.6071771383285522,-0.0104652903974056,-0.0043392409570515,0.0,0.0,0.0820132511770557,0.5124963058072145
-0.0257928855717182,1.2155086994171145,-0.1214080899953842,-0.6182147860527039,-0.01170015335083,-0.0246996395289897,0.0,0.0,0.5209653919612678,0.975480058403312
-0.0268569942563772,1.2021043300628662,-0.1031141728162765,-0.5957880020141602,-0.0149638941511511,-0.0652806907892227,0.0,0.0,-0.4392052236523032,-0.8314227254772348
-0.0280220992863178,1.188091278076172,-0.1149050965905189,-0.6228135824203491,-0.0165534671396017,-0.0317942164838314,0.0,0.0,-0.7584000731832965,0.9174183833955244
-0.0291271209716796,1.173473596572876,-0.1064619868993759,-0.6497255563735962,-0.0205508489161729,-0.0799551531672477,0.0,0.0,0.5174034513157582,0.9026910589815742
-0.0301693920046091,1.158848524093628,-0.0981892496347427,-0.6500987410545349,-0.026524206623435,-0.1194778233766555,0.0,0.0,0.8587802667357762,-0.5200531428957136
-0.031112004071474,1.1445273160934448,-0.0895265787839889,-0.6365817189216614,-0.0312051810324192,-0.0936278775334358,0.0,0.0,-0.550942309850353,-0.9706287860813828
-0.0321542732417583,1.1295892000198364,-0.1010197848081588,-0.6639842391014099,-0.0343804992735385,-0.0635120123624801,0.0,0.0,-0.7026214551398688,-0.81282759567322
-0.0333088859915733,1.1140482425689695,-0.1140671968460083,-0.690746009349823,-0.035755731165409,-0.0275068636983633,0.0,0.0,0.3168114536781796,0.977650429573386
-0.0345355048775672,1.0987259149551392,-0.1190239414572715,-0.681084930896759,-0.0393396690487861,-0.0716788172721862,0.0,0.0,-0.1973248996756738,0.5528282812822662
-0.035753346979618,1.0827953815460205,-0.1168310493230819,-0.7081681489944458,-0.0442276448011398,-0.0977596193552017,0.0,0.0,0.4979257047644301,0.9137453868211868
-0.0370359420776367,1.0673905611038208,-0.1211289316415786,-0.6848809123039246,-0.0512833371758461,-0.1411137878894806,0.0,0.0,0.1866373028147141,-0.6087670358494353
-0.038479708135128,1.052227258682251,-0.138089433312416,-0.6741548776626587,-0.0574951544404029,-0.1242365688085556,0.0,0.0,-0.8707644634888323,-0.9305824467863862
-0.0400383956730365,1.0364580154418943,-0.1513228863477707,-0.7010382413864136,-0.061988178640604,-0.0898603051900863,0.0,0.0,0.2616085975655577,-0.5437155065449231
-0.0416238792240619,1.0210561752319336,-0.1549312174320221,-0.6846812963485718,-0.0655620023608207,-0.0714767500758171,0.0,0.0,-0.2101962566375732,-0.9110390543937684
-0.0433315262198448,1.0050477981567385,-0.169027641415596,-0.711562991142273,-0.0672857463359832,-0.0344749316573143,0.0,0.0,-0.6950311660766602,-0.6008296012878418
-0.0451346412301063,0.9884411096572876,-0.1797491461038589,-0.7380999326705933,-0.0678442791104316,-0.0111705847084522,0.0,0.0,-0.561635434627533,-0.4412770271301269
-0.0469804778695106,0.9712252020835876,-0.1838208734989166,-0.7651909589767456,-0.0685987994074821,-0.0150904702022671,0.0,0.0,-0.1715016365051269,-0.8707941770553589
-0.0489367470145225,0.953408420085907,-0.196366935968399,-0.7918170690536499,-0.067861683666706,0.0147421183064579,0.0,0.0,-0.0084941387176513,-0.7212862372398376
-0.0509923920035362,0.9349934458732604,-0.207518458366394,-0.8183544874191284,-0.0659259930253028,0.0387138314545154,0.0,0.0,0.7823286056518555,0.1563413143157959
-0.0530891418457031,0.9167072176933287,-0.2113002240657806,-0.8126528263092041,-0.0643162950873375,0.0321940220892429,0.0,0.0,-0.4008560180664062,-0.3546109199523926
-0.0552317611873149,0.897811770439148,-0.2157027274370193,-0.8397440314292908,-0.0629012808203697,0.0283001102507114,0.0,0.0,0.8141326904296875,-0.5432918071746826
-0.0574516281485557,0.8797063231468201,-0.224178284406662,-0.8045947551727295,-0.0607270449399948,0.0434844493865966,0.0,0.0,-0.2172957062721252,0.6247878074645996
-0.0596671104431152,0.8609875440597534,-0.2222315967082977,-0.8319135904312134,-0.0600487142801284,0.0135666979476809,0.0,0.0,0.922029972076416,0.6644971370697021
-0.0619567856192588,0.843028724193573,-0.2277710139751434,-0.7982204556465149,-0.0612256713211536,-0.0235392376780509,0.0,0.0,0.4964182376861572,0.5858078002929688
-0.0640985518693924,0.8251537680625916,-0.2118995487689972,-0.7945394515991211,-0.063484288752079,-0.0451722703874111,0.0,0.0,-0.5896334052085876,-0.4072722196578979
-0.0662894248962402,0.8066695928573608,-0.2166078090667724,-0.8216307163238525,-0.0659360066056251,-0.0490343645215034,0.0,0.0,0.8026566505432129,-0.0089008808135986
-0.0683835968375206,0.788428544998169,-0.2072563618421554,-0.8108071088790894,-0.0680794119834899,-0.0428678877651691,0.0,0.0,0.5071007013320923,0.3979856967926025
-0.0705464333295822,0.7699841260910034,-0.2137481868267059,-0.8198702931404114,-0.0705868229269981,-0.0501485392451286,0.0,0.0,0.3359320163726806,0.6640064716339111
-0.072647288441658,0.7513182163238525,-0.2060916423797607,-0.8297938704490662,-0.074539415538311,-0.0790515094995498,0.0,0.0,0.9131938219070436,-0.1914710998535156
-0.074689581990242,0.7328092455863953,-0.2003801763057708,-0.8228161931037903,-0.0783571749925613,-0.0763552784919738,0.0,0.0,0.930910587310791,-0.5373257994651794
-0.0768873244524002,0.7151755094528198,-0.2163954675197601,-0.7839041948318481,-0.0817027762532234,-0.0669122785329818,0.0,0.0,0.6246294975280762,0.5758839845657349
-0.0791670829057693,0.6981080770492554,-0.2228904217481613,-0.7588414549827576,-0.0867363363504409,-0.1006711721420288,0.0,0.0,-0.5747509598731995,0.0173536539077758
-0.0814978629350662,0.6804316639900208,-0.2278031855821609,-0.7859348654747009,-0.0919611081480979,-0.1044956222176551,0.0,0.0,-0.276025652885437,0.0891413688659668
-0.083879753947258,0.662146270275116,-0.2327222377061844,-0.8130285143852234,-0.0973768681287765,-0.1083154678344726,0.0,0.0,0.9385707378387452,0.5942525863647461
-0.0862532630562782,0.6445502638816833,-0.2303064614534378,-0.7825206518173218,-0.1043660119175911,-0.1397827714681625,0.0,0.0,0.011602759361267,-0.3593187928199768
-0.0885827988386154,0.6267411112785339,-0.2260380983352661,-0.7920106649398804,-0.1112360656261444,-0.1374009847640991,0.0,0.0,0.9679131507873536,-0.4544046521186828
-0.0908539742231369,0.609739363193512,-0.2200286090373993,-0.7561811804771423,-0.1182788759469986,-0.1408562660217285,0.0,0.0,0.2661111354827881,-0.2755818367004394
-0.0930183380842208,0.5926652550697327,-0.2096937000751495,-0.7593974471092224,-0.1249836161732673,-0.1340948492288589,0.0,0.0,0.4718782901763916,-0.6348357200622559
-0.0953232795000076,0.5756312012672424,-0.2246389687061309,-0.7575690150260925,-0.1308046728372573,-0.1164212673902511,0.0,0.0,0.8649923801422119,0.2753434181213379
-0.097455695271492,0.5593056678771973,-0.2076988220214843,-0.7260777950286865,-0.1363245546817779,-0.1103975772857666,0.0,0.0,0.5417855978012085,-0.6520900130271912
-0.0994638428092002,0.5432909727096558,-0.1966915130615234,-0.7121453881263733,-0.1404325813055038,-0.0821604058146476,0.0,0.0,0.8876121044158936,-0.2876902818679809
-0.1013050079345703,0.5280465483665466,-0.1802081614732742,-0.6779037117958069,-0.144335001707077,-0.0780485421419143,0.0,0.0,-0.4461344480514526,-0.6817911863327026
-0.1032546013593673,0.5122120380401611,-0.1923904120922088,-0.7040040493011475,-0.1468879133462906,-0.0510583110153675,0.0,0.0,0.7195520401000977,0.0456839799880981
-0.105143167078495,0.4963287711143493,-0.1863565146923065,-0.7061742544174194,-0.1493831872940063,-0.0499056801199913,0.0,0.0,0.8189051151275635,0.0587214231491088
-0.1070734038949012,0.4810065031051636,-0.1898322999477386,-0.6813145279884338,-0.152577742934227,-0.063890665769577,0.0,0.0,0.6158827543258667,0.0111409425735473
-0.1088542938232421,0.4657975733280182,-0.1752549707889557,-0.6762445569038391,-0.155401736497879,-0.0564798004925251,0.0,0.0,0.8695385456085205,0.1734125614166259
-0.1105473488569259,0.451001226902008,-0.1664174944162368,-0.6579170227050781,-0.158290296792984,-0.0577713325619697,0.0,0.0,0.8673297166824341,0.4057154655456543
-0.1122053116559982,0.4362649619579315,-0.162764772772789,-0.6552721858024597,-0.1613255441188812,-0.060704868286848,0.0,0.0,0.4172942638397217,0.5715508460998535
-0.1138954162597656,0.4216876924037933,-0.164381206035614,-0.6483883261680603,-0.1659480929374694,-0.0924512296915054,0.0,0.0,0.4373570680618286,0.0547093152999877
-0.1154870018362999,0.4075984358787536,-0.154445543885231,-0.626724123954773,-0.1706709861755371,-0.0944578573107719,0.0,0.0,-0.1540722846984863,-0.2184652090072631
-0.117120549082756,0.3929003477096557,-0.1584543883800506,-0.6538184881210327,-0.1755800694227218,-0.0981815308332443,0.0,0.0,0.4759296178817749,-0.3414127826690674
-0.1186377555131912,0.3787135481834411,-0.1467519849538803,-0.6311208605766296,-0.1805630773305893,-0.0996599718928337,0.0,0.0,-0.3636799454689026,0.1012053489685058
-0.1201943382620811,0.3639179766178131,-0.1505106389522552,-0.6582155823707581,-0.1857310235500335,-0.1033589988946914,0.0,0.0,0.8866357803344727,-0.4740542769432068
-0.1217491179704666,0.3496827483177185,-0.1496730297803878,-0.6334182024002075,-0.1915682703256607,-0.1167445331811904,0.0,0.0,0.5919106006622314,-0.6925407648086548
-0.1232479065656662,0.3357294797897339,-0.1453454196453094,-0.6207410097122192,-0.1961315721273422,-0.0912664756178855,0.0,0.0,0.1675374507904052,-0.3245348334312439
-0.1247546225786209,0.3220720291137695,-0.1455427855253219,-0.607683539390564,-0.2012983858585357,-0.103336252272129,0.0,0.0,0.7208510637283325,0.5107991695404053
-0.1260551512241363,0.3086535334587097,-0.1239448562264442,-0.5972204208374023,-0.2074441909790039,-0.1229161992669105,0.0,0.0,0.682841420173645,-0.8753001689910889
-0.1274110823869705,0.2952375411987304,-0.1310019195079803,-0.5969162583351135,-0.2120752781629562,-0.092622086405754,0.0,0.0,0.93941068649292,-0.8373932838439941
-0.1286969184875488,0.2817569971084595,-0.1256675571203231,-0.5995592474937439,-0.2150279283523559,-0.0590528547763824,0.0,0.0,0.973090887069702,0.4387941360473633
-0.1299610137939453,0.2682736217975616,-0.123140849173069,-0.5997392535209656,-0.2183321565389633,-0.0660844519734382,0.0,0.0,0.992839813232422,-0.6002075672149658
-0.1310996115207672,0.2556065917015075,-0.1115866750478744,-0.5633163452148438,-0.2206289768218994,-0.0459368154406547,0.0,0.0,0.9905072450637816,-0.7880437970161438
-0.1320041716098785,0.24376280605793,-0.0898160636425018,-0.5264847278594971,-0.2212708592414856,-0.0128377173095941,0.0,0.0,0.9874310493469238,-0.1559340357780456
-0.1328460723161697,0.2327932864427566,-0.0827724561095237,-0.4877465367317199,-0.2227080315351486,-0.0287435855716466,0.0,0.0,0.8682079315185547,-0.9215598702430724
-0.1338547766208648,0.221831277012825,-0.100843608379364,-0.4872083961963653,-0.2227426767349243,-0.0006928440998308,0.0,0.0,0.8971705436706543,0.6650724411010742
-0.1345792710781097,0.2115600705146789,-0.0710457190871238,-0.4567117393016815,-0.2241530865430832,-0.0282081719487905,0.0,0.0,0.1989306211471557,-0.7500745058059692
-0.1353643387556076,0.201337993144989,-0.0783644467592239,-0.4543333649635315,-0.2243005782365799,-0.0029496874194592,0.0,0.0,0.9710161685943604,-0.6259397268295288
-0.1360973417758941,0.1917318850755691,-0.0740603059530258,-0.4268232583999634,-0.2235313355922699,0.0153844263404607,0.0,0.0,0.8433256149291992,0.796532154083252
-0.13661889731884,0.182645782828331,-0.0511569008231163,-0.4039795994758606,-0.2245480120182037,-0.0203335266560316,0.0,0.0,0.7160370349884033,-0.7739593386650085
-0.1369751989841461,0.173821672797203,-0.0362004525959491,-0.3920965194702148,-0.2239624708890915,0.0117107946425676,0.0,0.0,0.6733920574188232,-0.8992336988449097
-0.1373025923967361,0.1649015694856643,-0.0350027792155742,-0.3961052894592285,-0.221678227186203,0.045685201883316,0.0,0.0,0.4188424348831177,-0.833002507686615
-0.13753242790699,0.1558646708726883,-0.0268686823546886,-0.4010616540908813,-0.2177513539791107,0.078537568449974,0.0,0.0,0.4303443431854248,-0.7458458542823792
-0.1375726759433746,0.1469159722328186,-0.0094782495871186,-0.3969257473945617,-0.2122355103492736,0.1103167980909347,0.0,0.0,0.9363903999328612,0.0179501771926879
-0.1373507529497146,0.1379847079515457,0.0160956252366304,-0.3960823714733124,-0.2060924768447876,0.1228607073426246,0.0,0.0,0.7858645915985107,0.0619385242462158
-0.1369607895612716,0.1296390444040298,0.0330496206879615,-0.3701054453849792,-0.2000998109579086,0.1198536530137062,0.0,0.0,0.4509903192520141,-0.6992555260658264
-0.1364513337612152,0.1216766685247421,0.0436479747295379,-0.3529125154018402,-0.1927599161863327,0.1467979699373245,0.0,0.0,0.6946678161621094,-0.2143278121948242
-0.1356714218854904,0.1140765026211738,0.0702114254236221,-0.3367925584316253,-0.1849365830421447,0.1564666628837585,0.0,0.0,0.5803155899047852,-0.365456223487854
-0.134722039103508,0.1063016057014465,0.0867980271577835,-0.3445548713207245,-0.1767665594816208,0.1634002178907394,0.0,0.0,0.6351525783538818,-0.6942402124404907
-0.1337738037109375,0.0986901372671127,0.0854904130101203,-0.3372021019458771,-0.1674163341522216,0.1870044469833374,0.0,0.0,0.8061619997024536,0.2448281049728393
-0.1325536668300628,0.091842420399189,0.1123222112655639,-0.3032782971858978,-0.1577205657958984,0.1939154714345932,0.0,0.0,0.6644730567932129,-0.6000990867614746
-0.1312886178493499,0.0852532014250755,0.1157242432236671,-0.2917524874210357,-0.1469593495130539,0.2152246981859207,0.0,0.0,0.6997965574264526,-0.1865355372428894
-0.1300005912780761,0.0792984813451767,0.1186656504869461,-0.2636861205101013,-0.136854276061058,0.2021015882492065,0.0,0.0,0.1109570264816284,0.0848349332809448
-0.1285577714443206,0.0734210088849067,0.1339246928691864,-0.2603012025356293,-0.1265326887369156,0.2064321786165237,0.0,0.0,0.2392921447753906,-0.5202029347419739
-0.1270916908979416,0.0677928775548935,0.1353130042552948,-0.2492198497056961,-0.1153083592653274,0.2244867086410522,0.0,0.0,0.3186755180358886,-0.2852764129638672
-0.1255834549665451,0.0624589286744594,0.1398666054010391,-0.2362584322690963,-0.1044237837195396,0.2176913768053054,0.0,0.0,0.1447619199752807,-0.4896700382232666
-0.1240141838788986,0.057034358382225,0.1460519731044769,-0.240366593003273,-0.0936431363224983,0.2156130969524383,0.0,0.0,0.3977459669113159,-0.2918727397918701
-0.1224505454301834,0.0517755113542079,0.1459558308124542,-0.2331084460020065,-0.0833331048488617,0.2062006890773773,0.0,0.0,0.1269948482513427,0.3598073720932007
-0.1209115013480186,0.0464552976191043,0.143976092338562,-0.2359286993741989,-0.0735018625855445,0.1966248154640197,0.0,0.0,0.4525949954986572,0.2737151384353637
-0.1191823035478591,0.041461881250143,0.1625444144010543,-0.2214534729719162,-0.0632338598370552,0.2053601294755935,0.0,0.0,0.5643668174743652,-0.0550810694694519
-0.1173193007707595,0.0363777726888656,0.1756241917610168,-0.2255403101444244,-0.0526814386248588,0.2110485732555389,0.0,0.0,0.6381868124008179,-0.636461079120636
-0.1152544021606445,0.0318156592547893,0.1941367238759994,-0.202370747923851,-0.0404761172831058,0.244106650352478,0.0,0.0,0.7200484275817871,-0.4960008859634399
-0.1131215095520019,0.0278583616018295,0.2010077685117721,-0.1755944043397903,-0.028346573933959,0.242590993642807,0.0,0.0,0.8451237678527832,-0.8845489621162415
-0.1107937842607498,0.0247305482625961,0.2183363437652588,-0.1388050615787506,-0.0140931867063045,0.2850677371025085,0.0,0.0,0.4709417819976806,-0.9489245414733888
-0.1083922386169433,0.0217703208327293,0.2236706912517547,-0.1314921528100967,0.002174058696255,0.3253449201583862,0.0,0.0,0.5790207386016846,-0.8804334998130798
-0.1060032844543457,0.0193835124373435,0.2205918282270431,-0.1062034368515014,0.0202407352626323,0.3613336384296417,0.0,0.0,-0.1421620845794677,-0.545323371887207
-0.103584386408329,0.0163954589515924,0.2225355803966522,-0.1331731528043747,0.0393495969474315,0.382177323102951,0.0,0.0,0.6621043682098389,-0.6289129257202148
-0.1010746955871582,0.0134936664253473,0.2300814688205719,-0.1296462416648864,0.0599921010434627,0.4128500521183014,0.0,0.0,0.1459131240844726,-0.2235240936279297
-0.0986023917794227,0.0106224156916141,0.2266840040683746,-0.1285564005374908,0.0803234130144119,0.4066267609596252,0.0,0.0,0.5815253257751465,0.3253548145294189
-0.0962169617414474,0.0078690741211175,0.2185011804103851,-0.1235629394650459,0.1001740768551826,0.3970133662223816,0.0,1.0,0.377180814743042,0.9180021286010742
-0.0939727798104286,0.0056468462571501,0.2193904668092727,-0.0994127616286277,0.1040009111166,0.0750087052583694,0.0,1.0,-0.5379844903945923,0.4898905754089355
-0.0919685363769531,0.0033424710854887,0.2156318724155426,-0.1014370545744896,0.0888803824782371,-0.302458107471466,0.0,1.0,-0.676973283290863,-0.3883447647094726
-0.09015903621912,0.0008931851480156,0.212524339556694,-0.1072958633303642,0.0575690940022468,-0.6262950301170349,0.0,1.0,0.5993220806121826,-0.7647075057029724
-0.0884398445487022,-0.0009274625917896,0.2098242342472076,-0.0799079462885856,0.0200526993721723,-0.7504202127456665,0.0,1.0,0.7560405731201172,-0.8908343315124512
-0.0867649093270301,-0.0020679377485066,0.2027837336063385,-0.0505945272743701,-0.0148194609209895,-0.6974914073944092,1.0,1.0,-0.4826312065124511,-0.9852341413497924
