x_pos,y_pos,x_vel,y_vel,angle,ang_vel,leg_1,leg_2,main_booster,lat_booster
-0.0014447212452068,1.403253197669983,-0.146359771490097,-0.3407571911811828,0.0016856769798323,0.033246025443077,0.0,0.0,0.967898359132009,-0.6298033830914936
-0.0027943612076342,1.3960591554641724,-0.1380430459976196,-0.3197428584098816,0.0047304411418735,0.0609016604721546,0.0,0.0,0.2928955283864383,-0.907628400331034
-0.0040168762207031,1.3889613151550293,-0.1272133290767669,-0.3154873847961426,0.0096398824825882,0.0981980040669441,0.0,0.0,-0.3337539532306823,-0.8161331240877554
-0.0052363397553563,1.381488561630249,-0.1288338899612426,-0.3321799039840698,0.0164473503828048,0.1361618787050247,0.0,0.0,-0.6280624119506357,0.7176133915443121
-0.006307506468147,1.3736488819122314,-0.1122202053666114,-0.3484936654567718,0.0214965548366308,0.1009936109185218,0.0,0.0,0.3411761275333247,-0.5929708135619478
-0.007232666015625,1.3661011457443235,-0.0990447923541069,-0.3355673551559448,0.0279523804783821,0.1291284263134002,0.0,0.0,0.9622306721167088,-0.8008997406006783
-0.0081890104338526,1.359207034111023,-0.1036659255623817,-0.3065761029720306,0.0358898527920246,0.1587640345096588,0.0,0.0,0.906521741298415,-0.9494150357628838
-0.0089760776609182,1.353070616722107,-0.0889471620321273,-0.2730067372322082,0.0460291430354118,0.2028043717145919,0.0,0.0,-0.0111221082501002,-0.5772145836035094
-0.0097295762971043,1.346567153930664,-0.0867265164852142,-0.2894257605075836,0.0572986900806427,0.2254113405942917,0.0,0.0,-0.1703584183167374,-0.941319669104117
-0.0104772569611668,1.3396940231323242,-0.0879967287182807,-0.3060327172279358,0.070401519536972,0.2620806694030761,0.0,0.0,0.3750168365457016,-0.914006908382714
-0.0111697195097804,1.3331942558288574,-0.0843406990170478,-0.2896648049354553,0.0853636115789413,0.2992693781852722,0.0,0.0,0.9267248800484074,0.8633193951823729
-0.0116767883300781,1.327264428138733,-0.0642080456018447,-0.2643653750419616,0.0987659841775894,0.2680720388889313,0.0,0.0,0.1879481402754113,-0.8758055480108642
-0.0121143339201807,1.321727275848389,-0.0590255782008171,-0.2471865713596344,0.1139410212635994,0.3035286962985992,0.0,0.0,-0.6053268317652591,0.7435768425478742
-0.0124066350981593,1.3158252239227295,-0.0427844189107418,-0.263399600982666,0.1274343878030777,0.2698924839496612,0.0,0.0,-0.8154268579502078,-0.91259251526679
-0.0126746175810694,1.3095533847808838,-0.0416844710707664,-0.2800895869731903,0.1422833949327469,0.2970073819160461,0.0,0.0,0.5869436213754833,0.6162446405039574
-0.0127415657043457,1.3033641576766968,-0.0205647088587284,-0.2764616906642914,0.1561440080404281,0.2772377133369446,0.0,0.0,-0.7206694763406365,-0.6635958404744654
-0.012769604101777,1.2968043088912964,-0.0176226291805505,-0.2931762635707855,0.1709897518157959,0.2969417870044708,0.0,0.0,0.9035505794888828,0.8172578897103887
-0.012550544925034,1.2905689477920532,0.0083997016772627,-0.2787368595600128,0.1845543086528778,0.2713159620761871,0.0,0.0,-0.7482424717186891,-0.691494166379085
-0.0122978212311863,1.2839583158493042,0.0106809567660093,-0.2956850230693817,0.1992440223693847,0.2938207685947418,0.0,0.0,-0.7950961036373629,-0.7804857193802743
-0.0120343212038278,1.2769583463668823,0.0100804399698972,-0.3133852779865265,0.215676262974739,0.3286743462085724,0.0,0.0,-0.3778002644107396,-0.6815291088479101
-0.0117341997101902,1.2695817947387695,0.0127825336530804,-0.3304629325866699,0.2331513464450836,0.3495333790779114,0.0,0.0,-0.580762431778111,-0.7874911279125694
-0.0114139560610055,1.261812448501587,0.0133567722514271,-0.3483733832836151,0.252153068780899,0.380068838596344,0.0,0.0,0.0501678499349309,0.8852860156724399
-0.010939598083496,1.2542396783828735,0.0306385271251201,-0.3395420610904693,0.2693325281143188,0.3436203002929687,0.0,0.0,0.1345987254326144,-0.9157490869647168
-0.0104576107114553,1.2465932369232178,0.0296990275382995,-0.3433580696582794,0.2883522808551788,0.3804292678833008,0.0,0.0,0.289548285149253,0.843068608463517
-0.0100987432524561,1.2392783164978027,0.0192715413868427,-0.3284874260425567,0.3055141270160675,0.3432675898075104,0.0,0.0,0.021756875953852,0.6497290580600192
-0.0098383901640772,1.2321776151657104,0.0108872223645448,-0.3188479840755462,0.3212237060070038,0.3141917884349823,0.0,0.0,-0.7648624945802145,-0.5512145318110502
-0.0095419883728027,1.2246917486190796,0.0135441496968269,-0.3363722264766693,0.3380194306373596,0.3359153866767883,0.0,0.0,0.4197166262412404,0.951784877545972
-0.0094559667631983,1.2178236246109009,-0.0054360888898372,-0.3086085915565491,0.3527323007583618,0.294257253408432,0.0,0.0,0.3695448778798174,-0.6978785310791784
-0.009680176153779,1.211405634880066,-0.0375136733055114,-0.2890354096889496,0.3686536252498626,0.3184272646903991,0.0,0.0,0.5338628983144174,-0.8968801744042425
-0.0100761409848928,1.205199956893921,-0.0562870390713214,-0.2802112400531769,0.3863727450370788,0.3543824255466461,0.0,0.0,0.399854503290237,-0.5288602685588748
-0.0106903072446584,1.199615240097046,-0.0790238305926323,-0.2530953586101532,0.4051905274391174,0.3763555288314819,0.0,0.0,-0.6135841012001038,0.9398345947265624
-0.0111684799194335,1.193695902824402,-0.0636832267045974,-0.2677132487297058,0.4222976267337799,0.3421427607536316,0.0,0.0,-0.6822084188461304,0.9955132007598876
-0.011512279510498,1.1874582767486572,-0.0484740957617759,-0.2815270721912384,0.4375855624675751,0.3057588934898376,0.0,0.0,-0.4557762742042541,0.9851655960083008
-0.0117159839719533,1.1808873414993286,-0.0326673462986946,-0.2959358990192413,0.4510297179222107,0.2688836455345154,0.0,0.0,-0.6749127507209778,0.9892394542694092
-0.0117739681154489,1.17400062084198,-0.016066987067461,-0.3094358742237091,0.4623287916183471,0.2259809970855713,0.0,0.0,-0.8148614168167114,0.9959497451782228
-0.0116877555847167,1.166803956031799,0.0003540213801898,-0.3226188421249389,0.4714499115943908,0.1824225485324859,0.0,0.0,-0.7992619872093201,0.9805421829223632
-0.0114608760923147,1.1592822074890137,0.0162623580545187,-0.3365048766136169,0.4785932302474975,0.1428663432598114,0.0,0.0,-0.8197645545005798,0.9915072917938232
-0.0110896108672022,1.151453137397766,0.0327184572815895,-0.349492996931076,0.4834935963153839,0.098007246851921,0.0,0.0,-0.5274976491928101,0.974457025527954
-0.0105859758332371,1.143311858177185,0.0477188043296337,-0.3627655804157257,0.4864461719989776,0.0590513460338115,0.0,0.0,-0.9001798629760742,0.993924617767334
-0.0099386218935251,1.134857177734375,0.0640690699219703,-0.37599578499794,0.487191766500473,0.0149118620902299,0.0,0.0,-0.927975058555603,0.9722771644592284
-0.0091670993715524,1.126082181930542,0.0780084580183029,-0.3896952867507934,0.4862266778945923,-0.0193015094846487,0.0,0.0,-0.8716697096824646,0.9352487325668336
-0.0082465168088674,1.1169956922531128,0.0950646623969078,-0.4027918875217438,0.4828795194625854,-0.0669435113668441,0.0,0.0,-0.9138546586036682,0.8337016105651855
-0.0071861268952488,1.107582688331604,0.1108721494674682,-0.416680246591568,0.4774967133998871,-0.107655644416809,0.0,0.0,-0.8517037630081177,0.2082830667495727
-0.0060569765046238,1.0977983474731443,0.1177775114774704,-0.4331868886947632,0.4721003770828247,-0.1079264432191848,0.0,0.0,-0.8944404125213623,0.049085259437561
-0.0048599243164062,1.0876431465148926,0.1245849356055259,-0.4496935606002807,0.4666911363601684,-0.108184590935707,0.0,0.0,-0.7732544541358948,0.758737325668335
-0.0035367966629564,1.077153205871582,0.1387708932161331,-0.4640721976757049,0.4595700204372406,-0.1424222886562347,0.0,0.0,-0.847922146320343,0.4593234062194824
-0.0021479607094079,1.066292405128479,0.1453660130500793,-0.4805805385112762,0.4524373412132263,-0.1426537930965423,0.0,0.0,-0.5816677212715149,0.6152024269104004
-0.0006615638849325,1.0550923347473145,0.1561283022165298,-0.4953745901584625,0.444238930940628,-0.163967952132225,0.0,0.0,-0.4788601994514465,-0.2824868559837341
0.000888061535079,1.0435218811035156,0.1624859869480133,-0.511884331703186,0.4360303580760956,-0.1641712635755539,0.0,0.0,-0.400630235671997,-0.7981120347976685
0.002441692398861,1.0315375328063965,0.1613347381353378,-0.5307995676994324,0.4295359253883362,-0.1298886984586715,0.0,0.0,-0.2054070830345153,-0.7311457395553589
0.0040163993835449,1.0191547870635986,0.1623982191085815,-0.5488527417182922,0.4241915345191955,-0.1068881154060363,0.0,0.0,0.1867347955703735,0.3925602436065674
0.0053949356079101,1.0070987939834597,0.1429760158061981,-0.5342893004417419,0.4186480939388275,-0.1108690500259399,0.0,0.0,-0.3294711112976074,0.6727676391601562
0.0068891523405909,0.9947064518928528,0.1560961753129959,-0.5488072037696838,0.4114530086517334,-0.1439018994569778,0.0,0.0,0.2076878547668457,-0.7674188017845154
0.0081518171355128,0.9827169179916382,0.1314842104911804,-0.5313614010810852,0.4058355391025543,-0.1123496070504188,0.0,0.0,-0.5805267095565796,0.7443860769271851
0.0095366481691598,0.970397174358368,0.1455185264348983,-0.5455540418624878,0.3982941508293152,-0.1508279740810394,0.0,0.0,-0.0455901026725769,-0.3171387314796448
0.0109744071960449,0.9577066898345948,0.1508303433656692,-0.5620632767677307,0.3907488882541656,-0.1509054750204086,0.0,0.0,0.5069913864135742,-0.8098222017288208
0.012214183807373,0.9456788301467896,0.129368245601654,-0.5331029891967773,0.3849990367889404,-0.1149978637695312,0.0,0.0,-0.5037419199943542,-0.173503041267395
0.0135032655671238,0.9332799911499025,0.1343184411525726,-0.5496105551719666,0.3792474269866943,-0.1150319129228591,0.0,0.0,-0.2303603887557983,0.7801984548568726
0.0149017330259084,0.9205560088157654,0.1469785124063491,-0.5636346340179443,0.3716779947280884,-0.1513888239860534,0.0,0.0,0.6011737585067749,-0.5037610530853271
0.0159576423466205,0.9084652066230774,0.111972227692604,-0.5357266068458557,0.3649301826953888,-0.1349563896656036,0.0,0.0,0.0379830598831176,0.895571231842041
0.0170773509889841,0.8963806629180908,0.1200998872518539,-0.5350421071052551,0.3563449680805206,-0.1717044562101364,0.0,0.0,-0.0589930415153503,0.118065595626831
0.0182383544743061,0.8839257955551147,0.12425397336483,-0.5515530705451965,0.3477629125118255,-0.1716409176588058,0.0,0.0,0.2465325593948364,0.4971390962600708
0.0193930622190237,0.8716982007026672,0.1232477203011512,-0.5415891408920288,0.3396163582801819,-0.1629310697317123,0.0,0.0,-0.1462841033935547,0.7470564842224121
0.0206421855837106,0.8591319918632507,0.1342175155878067,-0.5563398599624634,0.3298852741718292,-0.1946218311786651,0.0,0.0,0.205268383026123,0.7177470922470093
0.021891975775361,0.8466362357139587,0.1357075124979019,-0.5529540777206421,0.318707674741745,-0.2235521525144577,0.0,0.0,-0.1154394149780273,0.0481257438659668
0.0231740958988666,0.833770751953125,0.1389790028333664,-0.5694693326950073,0.3075386583805084,-0.2233802080154419,0.0,0.0,0.5528924465179443,-0.2361296415328979
0.0242620464414358,0.8216946721076965,0.1195043548941612,-0.5344855189323425,0.2964729964733124,-0.221313327550888,0.0,0.0,0.2122305631637573,-0.2175391316413879
0.0253728870302438,0.8095831274986267,0.1215317249298095,-0.5362012386322021,0.2856973707675934,-0.2155133038759231,0.0,0.0,0.1273995637893676,0.9215494394302368
0.026433277875185,0.7979902625083923,0.118350863456726,-0.5128706097602844,0.273054301738739,-0.2528615295886993,0.0,0.0,0.1316908597946167,0.1646425724029541
0.0273671150207519,0.7864707708358765,0.1060220822691917,-0.5096779465675354,0.2601274847984314,-0.2585367858409881,0.0,0.0,0.4774490594863891,0.8330557346343994
0.0281397812068462,0.7754530906677246,0.0916956737637519,-0.4871760904788971,0.2454049587249755,-0.2944508194923401,0.0,0.0,0.125809907913208,0.3179548978805542
0.0288478843867778,0.7646917700767517,0.0851838067173957,-0.4759497344493866,0.2307968139648437,-0.2921627759933471,0.0,0.0,0.3399991989135742,0.4105983972549438
0.0293134693056345,0.7545264363288879,0.0614332444965839,-0.4495366215705871,0.215724304318428,-0.3014500141143799,0.0,0.0,-0.5287192463874817,0.4613087177276611
0.0297924038022756,0.7439925670623779,0.0628045201301574,-0.466060608625412,0.2006722390651703,-0.3010410964488983,0.0,0.0,-0.2251295447349548,0.7110629081726074
0.0303350444883108,0.7331012487411499,0.0705438107252121,-0.4819405376911163,0.1842971593141555,-0.3275015950202942,0.0,0.0,0.5072864294052124,-0.7140119671821594
0.0308448784053325,0.7222748398780823,0.0657275691628456,-0.4794078469276428,0.1695081144571304,-0.2957810759544372,0.0,0.0,0.1111514568328857,-0.6269350051879883
0.0312510505318641,0.7113925218582153,0.0541526861488819,-0.4821692407131195,0.1559713184833526,-0.2707358300685882,0.0,0.0,-0.5130354166030884,-0.2661845684051513
0.0316615104675293,0.7001413702964783,0.0545822866261005,-0.4986897706985473,0.1424607634544372,-0.2702114284038543,0.0,0.0,-0.0505984425544738,-0.9125491380691528
0.0320112220942974,0.6885167956352234,0.0469208508729934,-0.5155531167984009,0.1305549442768097,-0.2381162345409393,0.0,0.0,0.0793955326080322,-0.8206262588500977
0.032141588628292,0.6772953867912292,0.0233641248196363,-0.4978557229042053,0.1202796474099159,-0.2055060416460037,0.0,0.0,-0.8185108304023743,-0.6292696595191956
0.0322104468941688,0.6656866669654846,0.015638280659914,-0.5152637362480164,0.1115633249282836,-0.1743262261152267,0.0,0.0,-0.5910440683364868,-0.5074564218521118
0.0322372429072856,0.6537058353424072,0.0104780904948711,-0.5319242477416992,0.103821188211441,-0.1548420935869217,0.0,0.0,-0.366199254989624,-0.5291427969932556
0.0322090163826942,0.6413466334342957,0.0037101593334227,-0.5488606095314026,0.0973445400595665,-0.1295330822467804,0.0,0.0,-0.5831759572029114,-0.6711949706077576
0.0321146957576274,0.6286107897758484,-0.0044103772379457,-0.5657157301902771,0.0923605486750602,-0.0996797382831573,0.0,0.0,0.1413867473602295,0.1306371688842773
0.0319573394954204,0.6162245869636536,-0.0107101071625947,-0.550202488899231,0.0873732641339302,-0.0997455790638923,0.0,0.0,-0.7801275253295898,-0.2257829904556274
0.0317877754569053,0.6034672260284424,-0.0119615066796541,-0.5667099356651306,0.0824220106005668,-0.0990251377224922,0.0,0.0,-0.0405948162078857,-0.2290019989013672
0.0316041000187397,0.5903388261795044,-0.0133963152766227,-0.5832173228263855,0.077507771551609,-0.0982848405838012,0.0,0.0,-0.2663573622703552,-0.0791359543800354
0.0314047820866107,0.5768395066261292,-0.0150078879669308,-0.5997245907783508,0.0726314708590507,-0.0975259914994239,0.0,0.0,-0.8215018510818481,-0.4227648973464966
0.0311879161745309,0.5629690885543823,-0.0167894437909126,-0.6162318587303162,0.0677939727902412,-0.0967500358819961,0.0,0.0,-0.740453839302063,-0.6559114456176758
0.0309124942868948,0.5487185120582581,-0.023705368861556,-0.6331883072853088,0.0640008598566055,-0.0758622139692306,0.0,0.0,-0.8669427633285522,0.0579011440277099
0.0306164734065532,0.534096896648407,-0.0258062593638896,-0.6496948003768921,0.0602480210363864,-0.0750564783811569,0.0,0.0,-0.5072234272956848,-0.4545022249221802
0.0302984230220317,0.5191040635108948,-0.0280563123524189,-0.6662012338638306,0.0565361157059669,-0.0742381513118743,0.0,0.0,-0.5272311568260193,-0.3114404678344726
0.0299567226320505,0.503740131855011,-0.0304485354572534,-0.6827076077461243,0.0528656840324401,-0.073408767580986,0.0,0.0,0.0518735647201538,-0.2987724542617798
0.029643440619111,0.4883214235305786,-0.0279617700725793,-0.6851621270179749,0.0495341606438159,-0.0666304901242256,0.0,0.0,0.189022421836853,-0.6090026497840881
0.0291957855224609,0.4730720818042755,-0.042591955512762,-0.6776787042617798,0.0473878905177116,-0.04292543977499,0.0,0.0,-0.0594480633735656,-0.302904725074768
0.0287208557128906,0.4574514627456665,-0.0453689992427825,-0.6941843032836914,0.0452842377126216,-0.0420731082558631,0.0,0.0,0.5921144485473633,-0.1463923454284668
0.028170108795166,0.4422799050807953,-0.0528809800744056,-0.6742280125617981,0.0431194826960563,-0.0432951711118221,0.0,0.0,0.0703223943710327,-0.1645220518112182
0.0274870879948139,0.427504152059555,-0.0657768473029136,-0.6566288471221924,0.0406247824430465,-0.0498938784003257,0.0,0.0,0.8811972141265869,-0.0076053738594055
0.0268403049558401,0.4135540723800659,-0.0626631081104278,-0.6199491024017334,0.0386314168572425,-0.0398672968149185,0.0,0.0,0.8302364349365234,0.4483559131622314
0.0260706897825002,0.4004750549793243,-0.0747139304876327,-0.5812312960624695,0.0364066250622272,-0.0444957390427589,0.0,0.0,-0.9761220812797546,0.8260190486907959
0.0253247264772653,0.3870339095592499,-0.0709401965141296,-0.5973017811775208,0.0328062996268272,-0.0720066502690315,0.0,0.0,-0.6989237666130066,-0.0968382358551025
0.0245457645505666,0.3732215166091919,-0.0743049681186676,-0.6138080358505249,0.0292484387755393,-0.0711569786071777,0.0,0.0,0.4301760196685791,-0.1473747491836547
0.0236165039241313,0.3598141372203827,-0.0888877138495445,-0.5958096981048584,0.0252656191587448,-0.0796563178300857,0.0,0.0,-0.7867860794067383,0.7657581567764282
0.0226981155574321,0.3460357189178467,-0.0866924151778221,-0.6122967600822449,0.0201821476221084,-0.1016695871949195,0.0,0.0,0.3547325134277344,0.168927788734436
0.0218193046748638,0.3327725231647491,-0.083175703883171,-0.5894168019294739,0.0155415087938308,-0.0928128212690353,0.0,0.0,-0.0432096719741821,-0.6284940838813782
0.0208601001650095,0.3191317319869995,-0.0924050360918045,-0.606225848197937,0.0120641682296991,-0.0695468038320541,0.0,0.0,0.7428145408630371,0.7037794589996338
0.0200767517089843,0.3063364028930664,-0.0738055855035781,-0.5686526894569397,0.0075972322374582,-0.0893385335803031,0.0,0.0,0.8745367527008057,0.0446820259094238
0.0192239768803119,0.294490247964859,-0.0806745216250419,-0.5264744162559509,0.0030490905046463,-0.0909628346562385,0.0,0.0,-0.2523344159126282,0.0503284931182861
0.0183338169008493,0.2822731733322143,-0.0844440013170242,-0.5429811477661133,-0.0014611303340643,-0.0902047008275985,0.0,0.0,-0.3646352887153625,-0.4619088172912597
0.0174059867858886,0.2696849107742309,-0.0882487297058105,-0.5594879388809204,-0.005934493150562,-0.0894673690199852,0.0,0.0,0.8725631237030029,-0.1740665435791015
0.0164375305175781,0.2581137716770172,-0.0923100858926773,-0.5142987370491028,-0.010409964248538,-0.0895092040300369,0.0,0.0,0.0539815425872802,-0.682494580745697
0.0154262538999319,0.246931180357933,-0.0980456918478012,-0.4970281422138214,-0.0134512642398476,-0.0608261302113533,0.0,0.0,0.1015803813934326,0.1418735980987548
0.0144344326108694,0.2358347028493881,-0.0963922813534736,-0.4932018220424652,-0.0162108950316905,-0.0551924630999565,0.0,0.0,0.5098084211349487,0.1733796596527099
0.0133012775331735,0.2252172380685806,-0.11002067476511,-0.4719277620315552,-0.0194556731730699,-0.0648957565426826,0.0,0.0,-0.5859470367431641,-0.4333169460296631
0.0121294977143406,0.2142284661531448,-0.1139239221811294,-0.4884336590766907,-0.0226700380444526,-0.0642874911427497,0.0,0.0,0.6231181621551514,0.0708562135696411
0.0109103200957179,0.2036997675895691,-0.1185909062623977,-0.4679968953132629,-0.0259533934295177,-0.0656669735908508,0.0,0.0,-0.2155524492263794,-0.1304557919502258
0.009652423672378,0.192799836397171,-0.1224990636110305,-0.484502762556076,-0.0292093679308891,-0.0651196092367172,0.0,0.0,0.0457782745361328,-0.2333251237869262
0.0084448810666799,0.1818663626909256,-0.1178612560033798,-0.4859939217567444,-0.0320572182536125,-0.0569572262465953,0.0,0.0,0.351540207862854,-0.0277061462402343
0.0072964667342603,0.1713963150978088,-0.1123650223016738,-0.4653900563716888,-0.0345121808350086,-0.0490989498794078,0.0,0.0,-0.0876045823097229,-0.2627151012420654
0.0061093331314623,0.1605549603700637,-0.1162456423044204,-0.4818955063819885,-0.0369446389377117,-0.0486489757895469,0.0,0.0,0.3228483200073242,-0.66823810338974
0.0048965453170239,0.1497091203927993,-0.120276927947998,-0.4820634424686432,-0.0379327312111854,-0.0197618752717971,0.0,0.0,0.9203790426254272,0.8414304256439209
