x_pos,y_pos,x_vel,y_vel,angle,ang_vel,leg_1,leg_2,main_booster,lat_booster
-0.0016249656910076,1.4035191535949707,-0.1650552749633789,-0.3289336264133453,0.0022894288413226,0.0452003367245197,0.0,0.0,-0.9830120599073456,0.920851593222211
-0.0032742500770837,1.3960317373275757,-0.1656673699617386,-0.3327736556529999,0.0030122739262878,0.0144590912386775,0.0,0.0,-0.3091706771625919,0.6217561588648852
-0.0049674035981297,1.3884342908859253,-0.1690192520618438,-0.3376661539077759,0.002718947129324,-0.0058670789003372,0.0,0.0,0.7698418997668273,-0.7964224746791964
-0.0069688796065747,1.38153076171875,-0.2016401290893554,-0.3068256378173828,0.0042023076675832,0.0296698156744241,0.0,0.0,-0.3478832507702178,0.8236111325597699
-0.0089964866638183,1.3745248317718506,-0.2027899026870727,-0.3113738894462585,0.0042258268222212,0.0004706718900706,0.0,0.0,-0.616903862699876,0.9716722712518924
-0.0110357282683253,1.367412805557251,-0.2020994424819946,-0.3160830438137054,0.0024244566448032,-0.0360308662056922,0.0,0.0,0.192030956123631,-0.7678078766381681
-0.0132608413696289,1.3608200550079346,-0.2227559834718704,-0.2930047214031219,0.0026715772692114,0.0049427803605794,0.0,0.0,0.5856232699680781,-0.5110029237033845
-0.0154808042570948,1.3550554513931274,-0.2242758274078369,-0.256214827299118,0.0049244500696659,0.0450617186725139,0.0,0.0,0.7032812061771336,-0.9505145662098268
-0.0179007537662982,1.3504892587661743,-0.246733471751213,-0.2029654085636139,0.0096122166141867,0.0937640145421028,0.0,0.0,-0.999431721433474,0.9495698695643972
-0.0203533172607421,1.3458247184753418,-0.2486892640590667,-0.2073343843221664,0.0130071844905614,0.0679056867957115,0.0,0.0,-0.9863968347561536,0.6310740584311567
-0.0228566173464059,1.3410568237304688,-0.2529214322566986,-0.2119322419166565,0.0155720431357622,0.0513019151985645,0.0,0.0,-0.4376697146271695,0.6927621975676825
-0.0254066474735736,1.3361836671829224,-0.2566640675067901,-0.2166008800268173,0.0172116942703723,0.0327960737049579,0.0,0.0,0.5044584916306143,0.6790764646055698
-0.0278918258845806,1.3321689367294312,-0.2497231662273407,-0.1784498840570449,0.0183936133980751,0.0236407835036516,0.0,0.0,0.9828535630504392,0.8456616481439408
-0.030335808172822,1.3286843299865725,-0.2447306811809539,-0.1548697799444198,0.0187258385121822,0.0066450932063162,0.0,0.0,0.5447105207543803,-0.6458869549961557
-0.0328096374869346,1.3262600898742676,-0.2499839812517166,-0.1077858880162239,0.0212973020970821,0.0514342710375785,0.0,0.0,-0.9250866300691578,0.97410738260106
-0.0353008285164833,1.3237217664718628,-0.2500649392604828,-0.112824447453022,0.0222285483032464,0.018626619130373,0.0,0.0,0.1981433479923826,-0.9508383298356988
-0.037872314453125,1.3220213651657104,-0.2607007324695587,-0.0756307989358902,0.0257371049374341,0.0701775252819061,0.0,0.0,0.2507724028460361,0.7148409181433606
-0.0403820052742958,1.3206417560577393,-0.2539111673831939,-0.0613632164895534,0.0286541879177093,0.0583466477692127,0.0,0.0,0.7209812852236408,-0.5580053922534587
-0.0429597869515419,1.3204193115234375,-0.2628278136253357,-0.0099959829822182,0.0336391888558864,0.0997094362974166,0.0,0.0,0.1621505024079159,-0.623627334087275
-0.0457719787955284,1.3206830024719238,-0.2880889177322387,0.0115429358556866,0.0404330641031265,0.1358896195888519,0.0,0.0,0.0885649569457487,0.6795795981082293
-0.048563577234745,1.3215985298156738,-0.2854562103748321,0.0405095890164375,0.0466573312878608,0.1244964227080345,0.0,0.0,-0.2359080668489452,-0.5610904965836796
-0.0515068061649799,1.3224034309387207,-0.3023977875709533,0.0355055294930934,0.054656732827425,0.1600024849176406,0.0,0.0,-0.3755242812831436,-0.6935847936717986
-0.0546009056270122,1.3231000900268557,-0.3192752003669739,0.0305763147771358,0.0644224137067794,0.1953314244747162,0.0,0.0,0.2386249499883719,0.5173798465607248
-0.0577198974788188,1.3240472078323364,-0.3215320408344269,0.0416549481451511,0.0739716216921806,0.1910012811422348,0.0,0.0,0.1577182879135039,-0.9803969339903186
-0.0611747726798057,1.3255469799041748,-0.3577807545661926,0.065999612212181,0.0861634910106659,0.2438588589429855,0.0,0.0,-0.4831533437127164,0.9701222716285246
-0.0646779090166091,1.3269351720809937,-0.3618378043174743,0.0609919652342796,0.0975840240716934,0.2284104526042938,0.0,0.0,-0.006133794068299,-0.5740646848327773
-0.0683329552412033,1.32821786403656,-0.3788550496101379,0.05608431994915,0.1108388751745224,0.2650966644287109,0.0,0.0,-0.7847361804581678,0.5444632436155339
-0.0720612555742263,1.3294098377227783,-0.3860052525997162,0.0519435219466686,0.1239409446716308,0.2620413899421692,0.0,0.0,-0.4572670323060954,-0.6674946564882451
-0.075959488749504,1.3304938077926636,-0.4053249955177307,0.0468187965452671,0.1393632739782333,0.3084464967250824,0.0,0.0,0.3923482028839553,-0.5789186058946933
-0.0800846070051193,1.332072138786316,-0.4297954142093658,0.0684345290064811,0.1566041857004165,0.3448182940483093,0.0,0.0,0.0700840618405158,0.9062075531200332
-0.0843166336417198,1.3343926668167114,-0.4393101632595062,0.1013631895184516,0.1727277487516403,0.3224716782569885,0.0,0.0,-0.6444113254547119,0.9965605735778807
-0.088584616780281,1.3366248607635498,-0.4418599605560303,0.09738290309906,0.1878183335065841,0.3018120229244232,0.0,0.0,-0.6821468472480774,0.992473840713501
-0.0928914099931716,1.3387842178344729,-0.4446617066860199,0.0941374450922012,0.2018865048885345,0.2813637852668762,0.0,0.0,-0.7368382215499878,0.9905152320861816
-0.0972316712141037,1.3408547639846802,-0.4468981623649597,0.0902117863297462,0.2148832529783249,0.2599350810050964,0.0,0.0,-0.7037975192070007,0.9497724771499634
-0.1015992164611816,1.3428504467010498,-0.4483605027198791,0.0869671180844307,0.2266167849302292,0.2346707880496978,0.0,0.0,-0.8012115359306335,0.9293677806854248
-0.1059959381818771,1.3447767496109009,-0.4500182569026947,0.0839874073863029,0.2371156960725784,0.2099781781435012,0.0,0.0,-0.832105278968811,0.9416406154632568
-0.1104234680533409,1.3466217517852783,-0.4519843161106109,0.0804756805300712,0.2465004324913025,0.1876948624849319,0.0,0.0,-0.8389042615890503,0.9734878540039062
-0.114872932434082,1.3484015464782717,-0.4527813792228699,0.0777684077620506,0.2544853091239929,0.1596977114677429,0.0,0.0,-0.8405528664588928,0.9861276149749756
-0.1193528175354003,1.3501169681549072,-0.4546542763710022,0.0750751197338104,0.2612921893596649,0.1361373662948608,0.0,0.0,-0.5095753073692322,0.9945827722549438
-0.1238513961434364,1.3517632484436035,-0.4551330506801605,0.0722106322646141,0.2666837573051452,0.1078312546014785,0.0,0.0,-0.6538627743721008,0.9918673038482666
-0.1283862143754959,1.3533402681350708,-0.4578019082546234,0.0692942813038826,0.27110555768013,0.0884359925985336,0.0,0.0,-0.8553183078765869,0.9566552639007568
-0.1329287588596344,1.354848861694336,-0.4569596648216247,0.0665474683046341,0.2738812565803528,0.0555137172341346,0.0,0.0,-0.7987358570098877,0.9326398372650146
-0.1374816000461578,1.3562794923782349,-0.4565261900424957,0.0633484944701194,0.2751556634902954,0.025488331913948,0.0,0.0,-0.9310755133628844,0.838729977607727
-0.1420532166957855,1.3576369285583496,-0.4571389257907867,0.0603358969092369,0.2751319408416748,-0.0004742539022117,0.0,0.0,-0.979547083377838,0.986156702041626
-0.1466447860002517,1.3589098453521729,-0.4579890370368957,0.0567930825054645,0.2739322781562805,-0.0239933542907238,0.0,0.0,-0.9512628316879272,0.805206298828125
-0.1512597054243087,1.3600996732711792,-0.4592676162719726,0.0532973520457744,0.2716569602489471,-0.045506365597248,0.0,0.0,-0.997825801372528,0.9168474674224854
-0.155886173248291,1.3612140417099,-0.459084689617157,0.0501798056066036,0.2680091559886932,-0.0729561299085617,0.0,0.0,-0.9956406354904176,0.586715817451477
-0.1605652868747711,1.3622466325759888,-0.4640416204929352,0.0465895421802997,0.2640532255172729,-0.0791185945272445,0.0,0.0,-0.9954590797424316,0.1468621492385864
-0.1653304994106292,1.3631761074066162,-0.4733020663261413,0.0418922156095504,0.260756641626358,-0.065931960940361,0.0,0.0,-0.9892010688781738,0.7665634155273438
-0.170123666524887,1.364023208618164,-0.4752617478370666,0.0383634641766548,0.2566193342208862,-0.0827460438013076,0.0,0.0,-0.9883643388748168,0.4518824815750122
-0.1749998033046722,1.36476731300354,-0.4841876924037933,0.0336666442453861,0.2531303465366363,-0.0697802379727363,0.0,0.0,-0.9937484860420228,0.9196897745132446
-0.1798946410417556,0.0,-0.4850391447544098,0.0306142400950193,0.2485966831445694,-0.0906734019517898,0.0,0.0,-0.9989530444145204,0.4756042957305908
-0.1848690062761306,1.366007685661316,-0.4936047494411468,0.0259178262203931,0.2446988523006439,-0.0779566615819931,0.0,0.0,-0.9723708629608154,0.768690824508667
-0.189862921833992,0.0,-0.4946469366550445,0.0227680504322052,0.2398634254932403,-0.0967086106538772,0.0,0.0,-0.9974519610404968,0.8012361526489258
-0.1948556900024414,1.3669192790985107,-0.4931356906890869,0.0195142682641744,0.2336352169513702,-0.1245642751455307,0.0,0.0,-0.9948996901512146,0.7629793882369995
-0.1998723000288009,1.3672473430633545,-0.4948586821556091,0.015654768794775,0.2267296314239502,-0.1381120532751083,0.0,0.0,-0.943082869052887,0.6044173240661621
-0.2049079835414886,1.3674968481063845,-0.4959486424922943,0.0122389197349548,0.2190180420875549,-0.154231771826744,0.0,0.0,-0.963952362537384,0.4329745769500732
-0.2100134789943695,1.3676434755325315,-0.5035060048103333,0.0075415284372866,0.2119048535823822,-0.1422639191150665,0.0,0.0,-0.9478294253349304,0.5518976449966431
-0.2151395380496978,1.3677079677581787,-0.5049001574516296,0.003956533037126,0.2041290551424026,-0.1555158346891403,0.0,0.0,-0.734192430973053,0.7967926263809204
-0.2202783077955246,1.367693305015564,-0.5053392052650452,0.0004971939488314,0.1955298632383346,-0.1719837635755539,0.0,0.0,-0.7852374911308289,-0.4349509477615356
-0.2254804074764251,1.3675755262374878,-0.5122262239456177,-0.0041998173110187,0.1875021159648895,-0.1605550348758697,0.0,0.0,-0.995460569858551,0.6001942157745361
-0.2307052165269851,1.3673688173294067,-0.5140376091003418,-0.0081418910995125,0.1790300011634826,-0.1694422960281372,0.0,0.0,-0.9414355754852296,0.8161497116088867
-0.2359120845794677,1.3670780658721924,-0.5108186602592468,-0.0117681613191962,0.1691384762525558,-0.1978304088115692,0.0,0.0,-0.9863020777702332,0.4531493186950683
-0.2411754578351974,1.3666841983795166,-0.5169954299926758,-0.0164655037224292,0.1597880423069,-0.1870086640119552,0.0,0.0,-0.882541835308075,0.5177626609802246
-0.2464517056941986,1.3661935329437256,-0.517745852470398,-0.0207770578563213,0.1499200314283371,-0.1973602920770645,0.0,0.0,-0.7862513065338135,0.4106581211090088
-0.2517797350883484,0.0,-0.5234325528144836,-0.025473253801465,0.1405710130929947,-0.1869804710149765,0.0,0.0,-0.96894508600235,-0.0422789454460144
-0.2571571767330169,1.3649027347564695,-0.528870701789856,-0.0301680900156497,0.1317293792963028,-0.1768325865268707,0.0,0.0,-0.9501311182975768,0.9106402397155762
-0.2624995112419128,1.364107966423035,-0.5237768292427063,-0.0344410464167594,0.1213212385773658,-0.2081629335880279,0.0,0.0,-0.9367181658744812,0.7224335670471191
-0.2678279280662536,1.363229274749756,-0.5213378667831421,-0.0381627865135669,0.1098857149481773,-0.228710651397705,0.0,0.0,-0.741259753704071,0.6215603351593018
-0.2731572091579437,1.362251877784729,-0.5208240747451782,-0.0425986684858799,0.0978757292032241,-0.2401998788118362,0.0,0.0,-0.6613366007804871,0.7809774875640869
-0.2784743905067444,1.3611825704574585,-0.5187328457832336,-0.0467235893011093,0.0850027874112129,-0.257458746433258,0.0,0.0,-0.9392960667610168,0.9571077823638916
-0.2837498188018799,1.3600229024887085,-0.5129653811454773,-0.0507770217955112,0.0705695897340774,-0.2886641323566437,0.0,0.0,-0.955325722694397,0.6850301027297974
-0.2890181541442871,1.3587732315063477,-0.5115911960601807,-0.0548873431980609,0.0554933845996856,-0.3015240728855133,0.0,0.0,-0.9741085171699524,-0.2450369596481323
-0.2943191528320312,1.3574213981628418,-0.5152648687362671,-0.0595899224281311,0.0408347509801387,-0.2931727170944214,0.0,0.0,-0.9648767113685608,0.698499321937561
-0.2995980679988861,1.3559653759002686,-0.5121333003044128,-0.0643549636006355,0.0252686962485313,-0.3113211691379547,0.0,0.0,-0.8607398271560669,0.933861494064331
-0.3048225343227386,1.354400873184204,-0.5049790740013123,-0.0693226903676986,0.0080259460955858,-0.34485524892807,0.0,0.0,-0.9919840097427368,0.9195539951324464
-0.3100035190582275,1.3527271747589111,-0.4992586672306061,-0.0743908137083053,-0.0105739729478955,-0.3719985783100128,0.0,0.0,-0.897772490978241,0.2202639579772949
-0.3152078688144684,1.350952386856079,-0.5019552111625671,-0.0791011154651641,-0.0288130547851324,-0.364781767129898,0.0,0.0,-0.8249698877334595,0.470374584197998
-0.3204331398010254,1.349076747894287,-0.504416286945343,-0.0838098004460334,-0.0467059649527072,-0.3578582108020782,0.0,0.0,-0.7883497476577759,0.2168384790420532
-0.3256772458553314,1.347099542617798,-0.5066461563110352,-0.0885169431567192,-0.0642674565315246,-0.3512299656867981,0.0,0.0,-0.90812087059021,0.5329756736755371
-0.3309051394462585,1.3450124263763428,-0.5045261383056641,-0.0936445072293281,-0.0823467299342155,-0.3615853190422058,0.0,0.0,-0.9832406640052797,0.7377424240112305
-0.3360851407051086,1.3428230285644531,-0.4984823167324066,-0.0984882861375808,-0.1016904935240745,-0.3868750631809234,0.0,0.0,-0.957808554172516,0.786344051361084
-0.3412260115146637,1.3405253887176514,-0.493588924407959,-0.1036411076784133,-0.1220514848828315,-0.4072200357913971,0.0,0.0,-0.9613397121429444,0.9375889301300048
-0.3463099896907806,1.3381195068359375,-0.486515462398529,-0.1088674888014793,-0.1438400000333786,-0.4357710480690002,0.0,0.0,-0.6797184348106384,0.3106023073196411
-0.3514022827148437,1.33561372756958,-0.4876728653907776,-0.1135854721069336,-0.1653710752725601,-0.430621474981308,0.0,0.0,-0.825840175151825,0.833743691444397
-0.3564265370368957,1.3329904079437256,-0.4792824387550354,-0.1193358153104782,-0.1885710209608078,-0.4639990925788879,0.0,0.0,-0.6282853484153748,0.7982730865478516
-0.3613918423652649,1.330242395401001,-0.472059816122055,-0.1254315972328186,-0.2132132351398468,-0.4928441643714905,0.0,0.0,-0.5453745722770691,-0.7709017395973206
-0.3664109110832214,1.3274067640304563,-0.4790645241737366,-0.1294910460710525,-0.2363335788249969,-0.462406724691391,0.0,0.0,-0.7059577107429504,-0.5976357460021973
-0.3714655935764313,1.32448410987854,-0.4838476181030273,-0.1335192620754242,-0.2583435475826263,-0.4401991367340088,0.0,0.0,-0.7589799761772156,-0.4867429137229919
-0.3765198290348053,1.3214616775512695,-0.4840993881225586,-0.1382363438606262,-0.2801682651042938,-0.4364948272705078,0.0,0.0,0.161003828048706,-0.3845323324203491
-0.3814298212528229,1.3191019296646118,-0.4699575304985046,-0.1090594604611396,-0.3018401563167572,-0.4334384500980377,0.0,0.0,-0.4271262288093567,-0.4510756731033325
-0.3863362669944763,1.3166422843933103,-0.469900518655777,-0.1137749105691909,-0.3233543634414673,-0.4302845001220703,0.0,0.0,-0.5802817940711975,-0.9430273771286012
-0.3912930488586426,1.3141133785247805,-0.4766737520694732,-0.116766057908535,-0.3431932628154754,-0.3967778086662292,0.0,0.0,-0.0588922500610351,-0.916681945323944
-0.3963027000427246,1.311504364013672,-0.4836944937705993,-0.1201779544353485,-0.3613490164279938,-0.3631148636341095,0.0,0.0,0.4048271179199219,-0.3935332894325256
-0.401194155216217,1.309424877166748,-0.4719046056270599,-0.0968755334615707,-0.3795930743217468,-0.3648814260959625,0.0,0.0,0.5027179718017578,-0.7908380627632141
-0.4057624340057373,1.308332085609436,-0.441470056772232,-0.0527410879731178,-0.3959627449512481,-0.3273933529853821,0.0,0.0,0.193357229232788,-0.4962453842163086
-0.4101788103580475,1.3077154159545898,-0.4264024198055267,-0.0317424014210701,-0.4123163521289825,-0.3270723223686218,0.0,0.0,-0.4459277391433716,-0.8957581520080566
-0.4146609902381897,1.3070541620254517,-0.4352369904518127,-0.0332381278276443,-0.4263360202312469,-0.2803932428359985,0.0,0.0,-0.3923194408416748,-0.3148292303085327
-0.4191327691078186,1.306289553642273,-0.4343509078025818,-0.0379323475062847,-0.4402844607830047,-0.2789689898490906,0.0,0.0,0.4988791942596435,-0.5835497975349426
-0.4233911037445068,1.306411623954773,-0.4141534268856048,0.0017035492928698,-0.4530669748783111,-0.2556503415107727,0.0,0.0,0.3461675643920898,-0.5974857211112976
-0.4274779856204986,1.3073357343673706,-0.39812833070755,0.0375999249517917,-0.4646852016448974,-0.2323646992444992,0.0,0.0,0.3915048837661743,-0.7326234579086304
-0.4314375817775726,1.3087700605392456,-0.3868597149848938,0.0606709495186805,-0.4747659862041473,-0.2016151845455169,0.0,0.0,0.029545783996582,-0.6740652918815613
-0.4353339672088623,1.310693383216858,-0.3818170130252838,0.0827806442975997,-0.4834625124931335,-0.1739307940006256,0.0,0.0,0.0729974508285522,-0.8501012325286865
-0.4392202496528625,1.3130881786346436,-0.3824478387832641,0.1042574718594551,-0.4903582334518432,-0.1379136741161346,0.0,0.0,-0.1149802803993225,-0.533689558506012
-0.4431228041648865,1.315405249595642,-0.3849497139453888,0.1010698825120925,-0.4963095486164093,-0.1190269440412521,0.0,0.0,0.0429143905639648,-0.7084408402442932
-0.4469131529331207,1.3179266452789309,-0.3750829100608825,0.1106344982981681,-0.5007442235946655,-0.088694043457508,0.0,0.0,-0.4921348690986633,-0.496126651763916
-0.4506902694702148,1.320343017578125,-0.3737715482711792,0.1059513539075851,-0.5051804780960083,-0.0887255072593689,0.0,0.0,-0.2911715507507324,-0.3941730260848999
-0.454454094171524,1.322654366493225,-0.3724470138549804,0.1012679412961006,-0.5096251964569092,-0.0888942256569862,0.0,0.0,-0.226218044757843,-0.4928451180458069
-0.4582046568393707,1.3248605728149414,-0.3711177110671997,0.0965842679142952,-0.5140846967697144,-0.089189775288105,0.0,0.0,-0.1837564706802368,-0.6338383555412292
-0.4619796872138977,1.3269939422607422,-0.3745837807655334,0.093707226216793,-0.5173935890197754,-0.0661773085594177,0.0,0.0,-0.3670588135719299,-0.5802860856056213
-0.4657795429229736,1.3290609121322632,-0.3781546652317047,0.0911743715405464,-0.5194759964942932,-0.0416482836008071,0.0,0.0,-0.2683907151222229,-0.3255568146705627
-0.46956667304039,1.3310229778289795,-0.3768598437309265,0.086491160094738,-0.5215891003608704,-0.0422616153955459,0.0,0.0,-0.1880878210067749,-0.5260762572288513
-0.4733732342720032,1.3329042196273804,-0.3796093165874481,0.0832119733095169,-0.5227755308151245,-0.0237284954637289,0.0,0.0,-0.3880724906921386,0.1360551118850708
-0.4771677553653717,1.3346803188323977,-0.3783782720565796,0.0785286277532577,-0.5240005850791931,-0.0245007965713739,0.0,0.0,-0.5847434401512146,-0.11900395154953
-0.4809507727622986,1.33635151386261,-0.3771910071372986,0.0738451406359672,-0.5252674221992493,-0.0253365933895111,0.0,0.0,-0.3453841805458069,-0.2202881574630737
-0.4847227931022644,1.3379175662994385,-0.3760551810264587,0.0691615343093872,-0.5265786647796631,-0.0262252632528543,0.0,0.0,-0.4308401346206665,0.0032876729965209
-0.4884844720363617,1.3393787145614624,-0.3749783635139465,0.0644778236746788,-0.5279364585876465,-0.0271561238914728,0.0,0.0,-0.1860632896423339,0.0020995140075683
-0.492236465215683,1.340734839439392,-0.3739678859710693,0.0597940422594547,-0.5293424129486084,-0.02811861038208,0.0,0.0,-0.437267541885376,-0.1303371787071228
-0.4959794878959656,1.3419859409332275,-0.3730309605598449,0.0551101937890052,-0.53079754114151,-0.029102150350809,0.0,0.0,-0.3779588937759399,-0.3248618245124817
-0.4997144341468811,1.3431321382522583,-0.3721745610237121,0.0504263080656528,-0.5323023796081543,-0.030096311122179,0.0,0.0,-0.3827902674674988,-0.0904287695884704
-0.5034419894218445,1.3441734313964844,-0.3714056313037872,0.0457424111664295,-0.5338569283485413,-0.0310906879603862,0.0,0.0,-0.4009253978729248,0.0351415872573852
