x_pos,y_pos,x_vel,y_vel,angle,ang_vel,leg_1,leg_2,main_booster,lat_booster
-0.0015727042919024,1.403066635131836,-0.1597123593091964,-0.3490422666072845,0.0021807178854942,0.0430480614304542,0.0,0.0,0.0054798126220703,0.4768476486206054
-0.0031668662559241,1.3950998783111572,-0.1620843112468719,-0.3540869057178497,0.004826954100281,0.0529302433133125,0.0,0.0,-0.4476984739303589,0.9538798332214355
-0.0047241211868822,1.3865684270858765,-0.1564310044050216,-0.3791775107383728,0.0055286427959799,0.014034966006875,0.0,0.0,0.2950347661972046,0.7928812503814697
-0.0063838958740234,1.3780637979507446,-0.1653170883655548,-0.3779866397380829,0.0048764222301542,-0.0130454134196043,0.0,0.0,-0.012921392917633,0.6099132299423218
-0.0080447196960449,1.3690035343170166,-0.164290577173233,-0.4026749730110168,0.0031037055887281,-0.0354576669633388,0.0,0.0,0.6454644203186035,0.9257831573486328
-0.0095425602048635,1.3601967096328735,-0.1467097848653793,-0.3914134204387665,7.051164720905945e-05,-0.0606697425246238,0.0,0.0,-0.0733542442321777,0.4796772003173828
-0.0111036300659179,1.3508318662643433,-0.1533712148666381,-0.4162124991416931,-0.0026376461610198,-0.0541679486632347,0.0,0.0,-0.0883341431617736,0.8006185293197632
-0.0126513484865427,1.3409115076065063,-0.1503443270921707,-0.440915435552597,-0.0070094345137476,-0.0874442607164383,0.0,0.0,0.4801692962646484,0.888279914855957
-0.0142027856782078,1.331567406654358,-0.1492378264665603,-0.4153346717357635,-0.0128526575863361,-0.1168752908706665,0.0,0.0,0.1151540279388427,0.6058543920516968
-0.0157691948115825,1.3224040269851685,-0.1498167812824249,-0.4073372781276703,-0.019605254754424,-0.1350641101598739,0.0,0.0,-0.3538962006568908,0.4990172386169433
-0.0174056999385356,1.3126832246780396,-0.1570945829153061,-0.432133674621582,-0.0260789636522531,-0.1294862478971481,0.0,0.0,0.5846753120422363,0.6665505170822144
-0.0189738273620605,1.3031587600708008,-0.1493634581565857,-0.4234596788883209,-0.0334431193768978,-0.147296518087387,0.0,0.0,-0.2735023498535156,0.7350192070007324
-0.0205440521240234,1.2930772304534912,-0.1480421870946884,-0.4482914507389068,-0.0423278771340847,-0.1777114421129226,0.0,0.0,0.0457205772399902,0.542538046836853
-0.0220873840153217,1.282764911651611,-0.1445955783128738,-0.458624392747879,-0.0519699603319168,-0.1928594708442688,0.0,0.0,0.2390121221542358,0.3928916454315185
-0.023568058386445,1.2728137969970703,-0.1390454918146133,-0.4426141083240509,-0.0608930885791778,-0.1784787625074386,0.0,0.0,-0.0784022212028503,0.8241860866546631
-0.0250483509153127,1.2622889280319214,-0.137280061841011,-0.4682388007640838,-0.071549192070961,-0.2131417542695999,0.0,0.0,-0.2930130958557129,-0.2410116791725158
-0.0266057010740041,1.2512075901031494,-0.1451793760061264,-0.493036150932312,-0.0820170938968658,-0.2093770205974578,0.0,0.0,-0.513185441493988,0.4816579818725586
-0.0282410625368356,1.2395696640014648,-0.1531580835580825,-0.5178365111351013,-0.0923160314559936,-0.2059971541166305,0.0,0.0,0.0025523900985717,0.4644117355346679
-0.0298516266047954,1.2280945777893066,-0.1511250436305999,-0.510646402835846,-0.1021882146596908,-0.1974616944789886,0.0,0.0,-0.2145822644233703,0.6560745239257812
-0.0314973816275596,1.2160555124282837,-0.1536410301923751,-0.5358494520187378,-0.1130604967474937,-0.2174650132656097,0.0,0.0,-0.5315980911254883,0.2464898824691772
-0.0332235321402549,1.2034599781036377,-0.1618139147758484,-0.5606493353843689,-0.1238195970654487,-0.2152012884616851,0.0,0.0,-0.7403250336647034,0.0633983612060546
-0.0350308418273925,1.1903079748153689,-0.1700423955917358,-0.5854514241218567,-0.1344863027334213,-0.2133527994155883,0.0,0.0,0.705895185470581,0.1964409351348877
-0.0367118827998638,1.1774080991744995,-0.1581232249736786,-0.574255645275116,-0.1444574743509292,-0.1994412392377853,0.0,0.0,0.2477598190307617,0.0248682498931884
-0.0383894927799701,1.164289951324463,-0.1580790579319,-0.5839933156967163,-0.154132679104805,-0.1935210525989532,0.0,0.0,0.5237752199172974,-0.4203166961669922
-0.0401885993778705,1.1515252590179443,-0.1696696579456329,-0.5684137344360352,-0.1643844097852707,-0.2050531655550003,0.0,0.0,0.6502945423126221,-0.3187596201896667
-0.0421024337410926,1.1392594575881958,-0.1804845184087753,-0.5463924407958984,-0.1753004044294357,-0.2183194905519485,0.0,0.0,0.4185116291046142,0.6453061103820801
-0.0439377799630165,1.1273484230041504,-0.1713633686304092,-0.5308583378791809,-0.187513917684555,-0.2442704141139984,0.0,0.0,0.2070554494857788,0.0975624322891235
-0.045839499682188,1.1157972812652588,-0.1775563657283783,-0.5150379538536072,-0.2002041488885879,-0.2538045644760132,0.0,0.0,0.4512056112289428,-0.618830680847168
-0.0478611961007118,1.104747295379639,-0.1905132234096527,-0.4927267432212829,-0.211964800953865,-0.23521289229393,0.0,0.0,-0.5132027268409729,-0.3166132569313049
-0.0499689094722271,1.0931416749954224,-0.1990578174591064,-0.5175297260284424,-0.2238034009933471,-0.2367722541093826,0.0,0.0,0.1728224754333496,-0.2597301006317138
-0.0520166382193565,1.0818549394607544,-0.1930484026670456,-0.503452718257904,-0.2356797158718109,-0.2375261485576629,0.0,0.0,-0.7022360563278198,-0.5649034976959229
-0.0542004592716693,1.070026993751526,-0.2078444212675094,-0.527413010597229,-0.2463918179273605,-0.2142422497272491,0.0,0.0,0.3047139644622803,-0.6310426592826843
-0.0564340576529502,1.0586142539978027,-0.2138451635837555,-0.508861780166626,-0.2560913860797882,-0.1939908862113952,0.0,0.0,-0.1392557621002197,-0.1235549449920654
-0.0587551109492778,1.0466454029083252,-0.2224574536085128,-0.5336630940437317,-0.265950858592987,-0.1971896588802337,0.0,0.0,0.7750370502471924,-0.509427011013031
-0.0610074996948242,1.0351054668426514,-0.2164928913116455,-0.5145031213760376,-0.2749041616916656,-0.1790660768747329,0.0,0.0,-0.2592698931694031,-0.3709105253219604
-0.0633480101823806,1.0230096578598022,-0.2251254618167877,-0.5393043160438538,-0.2840552926063537,-0.1830230504274368,0.0,0.0,0.1273468732833862,-0.2092247009277343
-0.065706729888916,1.010812520980835,-0.2266959249973297,-0.5439055562019348,-0.2935050725936889,-0.1889957040548324,0.0,0.0,-0.3779210448265075,-0.5798146724700928
-0.068194106221199,0.9980825781822203,-0.2404212057590484,-0.5674779415130615,-0.302079439163208,-0.1714875698089599,0.0,0.0,0.6503524780273438,-0.5462895035743713
-0.0705995559692382,0.9860457181930542,-0.2330037057399749,-0.5365613102912903,-0.3098947405815124,-0.1563060283660888,0.0,0.0,0.3104925155639648,-0.3676989078521728
-0.0729255676269531,0.974131405353546,-0.2249126434326172,-0.5311844944953918,-0.3178717792034149,-0.1595413237810135,0.0,0.0,0.6450165510177612,-0.6490459442138672
-0.0752551108598709,0.962849259376526,-0.2260529994964599,-0.5029680728912354,-0.3250565826892853,-0.1436961740255355,0.0,0.0,0.2492522001266479,-0.2944778800010681
-0.077458955347538,0.9515289068222046,-0.2136274576187133,-0.504656970500946,-0.3321045339107513,-0.1409588754177093,0.0,0.0,-0.4899970293045044,-0.7181406617164612
-0.0797986015677452,0.9396685361862184,-0.2280993014574051,-0.5284927487373352,-0.338238388299942,-0.1226768121123313,0.0,0.0,0.3083411455154419,-0.3603250980377197
-0.0820145606994628,0.9278053045272828,-0.2157741487026214,-0.5286262035369873,-0.3443297147750854,-0.1218268275260925,0.0,0.0,0.2701090574264526,-0.3474034070968628
-0.0842727646231651,0.9157218933105468,-0.219563752412796,-0.5385515689849854,-0.3508988320827484,-0.1313823610544204,0.0,0.0,0.918931007385254,-0.7084885835647583
-0.0864869132637977,0.9036216139793396,-0.2163371741771698,-0.5390349626541138,-0.3562321662902832,-0.1066668406128883,0.0,0.0,0.6867165565490723,-0.7422032356262207
-0.0886229500174522,0.8915979266166687,-0.2097756415605545,-0.5353400707244873,-0.3602685630321502,-0.080727718770504,0.0,0.0,0.7187315225601196,-0.9442302584648132
-0.0907319039106369,0.8803536295890808,-0.2084023058414459,-0.500371515750885,-0.3628977835178375,-0.0525845810770988,0.0,0.0,0.897174596786499,-0.9137508869171144
-0.0928312316536903,0.8699578642845154,-0.2085967510938644,-0.4623734354972839,-0.3643055260181427,-0.0281547755002975,0.0,0.0,0.712899923324585,-0.8162328004837036
-0.094915010035038,0.8597902059555054,-0.2082235366106033,-0.4519335627555847,-0.3644644021987915,-0.0031772633083164,0.0,0.0,0.9177250862121582,-0.7123875021934509
-0.0967358574271202,0.8499292731285095,-0.183353453874588,-0.43794646859169,-0.3631293475627899,0.0267012473195791,0.0,0.0,0.8976155519485474,-0.9320674538612366
-0.0984805077314376,0.8407825827598572,-0.1770500242710113,-0.4058631360530853,-0.3603932857513428,0.0547210052609443,0.0,0.0,0.8515779972076416,-0.7751652002334595
-0.1000711470842361,0.8317371606826782,-0.1630509495735168,-0.4010271430015564,-0.3561985492706299,0.0838956013321876,0.0,0.0,0.8731147050857544,-0.5674627423286438
-0.1014719977974891,0.8234335780143738,-0.1447974294424057,-0.3678819537162781,-0.3512347340583801,0.0992763638496398,0.0,0.0,0.8767929077148438,-0.7026406526565552
-0.1026513129472732,0.81528639793396,-0.1240314021706581,-0.3606221079826355,-0.3448250591754913,0.1281934082508087,0.0,0.0,0.4500514268875122,-0.0406994819641113
-0.1038577109575271,0.8072100281715393,-0.1259897649288177,-0.3576786816120147,-0.3392272591590881,0.1119557470083236,0.0,0.0,0.6447829008102417,-0.4413843154907226
-0.104799747467041,0.799653947353363,-0.0995546579360961,-0.3345812559127807,-0.3336256742477417,0.1120317131280899,0.0,0.0,0.8215475082397461,-0.6761481761932373
-0.1054800003767013,0.7925443053245544,-0.0746788010001182,-0.3144665956497192,-0.3266853988170624,0.1388055235147476,0.0,0.0,-0.5835943818092346,0.1373367309570312
-0.1062474250793457,0.7848791480064392,-0.0829873979091644,-0.3392724394798279,-0.3201834857463836,0.1300380676984787,0.0,0.0,-0.6747504472732544,-0.285736620426178
-0.1071017235517501,0.7766588926315308,-0.0912538021802902,-0.3640777170658111,-0.3141241073608398,0.1211875528097152,0.0,0.0,-0.6432895660400391,-0.3496254682540893
-0.10804233700037,0.7678828239440918,-0.0994748398661613,-0.3888824582099914,-0.3085111379623413,0.112259492278099,0.0,0.0,-0.8619394302368164,-0.541500985622406
-0.1091156974434852,0.7585766315460205,-0.1135701537132263,-0.4122971594333648,-0.3020585477352142,0.129051849246025,0.0,0.0,-0.8262465000152588,-0.4018097519874573
-0.1102745085954666,0.7487149834632874,-0.1216907948255539,-0.4371019899845123,-0.2960593700408935,0.1199838295578956,0.0,0.0,-0.0457015037536621,0.5279752016067505
-0.1114768981933593,0.7382795214653015,-0.1245264410972595,-0.4629330933094024,-0.2916315197944641,0.0885567069053649,0.0,0.0,-0.8458553552627563,-0.7582430839538574
-0.1128212958574295,0.7273083925247192,-0.1397589147090912,-0.4865499138832092,-0.2861480712890625,0.1096686869859695,0.0,0.0,-0.4044286012649536,-0.3110663890838623
-0.1142494231462478,0.7157816290855408,-0.1476998329162597,-0.5113535523414612,-0.2811269760131836,0.1004224047064781,0.0,0.0,-0.2195199728012085,-0.5086455345153809
-0.1157966628670692,0.7037208080291748,-0.1601449251174926,-0.5350018739700317,-0.2755698561668396,0.1111426949501037,0.0,0.0,-0.5426677465438843,-0.1517000198364257
-0.1174264922738075,0.6911042928695679,-0.1679449826478958,-0.5598052144050598,-0.2704801261425018,0.1017947793006897,0.0,0.0,-0.3101916909217834,-0.7106256484985352
-0.1191880255937576,0.6779612898826599,-0.1820190250873565,-0.5830546617507935,-0.2644773423671722,0.1200557127594947,0.0,0.0,0.4888290166854858,-0.5568324327468872
-0.1210502609610557,0.6649313569068909,-0.1925249993801117,-0.5779903531074524,-0.2580375969409942,0.1287946105003357,0.0,0.0,-0.4290189743041992,-0.2907869815826416
-0.1229925155639648,0.6513456702232361,-0.2000777721405029,-0.6027940511703491,-0.2520718872547149,0.1193142905831337,0.0,0.0,0.268151044845581,-0.3484694361686706
-0.124872013926506,0.6378890872001648,-0.1934414952993393,-0.5971310138702393,-0.2464729845523834,0.1119781136512756,0.0,0.0,0.7593190670013428,-0.3803063631057739
-0.1267433166503906,0.6252352595329285,-0.1915367692708969,-0.5616644024848938,-0.2419866025447845,0.0897278413176536,0.0,0.0,0.0438438653945922,-0.8386919498443604
-0.1286156624555587,0.6125609278678894,-0.1928529441356659,-0.5623895525932312,-0.2362787872552871,0.1141560897231102,0.0,0.0,0.5296730995178223,0.0529346466064453
-0.1305096596479416,0.5998696684837341,-0.1944131851196289,-0.5632583498954773,-0.2311969548463821,0.1016367897391319,0.0,0.0,0.5471348762512207,0.0462309122085571
-0.1323470175266266,0.5870451331138611,-0.1885563880205154,-0.5692335963249207,-0.2263037711381912,0.0978632420301437,0.0,0.0,0.7166249752044678,0.0191372632980346
-0.1342108696699142,0.5741910934448242,-0.1905954927206039,-0.5706546306610107,-0.2220473885536193,0.0851275399327278,0.0,0.0,0.7779794931411743,0.2024972438812255
-0.1359681189060211,0.5620327591896057,-0.1794045269489288,-0.5398194193840027,-0.2183192372322082,0.074563167989254,0.0,0.0,0.3549321889877319,0.0079295635223388
-0.1375874578952789,0.5502765774726868,-0.16544009745121,-0.5219805240631104,-0.2147755771875381,0.0708727538585662,0.0,0.0,-0.2932440638542175,-0.2893329262733459
-0.1392765045166015,0.5379641652107239,-0.1719320714473724,-0.5467805862426758,-0.2117216140031814,0.0610795207321643,0.0,0.0,0.7252049446105957,0.4547966718673706
-0.1410932540893554,0.5256452560424805,-0.183593600988388,-0.5472328066825867,-0.2097837775945663,0.038756750524044,0.0,0.0,0.9225009679794312,-0.0047298669815063
-0.1427392065525055,0.5141049027442932,-0.1662405580282211,-0.51267409324646,-0.208121508359909,0.0332449451088905,0.0,0.0,0.4536808729171753,0.3931798934936523
-0.1444328278303146,0.5027788877487183,-0.1701069772243499,-0.5032727122306824,-0.2073658257722854,0.0151136768981814,0.0,0.0,-0.7448921799659729,0.5085494518280029
-0.1461537331342697,0.4908872544765472,-0.171428307890892,-0.5286086797714233,-0.2080337256193161,-0.0133580984547734,0.0,0.0,0.6977365016937256,0.8968470096588135
-0.147731214761734,0.4794807136058807,-0.1547891199588775,-0.5073779225349426,-0.2110200524330139,-0.0597266852855682,0.0,0.0,-0.7741428017616272,-0.3412286043167114
-0.1493683755397796,0.4675179123878479,-0.1602657735347747,-0.5321776270866394,-0.2145048975944519,-0.0696964636445045,0.0,0.0,0.9741935729980468,-0.5115020275115967
-0.1509872376918792,0.4555967450141907,-0.1590422093868255,-0.5302437543869019,-0.2173736691474914,-0.0573756471276283,0.0,0.0,0.7053463459014893,0.8998442888259888
-0.1523996293544769,0.4436643421649933,-0.1362689584493637,-0.5310698747634888,-0.2223964035511016,-0.1004549488425254,0.0,0.0,0.8804877996444702,-0.609764039516449
-0.1535943001508712,0.4320832788944244,-0.1157026886940002,-0.5152884721755981,-0.2262194454669952,-0.0764605551958084,0.0,0.0,0.9666197299957277,-0.7907384037971497
-0.1546214073896408,0.4205867052078247,-0.1003903299570083,-0.5113147497177124,-0.2285593599081039,-0.0467985086143016,0.0,0.0,0.972853422164917,-0.447921872138977
-0.15550097823143,0.4098469018936157,-0.0851292982697486,-0.4777665436267853,-0.2314361333847046,-0.0575354099273681,0.0,0.0,0.7880382537841797,0.1282107830047607
-0.1562068909406662,0.399738073348999,-0.0674032345414161,-0.4497849643230438,-0.2346647977828979,-0.0645731985569,0.0,0.0,0.9710534811019896,-0.760569155216217
-0.1566738188266754,0.3902016878128052,-0.0448892191052436,-0.4241277575492859,-0.2364951223134994,-0.0366065427660942,0.0,0.0,0.948270320892334,-0.3608421683311462
-0.1569773703813552,0.3806287944316864,-0.028595108538866,-0.425750195980072,-0.2382845133543014,-0.0357877239584922,0.0,0.0,0.7995163202285767,-0.8858039975166321
-0.1573199331760406,0.3713528513908386,-0.0336445346474647,-0.4123639464378357,-0.2389077693223953,-0.0124650606885552,0.0,0.0,0.8997691869735718,-0.1267594099044799
-0.15737085044384,0.3629319965839386,-0.0044137015938758,-0.3743667304515838,-0.2395923435688018,-0.0136913508176803,0.0,0.0,0.1498211622238159,-0.7250635027885437
-0.1574363708496093,0.3545589447021484,-0.0068018669262528,-0.3720981478691101,-0.2393447458744049,0.0049520945176482,0.0,0.0,-0.3278331756591797,-0.4511553645133972
-0.1575346887111663,0.3456296026706695,-0.0095674870535731,-0.3968986272811889,-0.239610493183136,-0.0053149554878473,0.0,0.0,0.2295608520507812,-0.6868641376495361
-0.1575213372707367,0.3368978500366211,0.0006284514674916,-0.3879686892032623,-0.23890221118927,0.0141657516360282,0.0,0.0,-0.488919734954834,-0.8077886700630188
-0.157602310180664,0.3276401460170746,-0.0100298058241605,-0.4111382365226745,-0.2369290739297866,0.0394628383219242,0.0,0.0,0.313367486000061,-0.0087382793426513
-0.1576325446367263,0.3187173902988434,-0.0041571361944079,-0.3963833451271057,-0.2357758432626724,0.0230642445385456,0.0,0.0,0.1482295989990234,-0.1917386651039123
-0.157621294260025,0.3097493648529053,0.0005723258364014,-0.398493081331253,-0.2352188378572464,0.0111401174217462,0.0,0.0,0.5040099620819092,-0.3897113800048828
-0.1576059311628341,0.3010607957839966,0.001988161355257,-0.3862271308898926,-0.2356697618961334,-0.0090184994041919,0.0,0.0,0.3357459306716919,-0.781898558139801
-0.1577027291059494,0.2925016283988952,-0.0101147955283522,-0.3803379237651825,-0.2352304905653,0.0087852962315082,0.0,0.0,0.7377294301986694,-0.2120780944824218
-0.1575301140546798,0.2844499349594116,0.016830151900649,-0.3577866852283478,-0.2347929775714874,0.0087503921240568,0.0,0.0,-0.6332622170448303,-0.11387300491333
-0.1573700904846191,0.2758420407772064,0.0160762406885623,-0.3825870454311371,-0.2348724454641342,-0.0015892203664407,0.0,0.0,-0.0206111669540405,-0.5687686800956726
-0.1572527885437011,0.2666940689086914,0.0114631038159132,-0.4065309464931488,-0.2345941662788391,0.0055654654279351,0.0,0.0,0.8062472343444824,-0.6334241032600403
-0.1570198982954025,0.2582596242427826,0.0223269164562225,-0.3747108578681946,-0.2336175739765167,0.0195318199694156,0.0,0.0,0.2696418762207031,-0.8050344586372375
-0.1565794050693512,0.2502150535583496,0.0418708845973014,-0.3571897149085998,-0.2314030230045318,0.0442905910313129,0.0,0.0,-0.7960295081138611,-0.6781067252159119
-0.1561873406171798,0.2416305691003799,0.0363416895270347,-0.3810883164405823,-0.228509172797203,0.0578772015869617,0.0,0.0,0.3844842910766601,0.0289008617401123
-0.1556471884250641,0.2334915995597839,0.0517024621367454,-0.3613744676113128,-0.2261567711830139,0.047047670930624,0.0,0.0,-0.4951043128967285,-0.6814327836036682
-0.155151754617691,0.224818542599678,0.0465005040168762,-0.3850050866603851,-0.2230769246816635,0.0615972951054573,0.0,0.0,0.0288159847259521,-0.5986160635948181
-0.154581069946289,0.2160010933876037,0.0532693676650524,-0.3913188576698303,-0.2192330509424209,0.0768773779273033,0.0,0.0,0.5531766414642334,-0.4406507015228271
-0.153990551829338,0.2075159400701522,0.056276511400938,-0.3767067193984985,-0.216429129242897,0.0560783147811889,0.0,0.0,0.2187652587890625,-0.8179967403411865
-0.1534801423549652,0.1990846544504165,0.0472225472331047,-0.374172031879425,-0.2125729471445083,0.0771235823631286,0.0,0.0,0.3768556118011474,-0.73248291015625
-0.1529370248317718,0.1908102184534073,0.0495481975376606,-0.3670756220817566,-0.2077762633562088,0.0959340780973434,0.0,0.0,0.3074125051498413,-0.4501575827598572
-0.1522752791643142,0.1825928539037704,0.0618174187839031,-0.3646084070205688,-0.2033835649490356,0.0878535956144332,0.0,0.0,0.5271635055541992,-0.1785040497779846
-0.1514148712158203,0.1742710620164871,0.0816245898604393,-0.3692551553249359,-0.1989276558160781,0.0891182348132133,0.0,0.0,-0.1325516700744629,-0.8276062607765198
-0.150592416524887,0.1654129773378372,0.0769153535366058,-0.392986923456192,-0.1935663074254989,0.1072268486022949,0.0,0.0,0.6342024803161621,-0.7899218797683716
-0.1496329307556152,0.1571908295154571,0.0894637480378151,-0.3645969331264496,-0.1870508342981338,0.1303096711635589,0.0,0.0,0.4988161325454712,-0.8939337730407715
