x_pos,y_pos,x_vel,y_vel,angle,ang_vel,leg_1,leg_2,main_booster,lat_booster
-0.0014451027382165,1.4034736156463623,-0.146635815501213,-0.3309501409530639,0.0019033366115763,0.0375556759536266,0.0,0.0,-0.2077367305755615,0.7052106857299805
-0.0027511597145348,1.3958964347839355,-0.1311371922492981,-0.3367654979228973,0.0024263756349682,0.0104624005034565,0.0,0.0,-0.2508111000061035,0.3284637928009033
-0.0039783478714525,1.3881678581237793,-0.1234198957681655,-0.3434882462024688,0.0031296948436647,0.0140675855800509,0.0,0.0,-0.4526201486587524,0.6706643104553223
-0.0050841332413256,1.380286693572998,-0.1104007139801979,-0.350277692079544,0.0029466310515999,-0.003661434398964,0.0,0.0,-0.3371168971061706,-0.0938432812690734
-0.0061112404800951,1.3722546100616455,-0.102701187133789,-0.3569770157337188,0.0029413572046905,-0.0001054970416589,0.0,0.0,-0.7120346426963806,0.6009283065795898
-0.0070016859099268,1.3640713691711426,-0.08773785084486,-0.3637008666992187,0.0016516615869477,-0.0257961936295032,0.0,0.0,-0.4953460693359375,0.3026007413864136
-0.0078136445954442,1.355737328529358,-0.080067940056324,-0.370400458574295,0.0005361119401641,-0.0223132260143756,0.0,0.0,-0.7823588848114014,0.490486741065979
-0.0085474010556936,1.347252607345581,-0.0724199935793876,-0.3771001100540161,-0.0004086234257556,-0.0188966188579797,0.0,0.0,-0.6154423952102661,0.6093018054962158
-0.0091562271118164,1.3386237621307373,-0.0588975921273231,-0.3835071921348572,-0.0023674226831644,-0.0391797162592411,0.0,0.0,-0.8897082209587097,-0.8627200126647949
-0.0097554204985499,1.3298497200012207,-0.0598346218466758,-0.3899546563625335,-0.0024484207388013,-0.0016201937105506,0.0,0.0,-0.6983181834220886,0.0671539306640625
-0.0102773662656545,1.320924997329712,-0.052273117005825,-0.3966541290283203,-0.0023676971904933,0.0016149362782016,0.0,0.0,-0.3804736733436584,0.159392237663269
-0.0107223512604832,1.311849594116211,-0.0447457805275917,-0.4033538103103637,-0.0021270278375595,0.0048136077821254,0.0,0.0,-0.824864387512207,-0.5048736929893494
-0.01112203579396,1.3026260137557983,-0.0411711446940898,-0.4099334180355072,-0.0009455002145841,0.0236329622566699,0.0,0.0,-0.9288061261177064,0.0152469873428344
-0.01144580822438,1.2932517528533936,-0.0337257646024227,-0.4166331887245178,0.0003882010641973,0.0266764853149652,0.0,0.0,-0.9593778252601624,-0.5010891556739807
-0.0117242811247706,1.2837319374084473,-0.0301241278648376,-0.4231037497520447,0.0026321788318455,0.0448834225535392,0.0,0.0,-0.8806146383285522,-0.4798812866210937
-0.0119278905913233,1.2740615606307983,-0.0227741673588752,-0.4298040568828583,0.0050205388106405,0.0477717891335487,0.0,0.0,-0.8003288507461548,-0.4553791284561157
-0.0120570184662938,1.2642405033111572,-0.0154758784919977,-0.4365044236183166,0.0075497017242014,0.0505879931151866,0.0,0.0,-0.9276318550109864,-0.6338345408439636
-0.0121506694704294,1.254262924194336,-0.013025258667767,-0.4434686303138733,0.0111762303858995,0.0725372284650802,0.0,0.0,-0.9769454002380372,-0.549039363861084
-0.0122076030820608,1.2441394329071045,-0.0104116853326559,-0.4499728381633758,0.0158484075218439,0.0934516042470932,0.0,0.0,-0.9317570924758912,-0.0462116599082946
-0.0121920583769679,1.23386549949646,-0.0032966260332614,-0.4566749036312103,0.0206475537270307,0.095991775393486,0.0,0.0,-0.950590431690216,0.0836495161056518
-0.0121047971770167,1.223441243171692,0.0037518721073865,-0.4633770883083343,0.0255694184452295,0.098445788025856,0.0,0.0,-0.8453229069709778,0.119150161743164
-0.0119465831667184,1.2128665447235107,0.0107296118512749,-0.4700796008110046,0.0306089576333761,0.1007997766137123,0.0,0.0,-0.9732778668403624,0.378158688545227
-0.0117181781679391,1.2021417617797852,0.0176327377557754,-0.4767823219299316,0.0357612818479537,0.1030556932091713,0.0,0.0,-0.8852775692939758,0.7635552883148193
-0.0113528249785304,1.1912614107131958,0.032928068190813,-0.4836607277393341,0.0393280424177646,0.0713415369391441,0.0,0.0,-0.9101197123527528,0.6997497081756592
-0.0108767505735158,1.1802349090576172,0.0449739247560501,-0.4901373982429504,0.0419344641268253,0.0521330945193767,0.0,0.0,-0.8520057201385498,0.0148028135299682
-0.0103323934599757,1.1690363883972168,0.051697202026844,-0.4977915585041046,0.0446388572454452,0.0540880188345909,0.0,0.0,-0.8699929118156433,-0.1455308198928833
-0.0097212791442871,1.1576873064041138,0.0582765266299247,-0.5044904351234436,0.0474367067217826,0.0559571273624897,0.0,0.0,-0.8359339237213135,0.4052681922912597
-0.009044456295669,1.1461877822875977,0.0647609382867813,-0.511189341545105,0.0503231734037399,0.0577294714748859,0.0,0.0,-0.8859266638755798,-0.3485493659973144
-0.0083028795197606,1.134537696838379,0.0711461752653122,-0.5178883075714111,0.0532933659851551,0.0594036951661109,0.0,0.0,-0.8353602290153503,0.0653271675109863
-0.0074977874755859,1.122736930847168,0.0774279683828353,-0.5245873332023621,0.0563422888517379,0.060978464782238,0.0,0.0,-0.9366832375526428,-0.0161947011947631
-0.0066302297636866,1.110785722732544,0.0836020410060882,-0.531286358833313,0.0594649314880371,0.0624526813626289,0.0,0.0,-0.9155902862548828,0.0729466676712036
-0.0057012559846043,1.0986840724945068,0.0896641537547111,-0.5379854440689087,0.0626562163233757,0.063825637102127,0.0,0.0,-0.7707125544548035,0.2240451574325561
-0.004712295718491,1.086431860923767,0.0956100672483444,-0.5446845889091492,0.065911054611206,0.0650966763496398,0.0,0.0,-0.9224104285240172,-0.1563646793365478
-0.003664493560791,1.0740292072296145,0.1014355793595314,-0.5513837337493896,0.0692243427038192,0.0662656128406524,0.0,0.0,-0.933634340763092,-0.2857963442802429
-0.0025591850280761,1.0614758729934692,0.1071365848183631,-0.5580828785896301,0.0725909620523452,0.0673324912786483,0.0,0.0,-0.919753074645996,-0.1224803328514099
-0.0013976097106933,1.0487720966339111,0.1127090454101562,-0.5647820234298706,0.0760058462619781,0.0682973563671112,0.0,0.0,-0.8915072679519653,0.2505621910095215
-0.0001811981201171,1.03591787815094,0.118148997426033,-0.5714812874794006,0.0794638767838478,0.0691607221961021,0.0,0.0,-0.685495138168335,0.1191225051879882
0.0010887145763263,1.022913098335266,0.1234525814652443,-0.5781804323196411,0.0829600319266319,0.0699233263731002,0.0,0.0,-0.9099943041801452,-0.3407865762710571
0.0024104118347167,1.0097578763961792,0.1286161243915558,-0.5848795771598816,0.0864893496036529,0.0705860927700996,0.0,0.0,-0.9357293248176576,-0.8978535532951355
0.0037151337601244,0.9964446425437928,0.1251643598079681,-0.592017412185669,0.0917514264583587,0.1052413806319236,0.0,0.0,-0.4831193089485168,0.4962849617004394
0.0050687789916992,0.9829809665679932,0.1300375610589981,-0.5987178087234497,0.0970368236303329,0.1057081222534179,0.0,0.0,-0.8980780839920044,-0.6691511869430542
0.0064280508086085,0.9693596363067628,0.1295125186443328,-0.6058263778686523,0.1034018322825431,0.1272999495267868,0.0,0.0,-0.7803514003753662,0.6631494760513306
0.0078942300751805,0.9555901288986206,0.1417397111654281,-0.6123255491256714,0.1082476675510406,0.0969164595007896,0.0,0.0,-0.8196951746940613,0.6953237056732178
0.0094684604555368,0.9416791200637816,0.1541603654623031,-0.61850905418396,0.1114876866340637,0.064800851047039,0.0,0.0,-0.938249945640564,0.1033816337585449
0.0110852243378758,0.9276174902915956,0.1584161967039108,-0.625207781791687,0.1147325932979583,0.0648979023098945,0.0,0.0,-0.9207068085670472,-0.6333188414573669
0.0126976016908884,0.9133910536766052,0.1567896157503128,-0.6326350569725037,0.1191479638218879,0.0883075296878814,0.0,0.0,-0.8854988217353821,-0.787980854511261
0.0142938615754246,0.8989999294281006,0.1537745743989944,-0.6400821208953857,0.1249749287962913,0.1165390610694885,0.0,0.0,-0.5451247692108154,0.0372365713119506
0.0159277915954589,0.8844586610794067,0.157544195652008,-0.6467827558517456,0.1307941377162933,0.116384208202362,0.0,0.0,-0.7295516133308411,0.3214647769927978
0.0175976753234863,0.8697670102119446,0.1611486971378326,-0.6534833312034607,0.1366017013788223,0.1161515936255455,0.0,0.0,-0.9047208428382874,0.8831199407577515
0.0193686485290527,0.8549361824989319,0.1729933321475982,-0.6595277786254883,0.1406924128532409,0.0818142518401146,0.0,0.0,-0.9478077292442322,-0.0519182682037353
0.0211721416562795,0.8399550318717957,0.1762648224830627,-0.6662268042564392,0.1447641998529434,0.0814360156655311,0.0,0.0,-0.7717795372009277,-0.2771098017692566
0.0230064392089843,0.8248232007026672,0.1793694198131561,-0.6729258298873901,0.148813709616661,0.0809903293848037,0.0,0.0,-0.937746524810791,0.5715296268463135
0.0249229427427053,0.8095495104789734,0.1889706552028656,-0.6791017651557922,0.1514887809753418,0.0535015650093555,0.0,0.0,-0.9061216115951538,-0.2517279982566833
0.0268669128417968,0.7941251397132874,0.1917419135570526,-0.6857998371124268,0.154135376214981,0.0529321730136871,0.0,0.0,-0.7732594013214111,-0.615216851234436
0.0288006775081157,0.7785394191741943,0.1898278594017028,-0.6930704116821289,0.1576783806085586,0.0708599537611007,0.0,0.0,-0.655219316482544,-0.7352674603462219
0.0306922905147075,0.7627840638160706,0.1839478909969329,-0.7007983326911926,0.1628944724798202,0.1043217778205871,0.0,0.0,-0.7292916178703308,0.9122412204742432
0.0326876640319824,0.7469066977500916,0.1964724361896515,-0.7059974670410156,0.1659575402736663,0.0612617954611778,0.0,0.0,-0.8102481961250305,0.2361503839492797
0.0347037315368652,0.7308787703514099,0.1985898911952972,-0.7126955389976501,0.1689822524785995,0.0604942068457603,0.0,0.0,-0.3491244912147522,-0.1477192640304565
0.0367390625178813,0.7147001624107361,0.2005485594272613,-0.7193936109542847,0.1719666570425033,0.0596880093216896,0.0,0.0,-0.7422807216644287,0.0656205415725708
0.0387919433414936,0.6983706951141357,0.2023508846759796,-0.7260916233062744,0.1749090254306793,0.0588477961719036,0.0,0.0,-0.6325540542602539,0.1114941835403442
0.0408608429133892,0.6818907856941223,0.2039996832609176,-0.7327896356582642,0.177807942032814,0.0579781718552112,0.0,0.0,-0.5657050013542175,0.2580925226211548
0.0429442413151264,0.6652600765228271,0.2054980993270874,-0.7394875288009644,0.1806621551513672,0.0570838674902915,0.0,0.0,-0.0175216197967529,-0.6049835681915283
0.0450035110116004,0.6484668850898743,0.2021695375442505,-0.7468243837356567,0.1844360381364822,0.0754776000976562,0.0,0.0,-0.2908225655555725,-0.1385644078254699
0.0470745079219341,0.6315231919288635,0.2033779174089431,-0.7535227537155151,0.1881634443998336,0.0745484083890914,0.0,0.0,-0.235356330871582,0.4523748159408569
0.0491555221378803,0.6144288778305054,0.204446941614151,-0.7602211236953735,0.1918438822031021,0.0736091583967208,0.0,0.0,-0.3565976619720459,-0.2471333742141723
0.0512454994022846,0.5971837639808655,0.205380842089653,-0.7669194340705872,0.1954771131277084,0.0726649016141891,0.0,0.0,0.1960126161575317,0.3730421066284179
0.0532379150390625,0.5807041525840759,0.1956055909395218,-0.7329099774360657,0.1991350203752517,0.0731577277183532,0.0,0.0,0.4259742498397827,0.6019918918609619
0.0553101524710655,0.5644750595092773,0.2046636343002319,-0.7216398119926453,0.2017043530941009,0.0513868704438209,0.0,0.0,0.0428361892700195,-0.2586528062820434
0.057296086102724,0.5488921999931335,0.1960189491510391,-0.6929251551628113,0.2043061405420303,0.0520357675850391,0.0,0.0,0.1971127986907959,-0.450005292892456
0.059149645268917,0.5336416363716125,0.1831361949443817,-0.6781114339828491,0.2065467834472656,0.0448129698634147,0.0,0.0,-0.1272742748260498,0.579667329788208
0.0610437393188476,0.5182546377182007,0.1882072389125824,-0.6840365529060364,0.2077531963586807,0.0241284128278493,0.0,0.0,0.1947857141494751,0.2432237863540649
0.0628684982657432,0.5033842921257019,0.1812222450971603,-0.6610825061798096,0.2090191394090652,0.0253192000091075,0.0,0.0,0.3675059080123901,0.4111909866333008
0.0644447356462478,0.489355593919754,0.1568988710641861,-0.6235972046852112,0.2097500264644622,0.0146178202703595,0.0,0.0,0.5979316234588623,0.9428315162658693
0.0660557746887207,0.4760439097881317,0.1622000634670257,-0.5914763808250427,0.2086418569087982,-0.0221630875021219,0.0,0.0,0.057910680770874,0.3413887023925781
0.0675928145647049,0.4629421234130859,0.1549374461174011,-0.582124650478363,0.2073959857225418,-0.0249176211655139,0.0,0.0,0.3270137310028076,0.0960241556167602
0.0691277533769607,0.4500897824764251,0.1545096188783645,-0.5710738301277161,0.2063672691583633,-0.02057396620512,0.0,0.0,0.2984108924865722,0.2599573135375976
0.0705810561776161,0.4374706745147705,0.1465027630329132,-0.5606880187988281,0.2051908373832702,-0.0235285032540559,0.0,0.0,0.1469969749450683,0.7440156936645508
0.0719690322875976,0.4255320429801941,0.1414888501167297,-0.5302363634109497,0.202477678656578,-0.0542631968855857,0.0,0.0,0.6672830581665039,-0.1780140399932861
0.0732666999101638,0.4146766662597656,0.1321144998073578,-0.4821396172046661,0.2001113593578338,-0.0473263710737228,0.0,0.0,0.2886531352996826,-0.3410872220993042
0.074347399175167,0.4045817852020263,0.1108439937233924,-0.4482901394367218,0.1973168104887008,-0.0558908805251121,0.0,0.0,0.0977722406387329,0.0367294549942016
0.0752956420183181,0.3946346342563629,0.0980164036154747,-0.4416715502738952,0.1941050142049789,-0.0642361491918563,0.0,0.0,0.438322901725769,0.0740857124328613
0.076140210032463,0.3855600357055664,0.0875018164515495,-0.4029212296009063,0.1910400688648224,-0.061299193650484,0.0,0.0,0.6772775650024414,0.6953356266021729
0.0768117904663086,0.3771789669990539,0.0718537047505378,-0.3718934953212738,0.1863269060850143,-0.0942636802792549,0.0,0.0,-0.8205939531326294,0.5720702409744263
0.0775173157453537,0.3686613440513611,0.0762931704521179,-0.3778501749038696,0.1805618852376938,-0.1153003349900245,0.0,0.0,0.3645846843719482,0.163231611251831
0.0781029686331749,0.3608430922031402,0.0643596947193145,-0.3467850387096405,0.1747491210699081,-0.1162551864981651,0.0,0.0,-0.22858327627182,0.0978401899337768
0.0786819458007812,0.3528745770454407,0.0636976286768913,-0.3534857630729675,0.1689394116401672,-0.1161943450570106,0.0,0.0,-0.8349933624267578,0.362823486328125
0.079254150390625,0.3447557687759399,0.0630163475871086,-0.3601865768432617,0.1631380319595337,-0.1160276904702186,0.0,0.0,-0.596444845199585,-0.2726174592971802
0.0798194855451583,0.3364867866039276,0.062321662902832,-0.366887480020523,0.1573505252599716,-0.1157501712441444,0.0,0.0,-0.8212006688117981,-0.3474092483520508
0.080377958714962,0.3280675709247589,0.061619359999895,-0.3735884130001068,0.1515826880931854,-0.1153570190072059,0.0,0.0,-0.487726092338562,-0.4315274953842163
0.0809295624494552,0.3194980919361114,0.060915183275938,-0.3802894353866577,0.145840510725975,-0.1148434877395629,0.0,0.0,-0.3914529681205749,-0.7902396321296692
0.0814114585518837,0.3107702732086181,0.0523222386837005,-0.3875048756599426,0.1417222768068313,-0.0823649540543556,0.0,0.0,-0.2577787637710571,0.3511762619018554
0.0818867683410644,0.3018920719623565,0.0516310334205627,-0.3942046165466308,0.1376424133777618,-0.0815972834825515,0.0,0.0,-0.3582124710083008,-0.4538134932518005
0.0823558792471885,0.2928633987903595,0.0509548485279083,-0.4009044468402862,0.1336076110601425,-0.0806960240006446,0.0,0.0,-0.528161346912384,-0.4852937459945678
0.082818791270256,0.2836843729019165,0.0502991788089275,-0.4076042771339416,0.1296247690916061,-0.0796571522951126,0.0,0.0,0.2622926235198974,-0.8218624591827393
0.0831161513924598,0.2749097645282745,0.0320680066943168,-0.3897812664508819,0.1273009628057479,-0.0464758537709713,0.0,0.0,-0.3891037702560425,-0.0877264142036438
0.0834082588553428,0.2659845948219299,0.0314693823456764,-0.3964802920818329,0.1250434219837188,-0.045150626450777,0.0,0.0,0.1239709854125976,-0.3835868239402771
0.0836313217878341,0.2574822902679443,0.0245794877409935,-0.3776938021183014,0.1227861940860748,-0.0451449304819107,0.0,0.0,-0.1167035102844238,0.3004075288772583
0.0838500037789344,0.2488293945789337,0.0240590758621692,-0.3843929171562195,0.120610199868679,-0.0435199029743671,0.0,0.0,0.4018979072570801,-0.3026604652404785
0.0840669646859169,0.2409211695194244,0.0234512612223625,-0.3513374328613281,0.1188647747039794,-0.0349085964262485,0.0,0.0,-0.1002309918403625,-0.4874316453933716
0.0842806845903396,0.2328623086214065,0.0230292119085788,-0.3580365478992462,0.1172161474823951,-0.0329725891351699,0.0,0.0,0.5774927139282227,-0.3804256916046142
0.0843297988176345,0.2257042527198791,0.0068271942436695,-0.3179852664470672,0.1153068095445633,-0.0381866917014122,0.0,0.0,-0.2962744235992431,-0.6582067608833313
0.0843233093619346,0.218384176492691,-0.0002213018306065,-0.3253034651279449,0.1148788332939148,-0.0085594970732927,0.0,0.0,0.2107315063476562,0.1481635570526123
0.0841800719499588,0.2115556299686432,-0.0136055620387196,-0.3034371137619018,0.1141762658953666,-0.0140514522790908,0.0,0.0,0.0406363010406494,-0.4119929075241089
0.0839049369096756,0.2050519585609436,-0.0265068206936121,-0.2889723777770996,0.11316429823637,-0.0202391892671585,0.0,0.0,-0.2776763439178467,0.4305835962295532
0.083630084991455,0.1983978599309921,-0.0266009774059057,-0.295671671628952,0.112289659678936,-0.0174929331988096,0.0,0.0,0.2308540344238281,0.1202044486999511
0.0833712592720985,0.1920107007026672,-0.0253671165555715,-0.2838349640369415,0.1117719635367393,-0.0103536676615476,0.0,0.0,-0.1250332593917846,0.3899164199829101
0.0831145271658897,0.1854731142520904,-0.0253003481775522,-0.2905343770980835,0.1114081069827079,-0.0072772400453686,0.0,0.0,0.3473010063171386,0.1838799715042114
0.0827721580862999,0.179725244641304,-0.0339483618736267,-0.2554376721382141,0.1111199706792831,-0.0057628820650279,0.0,0.0,0.5230896472930908,0.5940868854522705
0.0825345963239669,0.1750397533178329,-0.0227760691195726,-0.2081725299358368,0.110141709446907,-0.0195649955421686,0.0,0.0,0.0469573736190795,-0.2066112160682678
0.0823098197579383,0.170759305357933,-0.0218960978090763,-0.190196081995964,0.1095655485987663,-0.0115232011303305,0.0,0.0,0.0732679367065429,-0.3606706857681274
0.0820285826921463,0.1671185791492462,-0.027705768123269,-0.1617800295352935,0.1091542989015579,-0.0082252081483602,0.0,0.0,-0.444770336151123,0.3586683273315429
0.0817546844482421,0.1633274406194687,-0.0271743945777416,-0.1684796959161758,0.1089376509189605,-0.0043326560407876,0.0,0.0,-0.6181363463401794,-0.2572317123413086
0.0814891830086708,0.1593858748674392,-0.0265410393476486,-0.1751794517040252,0.1089235842227935,-0.0002811340091284,0.0,0.0,-0.4763126969337463,-0.181657612323761
0.0812331214547157,0.1552938967943191,-0.0258031841367483,-0.1818792670965194,0.1091199517250061,0.0039272126741707,0.0,0.0,-0.1508710980415344,0.0424634218215942
0.0809876471757888,0.1510515809059143,-0.0249585434794425,-0.1885791420936584,0.1095344573259353,0.0082898931577801,0.0,0.0,0.1100927591323852,-0.4087376594543457
0.0806982964277267,0.1472212374210357,-0.0295154117047786,-0.1702792197465896,0.1101077049970626,0.0114649068564176,0.0,0.0,0.0220597982406616,-0.2521451711654663
0.0804016143083572,0.1437352299690246,-0.0305546820163726,-0.1549998372793197,0.1109883934259414,0.0176135525107383,0.0,0.0,0.3180599212646484,-0.2022222280502319
0.0801908522844314,0.1405438929796219,-0.0226854234933853,-0.1419588476419448,0.1125914379954338,0.032060831785202,0.0,0.0,-0.3989893794059753,0.3705109357833862
0.0799955353140831,0.1372022181749344,-0.0213956609368324,-0.148659273982048,0.1144419983029365,0.0370113141834735,0.0,0.0,-0.0831533074378967,-0.5751388072967529
0.0797730460762977,0.1337084174156189,-0.0254707131534814,-0.1555327624082565,0.1176445484161377,0.0640511661767959,0.0,0.0,-0.027276873588562,0.869182825088501
0.0796446800231933,0.1300681233406067,-0.0143977999687194,-0.1619140952825546,0.1191942393779754,0.0309939924627542,0.0,0.0,0.1244446039199829,-0.2245262265205383
0.0795516967773437,0.1269152760505676,-0.0114370193332433,-0.1402976214885711,0.1213205754756927,0.0425265207886695,0.0,0.0,-0.3770651817321777,0.3710095882415771
