x_pos,y_pos,x_vel,y_vel,angle,ang_vel,leg_1,leg_2,main_booster,lat_booster
-0.001527214073576,1.403505802154541,-0.1548825800418853,-0.3295219540596008,0.0019400347955524,0.0382821671664714,0.0,0.0,-0.2519841194152832,0.844160795211792
-0.0029859542846679,1.3959922790527344,-0.1461281478404998,-0.3339370787143707,0.0021951196249574,0.005102889612317,0.0,0.0,-0.3734880089759826,0.6595418453216553
-0.0043846131302416,1.388355016708374,-0.1386995166540146,-0.3394335210323334,0.0010448027169331,-0.0230086185038089,0.0,0.0,-0.071360170841217,0.5812474489212036
-0.0057497024536132,1.3805972337722778,-0.1346068233251571,-0.3447897136211395,-0.0008303359500132,-0.0375062450766563,0.0,0.0,-0.2966353297233581,0.1230123043060302
-0.007117748260498,1.3727208375930786,-0.1351156234741211,-0.3500614166259765,-0.0024974995758384,-0.0333466976881027,0.0,0.0,0.0080300569534301,0.3499802350997925
-0.0084041599184274,1.365222692489624,-0.1275729835033416,-0.3332548141479492,-0.0035472202580422,-0.0209965799003839,0.0,0.0,0.3393474817276001,0.8061015605926514
-0.009648990817368,1.358307957649231,-0.121999904513359,-0.3073342442512512,-0.0059944656677544,-0.0489495210349559,0.0,0.0,-0.1271165609359741,-0.0068817734718322
-0.01089649181813,1.351274490356445,-0.1225085258483886,-0.3126097917556762,-0.0082057919353246,-0.0442308112978935,0.0,0.0,-0.4759643077850342,-0.3426216840744018
-0.0121465679258108,1.3441224098205566,-0.1230186074972152,-0.3178794682025909,-0.0101745361462235,-0.0393786057829856,0.0,0.0,-0.5796351432800293,-0.0739385485649108
-0.0133992191404104,1.3368518352508545,-0.1235294789075851,-0.323150485754013,-0.011892850510776,-0.034369371831417,0.0,0.0,-0.4999903440475464,0.3615801334381103
-0.0146544454619288,1.3294627666473389,-0.1240409761667251,-0.3284220695495605,-0.0133537054061889,-0.0292199291288852,0.0,0.0,-0.7904442548751831,0.1661455631256103
-0.0159121509641408,1.3219549655914309,-0.12455315887928,-0.3336935937404632,-0.0145505797117948,-0.0239396579563617,0.0,0.0,-0.5566625595092773,0.6010942459106445
-0.0171145442873239,1.3143303394317627,-0.1178341954946518,-0.3388988077640533,-0.0169263612478971,-0.0475199408829212,0.0,0.0,0.0966700315475463,0.3429560661315918
-0.0182694438844919,1.3069394826889038,-0.1135786548256874,-0.3285060226917267,-0.0188092142343521,-0.0376605503261089,0.0,0.0,-0.6537721157073975,0.6479721069335938
-0.0193634033203125,1.2994346618652344,-0.1061687916517257,-0.3335819542407989,-0.02199687063694,-0.0637591406702995,0.0,0.0,-0.7736842036247253,0.285806655883789
-0.0204595569521188,1.29181170463562,-0.1066739782691001,-0.3388528227806091,-0.0248973723500967,-0.0580149665474891,0.0,0.0,-0.8843568563461304,-0.323974609375
-0.0215578079223632,1.2840698957443235,-0.107179544866085,-0.3441247344017029,-0.027507197111845,-0.0522014386951923,0.0,0.0,-0.7983279228210449,0.3167753219604492
-0.0226580612361431,1.2762094736099243,-0.107684776186943,-0.3493965268135071,-0.0298218391835689,-0.0462973415851593,0.0,0.0,-0.8819818496704102,0.3522493839263916
-0.0237603187561035,1.2682305574417114,-0.1081895008683204,-0.3546682000160217,-0.0318374224007129,-0.0403153337538242,0.0,0.0,-0.698418915271759,0.3830899000167846
-0.0248645786195993,1.2601325511932373,-0.1086935400962829,-0.3599397242069244,-0.0335503406822681,-0.0342614613473415,0.0,0.0,-0.8771237134933472,0.7570741176605225
-0.0258981697261333,1.251918077468872,-0.1000941172242164,-0.3651688992977142,-0.0367793962359428,-0.064587228000164,0.0,0.0,-0.9293965697288512,-0.0552636384963989
-0.0269335750490427,1.2435848712921145,-0.100590668618679,-0.3704409897327423,-0.0396983884274959,-0.0583851747214794,0.0,0.0,-0.9891237616539,-0.3697996139526367
-0.0279708858579397,1.235132932662964,-0.1010861843824386,-0.3757128417491913,-0.0423056222498416,-0.0521493628621101,0.0,0.0,-0.972618043422699,0.567664384841919
-0.0289599411189556,1.2265527248382568,-0.0953165590763092,-0.381442129611969,-0.0458589978516101,-0.0710741356015205,0.0,0.0,-0.917878806591034,-0.2744301557540893
-0.0299506187438964,1.2178540229797363,-0.0958043932914733,-0.3867143094539642,-0.0490946099162101,-0.0647178292274475,0.0,0.0,-0.832217812538147,0.3682249784469604
-0.0309437755495309,1.209015130996704,-0.0963597148656845,-0.3929387032985687,-0.0520112663507461,-0.0583328194916248,0.0,0.0,-0.8652271032333374,0.5159826278686523
-0.0318972580134868,1.2000576257705688,-0.0916896909475326,-0.3982435464859009,-0.0556395836174488,-0.0725661665201187,0.0,0.0,-0.7966707348823547,-0.0290132761001586
-0.0328524596989154,1.1909815073013306,-0.0921752750873565,-0.4035129249095917,-0.0589449442923069,-0.0661074370145797,0.0,0.0,-0.981927454471588,0.4188405275344848
-0.0338091850280761,1.1817865371704102,-0.0926556065678596,-0.4087820053100586,-0.0619256608188152,-0.0596142522990703,0.0,0.0,-0.9831353425979614,0.4098676443099975
-0.034767247736454,1.1724729537963867,-0.0931301638484001,-0.4140508770942688,-0.0645801424980163,-0.0530895367264747,0.0,0.0,-0.9644352793693542,0.3568623065948486
-0.0357268340885639,1.1630406379699707,-0.0935983955860138,-0.4193195104598999,-0.0669069364666938,-0.0465360060334205,0.0,0.0,-0.9877781867980956,0.3839840888977051
-0.0366876609623432,1.1534894704818726,-0.0940596833825111,-0.4245878756046295,-0.0689047276973724,-0.0399560593068599,0.0,0.0,-0.8852499723434448,-0.1236485838890075
-0.0376496315002441,1.1438193321228027,-0.0945133790373802,-0.4298561215400696,-0.0705723464488983,-0.0333521887660026,0.0,0.0,-0.7773662805557251,0.5075032711029053
-0.0385770797729492,1.1340221166610718,-0.0904854759573936,-0.4355403780937195,-0.0728134140372276,-0.0448211953043937,0.0,0.0,-0.9051623344421388,0.411685585975647
-0.0395055785775184,1.1241060495376587,-0.090921901166439,-0.4408086240291595,-0.0747222006320953,-0.0381757691502571,0.0,0.0,-0.7963259816169739,0.2597627639770508
-0.0404350273311138,1.1140711307525637,-0.0913485139608383,-0.4460766017436981,-0.0762978196144104,-0.0315125025808811,0.0,0.0,-0.8833246231079102,0.1370372772216797
-0.0413652434945106,1.103917360305786,-0.0917644947767257,-0.4513444602489471,-0.0775394812226295,-0.0248331613838672,0.0,0.0,-0.7600390315055847,0.1940665245056152
-0.0422961227595806,1.093644618988037,-0.0921689495444297,-0.4566121995449066,-0.078446440398693,-0.018139449879527,0.0,0.0,-0.967229664325714,-0.7483164668083191
-0.0432899482548236,1.0832688808441162,-0.1004094034433364,-0.4610979855060577,-0.0774279460310936,0.020369779318571,0.0,0.0,-0.935083270072937,0.8882596492767334
-0.0442107208073139,1.0727665424346924,-0.0915754213929176,-0.4667916893959045,-0.0779254809021949,-0.0099501833319664,0.0,0.0,-0.9628665447235109,-0.4997099637985229
-0.0451317802071571,1.0621453523635864,-0.091939702630043,-0.4720593094825744,-0.078086607158184,-0.0032225190661847,0.0,0.0,-0.9919089674949646,0.4114089012145996
-0.04605283588171,1.0514053106307983,-0.0922886133193969,-0.4773268699645996,-0.0779109299182891,0.0035136907827109,0.0,0.0,-0.9374013543128968,0.4152083396911621
-0.0469738952815532,1.0405462980270386,-0.092621125280857,-0.4825944304466247,-0.0773980692028999,0.0102571751922369,0.0,0.0,-0.982865869998932,0.0724554061889648
-0.0478946678340435,1.029568433761597,-0.0929362028837204,-0.4878620505332947,-0.0765477418899536,0.017006691545248,0.0,0.0,-0.981037139892578,0.192840576171875
-0.0488149635493755,1.0184714794158936,-0.0932328253984451,-0.4931297302246094,-0.0753596946597099,0.0237611085176467,0.0,0.0,-0.9923528432846068,0.1219179630279541
-0.0497345924377441,1.0072559118270874,-0.0935099944472312,-0.4983974993228912,-0.0738337412476539,0.0305192861706018,0.0,0.0,-0.9878472089767456,0.4022841453552246
-0.0506534576416015,0.9959213733673096,-0.0937667340040206,-0.5036653876304626,-0.0719697400927543,0.0372802056372165,0.0,0.0,-0.9980221390724182,0.8987767696380615
-0.0515130050480365,0.9844712615013124,-0.0867155417799949,-0.508853554725647,-0.0712208300828933,0.014978046528995,0.0,0.0,-0.9877248406410216,0.8265848159790039
-0.0523201003670692,0.9729041457176208,-0.0805106088519096,-0.5141014456748962,-0.0714152380824089,-0.0038880906067788,0.0,0.0,-0.9877344369888306,0.9481410980224608
-0.0530535690486431,0.9612077474594116,-0.0716525241732597,-0.5199226140975952,-0.0730938464403152,-0.033572070300579,0.0,0.0,-0.9401485919952391,0.2539458274841308
-0.0537853240966796,0.949392557144165,-0.0718189626932144,-0.5251906514167786,-0.0744343474507331,-0.0268101841211318,0.0,0.0,-0.982835590839386,0.0287885665893554
-0.0545150749385356,0.9374583959579468,-0.0719611197710037,-0.5304585099220276,-0.0754368677735328,-0.0200503729283809,0.0,0.0,-0.9506822824478148,0.0098463296890258
-0.0552425384521484,0.9254053235054016,-0.07207852602005,-0.5357262492179871,-0.0761015489697456,-0.0132935624569654,0.0,0.0,-0.9998881816864014,0.3449048995971679
-0.0559676177799701,0.9132333993911744,-0.0721708759665489,-0.540993869304657,-0.0764285773038864,-0.0065405815839767,0.0,0.0,-0.9976696968078612,0.4295768737792969
-0.0566899292171001,0.90094256401062,-0.0722379833459854,-0.5462614893913269,-0.0764181837439537,0.0002076834934996,0.0,0.0,-0.9904213547706604,-0.6703692078590393
-0.0574706085026264,0.8885368704795837,-0.0799850672483444,-0.5512688159942627,-0.0745245814323425,0.0378721468150615,0.0,0.0,-0.9997720718383788,0.425769567489624
-0.0582481399178504,0.8760122060775757,-0.0800016969442367,-0.556536853313446,-0.0722941532731056,0.0446085557341575,0.0,0.0,-0.8890274167060852,0.9085888862609864
-0.0589338317513465,0.8633629083633423,-0.0689146444201469,-0.5621753334999084,-0.071950227022171,0.0068783103488385,0.0,0.0,-0.9993189573287964,-0.2351147532463073
-0.0596158020198345,0.8505945801734924,-0.0688816606998443,-0.5674430727958679,-0.0712702497839927,0.0135995019227266,0.0,0.0,-0.9568063020706176,-0.8633976578712463
-0.0603700652718544,0.837723433971405,-0.0784217566251754,-0.5719183683395386,-0.0683161839842796,0.0590813681483268,0.0,0.0,-0.9759564399719238,-0.2152650356292724
-0.0611203201115131,0.8247331976890564,-0.0783411785960197,-0.5771868824958801,-0.0650269985198974,0.0657837465405464,0.0,0.0,-0.9828097224235536,0.7840540409088135
-0.0618142113089561,0.8116234540939331,-0.0717445835471153,-0.5825563073158264,-0.0627032816410064,0.0464742295444011,0.0,0.0,-0.987192928791046,0.1479015350341797
-0.0625036209821701,0.7983949184417725,-0.0716190710663795,-0.5878246426582336,-0.0600455738604068,0.0531541295349597,0.0,0.0,-0.987487494945526,-0.6401669383049011
-0.063236616551876,0.7850531339645386,-0.0775652453303337,-0.5928067564964294,-0.0558300167322158,0.0843111798167228,0.0,0.0,-0.9291343688964844,0.4734997749328613
-0.0639645606279373,0.7715927362442017,-0.0773982852697372,-0.5980764627456665,-0.0512817986309528,0.0909642651677131,0.0,0.0,-0.9974709153175354,0.5916556119918823
-0.0646501556038856,0.7580112814903259,-0.0725495368242263,-0.6034911274909973,-0.0473369993269443,0.0788962915539741,0.0,0.0,-0.920907735824585,0.4752953052520752
-0.0653303116559982,0.7443111538887024,-0.0723447501659393,-0.6087608337402344,-0.0430611073970794,0.0855179280042648,0.0,0.0,-0.9913121461868286,0.185815691947937
-0.0660049468278884,0.7304925322532654,-0.0721225589513778,-0.6140310168266296,-0.0384550094604492,0.0921217054128646,0.0,0.0,-0.9538086652755736,0.8429837226867676
-0.0666039437055587,0.7165612578392029,-0.06311896443367,-0.6190922856330872,-0.0352706462144851,0.0636872947216034,0.0,0.0,-0.9844533205032348,0.1201007366180419
-0.0671970397233963,0.702511191368103,-0.0628647729754448,-0.6243619322776794,-0.0317580923438072,0.070250928401947,0.0,0.0,-0.9356113076210022,0.6751940250396729
-0.0677388161420822,0.6883434057235718,-0.0569106824696064,-0.6296269297599792,-0.0290564410388469,0.0540330782532691,0.0,0.0,-0.9928635358810424,0.4595581293106079
-0.0682744979858398,0.674056887626648,-0.0566283091902732,-0.6348963975906372,-0.0260289702564477,0.0605493076145648,0.0,0.0,-0.9527666568756104,0.4184025526046753
-0.068803884088993,0.6596519351005554,-0.0563332140445709,-0.6401662230491638,-0.0226770378649234,0.0670387297868728,0.0,0.0,-0.9872822165489196,0.3557231426239013
-0.0693268775939941,0.6451284885406494,-0.056026242673397,-0.6454363465309143,-0.0190020836889743,0.0734989121556282,0.0,0.0,-0.8635607957839966,0.7912468910217285
-0.0697845444083213,0.6304786205291748,-0.0483003556728363,-0.6510753035545349,-0.0164916384965181,0.050208855420351,0.0,0.0,-0.843035101890564,0.6747996807098389
-0.0701762214303016,0.6157016158103943,-0.0405236482620239,-0.6567442417144775,-0.0151554476469755,0.0267238467931747,0.0,0.0,-0.9116239547729492,0.9044162034988404
-0.0704936012625694,0.6007953882217407,-0.0316864028573036,-0.6625005602836609,-0.0152061637490987,-0.0010143789695575,0.0,0.0,-0.4149038791656494,-0.2027269601821899
-0.0708043128252029,0.5857704877853394,-0.031339555978775,-0.6677699685096741,-0.0149411438032984,0.0053004687651991,0.0,0.0,-0.775008499622345,0.3739975690841675
-0.071108341217041,0.570626974105835,-0.0309844370931386,-0.6730393767356873,-0.0143626211211085,0.0115704154595732,0.0,0.0,-0.2876108884811401,0.7848474979400635
-0.071354866027832,0.5553716421127319,-0.0242735110223293,-0.6780189275741577,-0.0147426482290029,-0.0076005817390978,0.0,0.0,-0.2013279795646667,0.6548545360565186
-0.0715539902448654,0.5399900674819946,-0.0188053101301193,-0.6836387515068054,-0.0158371590077877,-0.0218902863562107,0.0,0.0,0.0083506107330322,0.7539042234420776
-0.0716503113508224,0.5252180695533752,-0.0073228306137025,-0.6565578579902649,-0.0181117206811904,-0.045491524040699,0.0,0.0,-0.380431056022644,0.2070238590240478
-0.0717396736145019,0.5103275179862976,-0.006940106395632,-0.6618276238441467,-0.0200840421020984,-0.0394465029239654,0.0,0.0,0.2667279243469238,0.8086097240447998
-0.0717955604195594,0.4961008131504059,-0.0022099888883531,-0.6323506832122803,-0.0234136041253805,-0.0665913671255111,0.0,0.0,-0.089119017124176,0.1149097681045532
-0.0718443840742111,0.4817554950714111,-0.0018161755288019,-0.6376208066940308,-0.0264482125639915,-0.0606922917068004,0.0,0.0,0.0707005262374877,-0.771919846534729
-0.0718720406293869,0.4678568840026855,-0.0015866929898038,-0.6177361011505127,-0.0276177302002906,-0.0233901981264352,0.0,0.0,-0.7022988200187683,0.8632829189300537
-0.0718220695853233,0.4538282752037048,0.0077074328437447,-0.623547375202179,-0.0302864629775285,-0.0533745288848876,0.0,0.0,0.0981841087341308,-0.0260047912597656
-0.071695327758789,0.4400794804096222,0.0148013457655906,-0.6111012101173401,-0.0323886573314666,-0.0420439429581165,0.0,0.0,0.1839330196380615,0.4949474334716797
-0.0714429840445518,0.4268204271793365,0.0265839360654354,-0.5893208980560303,-0.0337272621691226,-0.0267718844115734,0.0,0.0,-0.3189959526062011,-0.2351601123809814
-0.0711838752031326,0.4134427309036255,0.0269999410957098,-0.5945900082588196,-0.0347958169877529,-0.0213711932301521,0.0,0.0,0.0907169580459594,-0.3855452537536621
-0.07090425491333,0.4006899893283844,0.0287902690470218,-0.566805899143219,-0.0356180742383003,-0.0164452008903026,0.0,0.0,-0.3771958351135254,0.1869988441467285
-0.0706178694963455,0.3878186047077179,0.0292135179042816,-0.5720749497413635,-0.0361836291849613,-0.0113109853118658,0.0,0.0,0.4826571941375732,0.3965805768966675
-0.0701912865042686,0.3757199048995971,0.0424535721540451,-0.5377177000045776,-0.0359830111265182,0.0040124468505382,0.0,0.0,-0.3313993811607361,0.8397600650787354
-0.0696805939078331,0.3634894788265228,0.0525911822915077,-0.5436124801635742,-0.037492748349905,-0.0301945060491561,0.0,0.0,-0.1419720649719238,-0.0131952166557312
-0.0691632255911827,0.3511403799057007,0.053024161607027,-0.5488817691802979,-0.0387702137231826,-0.0255493074655532,0.0,0.0,-0.3362815380096435,-0.7708345055580139
-0.0686914473772049,0.3386848270893097,0.0469108298420906,-0.5535718202590942,-0.0385057777166366,0.0052890228107571,0.0,0.0,-0.1020312309265136,0.2075120210647583
-0.0682131797075271,0.3261106312274933,0.0473497919738292,-0.5588409900665283,-0.038028709590435,0.0095411520451307,0.0,0.0,0.6530872583389282,0.2122336626052856
-0.067822553217411,0.3146179020404815,0.0389614515006542,-0.5107834339141846,-0.0379259772598743,0.0020548389293253,0.0,0.0,0.509833574295044,0.5045313835144043
-0.0672760978341102,0.3039578795433044,0.0551389083266258,-0.47379070520401,-0.0384136922657489,-0.0097544118762016,0.0,0.0,-0.5450332760810852,-0.5239217281341553
-0.0667683631181716,0.2931856215000152,0.0499355792999267,-0.4787464737892151,-0.0375884026288986,0.0165057778358459,0.0,0.0,-0.0066261887550354,-0.5493225455284119
-0.066303826868534,0.2823014259338379,0.0441962853074073,-0.4836852848529815,-0.0353552848100662,0.0446625426411628,0.0,0.0,-0.0475789308547973,0.5602431297302246
-0.0657907500863075,0.271294504404068,0.0499747544527053,-0.4891636073589325,-0.0340402275323867,0.0263008717447519,0.0,0.0,0.2548582553863525,0.1051862239837646
-0.0653448104858398,0.2608583569526672,0.0435454398393631,-0.463806688785553,-0.0329991355538368,0.0208216607570648,0.0,0.0,-0.1903797388076782,0.4282509088516235
-0.0648929625749588,0.2503035366535187,0.0440035946667194,-0.4690762460231781,-0.031837373971939,0.0232350993901491,0.0,0.0,0.6142740249633789,0.0802450180053711
-0.0643096938729286,0.2406779080629348,0.0565616488456726,-0.4277691841125488,-0.0300921201705932,0.0349050611257553,0.0,0.0,-0.2689846158027649,-0.6503114700317383
-0.0637672394514083,0.2309301197528839,0.051216971129179,-0.4331750869750976,-0.027097575366497,0.059890829026699,0.0,0.0,-0.1903198957443237,0.0628588199615478
-0.0632194504141807,0.221063956618309,0.051682848483324,-0.4384454488754272,-0.0240318104624748,0.0613151080906391,0.0,0.0,-0.1062245368957519,-0.0356030464172363
-0.0626663193106651,0.2110792696475982,0.052151221781969,-0.4437159299850464,-0.0209122840315103,0.0623906031250953,0.0,0.0,0.2539725303649902,0.1620570421218872
-0.0619863495230674,0.2019453793764114,0.0643007606267929,-0.4059019684791565,-0.0172557979822158,0.0731294080615043,0.0,0.0,-0.2088446021080017,0.3488134145736694
-0.0613014213740825,0.1926931291818618,0.0647739693522453,-0.411172866821289,-0.0135813290253281,0.0734894648194313,0.0,0.0,0.268401026725769,-0.6375502943992615
-0.0606596954166889,0.1842702776193618,0.0591755881905555,-0.3743121027946472,-0.0086493631824851,0.0986395254731178,0.0,0.0,-0.3715702295303345,-0.3927927613258362
-0.0600133910775184,0.1757291853427887,0.0596533343195915,-0.3795839250087738,-0.0037356563843786,0.0982740372419357,0.0,0.0,-0.6238536834716797,-0.3748467564582824
-0.0593626983463764,0.1670698672533035,0.0601332187652587,-0.3848557472229004,0.0011417204514145,0.0975474789738655,0.0,0.0,-0.3051532506942749,-0.339653730392456
-0.0587076172232627,0.1582921892404556,0.0606151334941387,-0.3901275396347046,0.0059649036265909,0.0964638516306877,0.0,0.0,-0.3500380516052246,0.5396978855133057
-0.0580148696899414,0.1493951827287674,0.0653161853551864,-0.3954454958438873,0.0098719103261828,0.0781402140855789,0.0,0.0,-0.0875930786132812,0.0842772722244262
-0.0573182106018066,0.1403797417879104,0.0658017322421073,-0.4007164537906647,0.0136900404468178,0.0763625055551529,0.0,0.0,0.0119062662124633,0.5216020345687866
-0.0565631873905658,0.1317361742258072,0.07276152074337,-0.38418710231781,0.0163941718637943,0.0540827885270118,0.0,0.0,-0.0076753497123718,-0.532607913017273
-0.0558374412357807,0.1229684203863143,0.0691143721342086,-0.3897187113761902,0.0198063887655735,0.0682442560791969,0.0,0.0,0.552239179611206,0.5258762836456299
-0.0549810416996479,0.1150521114468574,0.0831233486533165,-0.3518694043159485,0.0222896933555603,0.0496660098433494,0.0,0.0,-0.2736340761184692,-0.7978919744491577
-0.0541819557547569,0.1070230081677436,0.0760121494531631,-0.356911838054657,0.0261411108076572,0.0770281180739402,0.0,0.0,0.1557193994522094,-0.7946054935455322
