x_pos,y_pos,x_vel,y_vel,angle,ang_vel,leg_1,leg_2,main_booster,lat_booster
-0.001460361527279,1.403145670890808,-0.1471304595470428,-0.3455325961112976,0.0009810051415115,0.0192927327007055,0.0,0.0,-0.0958533883094787,0.7766342163085938
-0.0027921677101403,1.394911766052246,-0.1317020505666732,-0.3659495115280151,-0.000480254064314,-0.0292273461818695,0.0,0.0,-0.1160385608673095,-0.2792402505874634
-0.004062938503921,1.3861985206604004,-0.124834343791008,-0.3872549831867218,-0.002689718035981,-0.0441933721303939,0.0,0.0,-0.119255244731903,0.1478388309478759
-0.0052739144302904,1.3770065307617188,-0.1181119456887245,-0.4085416495800018,-0.0056489096023142,-0.0591893792152404,0.0,0.0,-0.1258727312088012,0.5084577798843384
-0.0063783647492527,1.3673372268676758,-0.105458378791809,-0.4297766387462616,-0.0105791389942169,-0.09861371666193,0.0,0.0,0.4824845790863037,-0.3373088836669922
-0.0072980881668627,1.3579185009002686,-0.0868251845240593,-0.4186561405658722,-0.0156706292182207,-0.1018392220139503,0.0,0.0,-0.0043031573295593,-0.8128201365470886
-0.0082296375185251,1.348022699356079,-0.0889413952827453,-0.4398598670959472,-0.0198444407433271,-0.083483874797821,0.0,0.0,-0.4157205820083618,-0.4410165548324585
-0.0091088293120265,1.337648630142212,-0.0829400867223739,-0.4611412584781647,-0.0247699581086635,-0.0985195860266685,0.0,0.0,-0.1428210735321045,-0.2628248929977417
-0.0099377632141113,1.326796531677246,-0.0771567672491073,-0.4824256300926208,-0.0304461810737848,-0.113534465432167,0.0,0.0,-0.4700802564620971,-0.7137545943260193
-0.0107749942690134,1.315473198890686,-0.078659176826477,-0.5033709406852722,-0.035456359386444,-0.1002125740051269,0.0,0.0,-0.8356345891952515,-0.766289472579956
-0.0116185192018747,1.3036749362945557,-0.0798558518290519,-0.5244796276092529,-0.0399153418838977,-0.0891878753900528,0.0,0.0,-0.5032431483268738,-0.9585798978805542
-0.0124862669035792,1.2914005517959597,-0.0832056552171707,-0.5456310510635376,-0.0434464290738105,-0.0706282258033752,0.0,0.0,-0.6664995551109314,-0.8981518149375916
-0.013369751162827,1.278656005859375,-0.085428848862648,-0.566511332988739,-0.0463291630148887,-0.0576596483588218,0.0,0.0,-0.4920157194137573,-0.9182856678962708
-0.0142809869721531,1.2654290199279783,-0.0890817195177078,-0.5879287719726562,-0.0483475364744663,-0.0403712540864944,0.0,0.0,0.0821698904037475,-0.8189712166786194
-0.0150897027924656,1.252537965774536,-0.079775795340538,-0.572964608669281,-0.0494302585721015,-0.0216565690934658,0.0,0.0,-0.3056725263595581,-0.6903362274169922
-0.0159133914858102,1.239163875579834,-0.0816580429673194,-0.5944322943687439,-0.0501379333436489,-0.0141547173261642,0.0,0.0,-0.6728012561798096,-0.7932330369949341
-0.016758918762207,1.2253241539001465,-0.0843142122030258,-0.6151014566421509,-0.0503711327910423,-0.0046645323745906,0.0,0.0,-0.6599732637405396,-0.7274327874183655
-0.0176260955631732,1.2110035419464111,-0.0868477597832679,-0.6364769339561462,-0.0502423532307148,0.0025758021511137,0.0,0.0,-0.4239677786827087,-0.574254035949707
-0.0185126308351755,0.0,-0.0890103727579116,-0.6573618650436401,-0.049893345683813,0.0069808340631425,0.0,0.0,-0.183404266834259,-0.5756328105926514
-0.0194363594055175,1.1809468269348145,-0.0932957306504249,-0.6784447431564331,-0.0489823631942272,0.0182209573686122,0.0,0.0,0.2946267127990722,-0.7703431248664856
-0.0202690120786428,1.1660873889923096,-0.0851358845829963,-0.6603628993034363,-0.0471292398869991,0.0370660610496997,0.0,0.0,-0.0035771131515502,-0.4396799802780151
-0.0210957527160644,1.1507493257522583,-0.083816759288311,-0.6816553473472595,-0.0460054762661457,0.0224771164357662,0.0,0.0,0.0614482164382934,0.1998882293701172
-0.0218216888606548,1.135451316833496,-0.0733835697174072,-0.6798850893974304,-0.0452186167240142,0.0157386250793933,0.0,0.0,-0.4181982278823852,-0.4537727832794189
-0.0225504878908395,1.1196749210357666,-0.0729431062936782,-0.7011741995811462,-0.0451535768806934,0.0013008664827793,0.0,0.0,-0.6147682666778564,-0.2925161123275757
-0.0232865326106548,1.1034200191497805,-0.0729457885026931,-0.722459077835083,-0.0458059124648571,-0.013047955930233,0.0,0.0,-0.3249346017837524,-0.8014855980873108
-0.0241135600954294,1.0866749286651611,-0.0833186730742454,-0.7442067861557007,-0.0451905168592929,0.0123079512268304,0.0,0.0,0.4408481121063232,-0.6208918690681458
-0.0249732974916696,1.0704078674316406,-0.0871373414993286,-0.7229496240615845,-0.0440411791205406,0.0229868255555629,0.0,0.0,0.098514437675476,-0.077813446521759
-0.0259160995483398,1.054490327835083,-0.0943232253193855,-0.7074425220489502,-0.0439992249011993,0.0008388476562686,0.0,0.0,0.5702762603759766,0.2158823013305664
-0.0269751548767089,1.03920578956604,-0.1046526208519935,-0.679345428943634,-0.0452322922646999,-0.0246612466871738,0.0,0.0,-0.1834002137184143,-0.7291240692138672
-0.0281228069216012,1.0234442949295044,-0.1143243908882141,-0.7005248665809631,-0.045661699026823,-0.0085884165018796,0.0,0.0,0.4318649768829345,-0.4938145279884338
-0.0292535778135061,1.008302927017212,-0.1120148673653602,-0.6729888916015625,-0.046708907932043,-0.0209441427141428,0.0,0.0,-0.7641792893409729,-0.8621962666511536
-0.0304982177913188,0.9926834106445312,-0.1246659010648727,-0.6941946744918823,-0.0465084053575992,0.0040099611505866,0.0,0.0,1.0728836059570312e-05,-0.0403418540954589
-0.0318106636404991,0.9773160219192504,-0.1305231750011444,-0.6830178499221802,-0.0472231656312942,-0.014295351691544,0.0,0.0,-0.5321125984191895,-0.7358410358428955
-0.0332317352294921,0.9614681005477904,-0.1423316895961761,-0.7043435573577881,-0.0469996742904186,0.0044696619734168,0.0,0.0,-0.9285261034965516,-0.6468905806541443
-0.0347498878836631,0.9451466798782348,-0.1526298075914383,-0.7253711223602295,-0.0461988113820552,0.0160173866897821,0.0,0.0,-0.408297061920166,0.010764718055725
-0.0363186821341514,0.9283467531204224,-0.157013937830925,-0.7466542720794678,-0.0460684895515441,0.0026066026184707,0.0,0.0,-0.0931226015090942,-0.5928966999053955
-0.0379900932312011,0.911068856716156,-0.1678505688905716,-0.7678834199905396,-0.0453734956681728,0.0139000471681356,0.0,0.0,0.6163356304168701,-0.1002562046051025
-0.0396470054984092,0.8944260478019714,-0.1659022271633148,-0.7396778464317322,-0.0451671853661537,0.0041260439902544,0.0,0.0,0.2448161840438842,-0.536255419254303
-0.0414090156555175,0.8782669901847839,-0.1767527610063552,-0.718159556388855,-0.0446165204048156,0.0110131539404392,0.0,0.0,-0.3917114734649658,0.0923519134521484
-0.043232537806034,0.8616296648979187,-0.1822510361671447,-0.7394424676895142,-0.0447169058024883,-0.0020076660439372,0.0,0.0,-0.8593617677688599,-0.255900502204895
-0.045119859278202,0.8445137739181519,-0.1879830807447433,-0.7607253193855286,-0.0454630851745605,-0.014923445880413,0.0,0.0,-0.6730005741119385,-0.2433598637580871
-0.0470731742680072,0.8269196152687073,-0.1939320564270019,-0.7820082902908325,-0.046849600970745,-0.027730107307434,0.0,0.0,-0.5385915637016296,-0.2222484350204467
-0.0490943901240825,0.8088471293449402,-0.2000818997621536,-0.8032914400100708,-0.048870749771595,-0.040423072874546,0.0,0.0,0.648341178894043,0.0824220180511474
-0.051060676574707,0.7910789847373962,-0.1944086998701095,-0.7897636294364929,-0.0510623082518577,-0.0438311547040939,0.0,0.0,-0.0382990837097168,0.1535228490829467
-0.0530982017517089,0.7728326916694641,-0.2009153068065643,-0.8110472559928894,-0.0538763254880905,-0.056280218064785,0.0,0.0,0.7939412593841553,-0.6151599884033203
-0.0551845543086528,0.7546448707580566,-0.2065330445766449,-0.8084239363670349,-0.0559458509087562,-0.0413903295993804,0.0,0.0,0.4766581058502197,0.6579705476760864
-0.0572111122310161,0.7365640997886658,-0.1987477242946624,-0.8037427067756653,-0.0598149076104164,-0.0773811936378479,0.0,0.0,0.5684876441955566,-0.1022947430610656
-0.0593724250793457,0.7191999554634094,-0.2111078053712844,-0.7719456553459167,-0.0647790431976318,-0.0992825329303741,0.0,0.0,-0.1067994832992553,0.413041353225708
-0.0616103187203407,0.7013577818870544,-0.2181723862886428,-0.7932313680648804,-0.0703369081020355,-0.1111572012305259,0.0,0.0,0.2372655868530273,-0.2137824296951294
-0.0639148727059364,0.683609664440155,-0.2241776436567306,-0.7891159057617188,-0.076553463935852,-0.1243313327431678,0.0,0.0,0.0100657939910888,-0.0169633626937866
-0.0661839470267295,0.665895938873291,-0.2204515039920807,-0.7876228094100952,-0.0829408913850784,-0.1277485787868499,0.0,0.0,0.7344721555709839,0.7120918035507202
-0.0684774369001388,0.6488668322563171,-0.2207575738430023,-0.7573517560958862,-0.0914566218852996,-0.1703145503997802,0.0,0.0,-0.5581779479980469,-0.1961044073104858
-0.0708510428667068,0.6313605308532715,-0.228217676281929,-0.7786425352096558,-0.1005294024944305,-0.1814557015895843,0.0,0.0,0.2862136363983154,-0.0631511211395263
-0.0732406601309776,0.6143038272857666,-0.2292863577604293,-0.7587586045265198,-0.1101369187235832,-0.1921506226062774,0.0,0.0,0.0518144369125366,0.4726849794387817
-0.0755832642316818,0.5972174406051636,-0.224498301744461,-0.7601459622383118,-0.1198404803872108,-0.1940710246562957,0.0,0.0,-0.2871670722961426,-0.3447540998458862
-0.0780077949166297,0.579654335975647,-0.2321763485670089,-0.7814396023750305,-0.130066692829132,-0.2045240402221679,0.0,0.0,0.5323293209075928,-0.6627344489097595
-0.0803756713867187,0.5627116560935974,-0.2275386750698089,-0.7538408041000366,-0.1392792314291,-0.1842506974935531,0.0,0.0,0.8852202892303467,-0.4416007995605469
-0.0825635939836502,0.5464025139808655,-0.2097819298505783,-0.7257140874862671,-0.1482590585947036,-0.1795961558818817,0.0,0.0,0.7651638984680176,-0.3070343732833862
-0.0846256241202354,0.5309039354324341,-0.1971047818660736,-0.6897560954093933,-0.1573505252599716,-0.1818292587995529,0.0,0.0,0.2193847894668579,-0.6344715356826782
-0.0867909416556358,0.5158197283744812,-0.208151176571846,-0.671318769454956,-0.1657337397336959,-0.1676642596721649,0.0,0.0,-0.9578533172607422,-0.2216614484786987
-0.0890400856733322,0.5002585053443909,-0.2160862684249878,-0.6926112771034241,-0.1745655536651611,-0.176636517047882,0.0,0.0,-0.216581106185913,0.583876371383667
-0.0913348197937011,0.4842138290405273,-0.2192662060260772,-0.7143312692642212,-0.1848019212484359,-0.2047276943922042,0.0,0.0,0.2161589860916137,-0.1730023026466369
-0.093554213643074,0.4682289361953735,-0.2117629945278167,-0.7117406725883484,-0.1950299888849258,-0.2045612335205078,0.0,0.0,0.1110483407974243,-0.571388304233551
-0.0958046913146972,0.452382892370224,-0.2156750708818435,-0.7055308222770691,-0.2044741660356521,-0.1888834238052368,0.0,0.0,0.3390905857086181,0.1148906946182251
-0.0980672836303711,0.4365355968475342,-0.2165607661008834,-0.7056980729103088,-0.2142608910799026,-0.1957343518733978,0.0,0.0,0.1220870018005371,-0.2512216567993164
-0.1004109382629394,0.4208268821239471,-0.2239590883255005,-0.6997084021568298,-0.2247866541147232,-0.2105153053998947,0.0,0.0,0.1407597064971923,0.3359225988388061
-0.1026927977800369,0.4055009484291076,-0.2175391018390655,-0.6828113198280334,-0.2355712354183197,-0.2156915664672851,0.0,0.0,0.2374485731124878,-0.1079069375991821
-0.1049478501081466,0.3899966478347778,-0.2148825228214264,-0.6908197402954102,-0.2463751286268234,-0.2160779237747192,0.0,0.0,0.4274736642837524,-0.7015685439109802
-0.107134535908699,0.3751073777675628,-0.2092326879501342,-0.6633571982383728,-0.2559897303581238,-0.1922913044691085,0.0,0.0,0.2038835287094116,-0.7066265344619751
-0.1094474792480468,0.3602892160415649,-0.2229211330413818,-0.660064160823822,-0.2645255625247955,-0.1707163751125335,0.0,0.0,0.8749608993530273,-0.5801427364349365
-0.1117944717407226,0.3461703360080719,-0.2269983291625976,-0.6289152503013611,-0.272414892911911,-0.1577865928411483,0.0,0.0,0.2153656482696533,-0.7189174294471741
-0.1141321212053299,0.3322494029998779,-0.2273356169462204,-0.619922935962677,-0.2790158689022064,-0.1320194900035858,0.0,0.0,0.949847936630249,-0.1431943774223327
-0.1164255142211914,0.3193508982658386,-0.2220590561628341,-0.5746729373931885,-0.2864923179149627,-0.1495296955108642,0.0,0.0,0.2520833015441894,-0.8616043329238892
-0.1186827644705772,0.3066060543060303,-0.2200690507888794,-0.5675588846206665,-0.2923190891742706,-0.1165356263518333,0.0,0.0,0.8378140926361084,-0.8993491530418396
-0.1210073456168174,0.2940499484539032,-0.2283964604139328,-0.5588722825050354,-0.2965114116668701,-0.0838456600904464,0.0,0.0,0.934262752532959,-0.4700246453285217
-0.1232282668352127,0.2815265953540802,-0.2183028012514114,-0.5573701858520508,-0.3004211187362671,-0.0781939402222633,0.0,0.0,0.9850544929504396,-0.6503052711486816
-0.1255010664463043,0.2691437304019928,-0.2246074676513672,-0.5509029626846313,-0.3031767010688782,-0.0551116280257701,0.0,0.0,0.9972145557403564,-0.1953663825988769
-0.1275803595781326,0.2576594352722168,-0.2052016705274582,-0.5109843611717224,-0.306005448102951,-0.0565752275288105,0.0,0.0,0.9811477661132812,-0.3337231874465942
-0.1293566673994064,0.2470522671937942,-0.1753187924623489,-0.4719176888465881,-0.3083868324756622,-0.0476277470588684,0.0,0.0,0.9501783847808838,-0.7434398531913757
-0.1311136186122894,0.2374441027641296,-0.1745815277099609,-0.4272696375846863,-0.3095436096191406,-0.0231356360018253,0.0,0.0,0.6979302167892456,-0.3958431482315063
-0.1329762488603592,0.2279039472341537,-0.1846088916063308,-0.4243596792221069,-0.3112531006336212,-0.0341900028288364,0.0,0.0,0.8741005659103394,-0.4637606143951416
-0.1346030235290527,0.2191440612077713,-0.161323681473732,-0.3896214663982391,-0.3126593828201294,-0.0281256325542926,0.0,0.0,0.9293437004089355,0.2777878046035766
-0.136217787861824,0.2109186947345733,-0.1597165018320083,-0.3659540712833404,-0.3144928514957428,-0.0366688929498195,0.0,0.0,0.9560964107513428,-0.5234379172325134
-0.137770265340805,0.203411728143692,-0.154461458325386,-0.3338151276111603,-0.3153114914894104,-0.0163726042956113,0.0,0.0,0.3981270790100097,-0.3689814805984497
-0.1392305344343185,0.1962737590074539,-0.1453663259744644,-0.3173862993717193,-0.3160010576248169,-0.0137915406376123,0.0,0.0,-0.3757389187812805,-0.5709682703018188
-0.1408088654279709,0.1886741667985916,-0.1583171188831329,-0.3376521170139313,-0.3154920935630798,0.0101790698245167,0.0,0.0,0.3982038497924804,0.169734239578247
-0.1423593461513519,0.1809986233711242,-0.1558515429496765,-0.3409627974033355,-0.3146615624427795,0.0166103336960077,0.0,0.0,0.615561842918396,-0.212245225906372
-0.1437827050685882,0.1733626872301101,-0.1437832415103912,-0.3390609622001648,-0.3131573796272278,0.030083630234003,0.0,0.0,0.7573246955871582,-0.4271246194839477
-0.1449507772922516,0.1660413295030594,-0.1192168369889259,-0.3248740136623382,-0.3106508255004883,0.0501308813691139,0.0,0.0,-0.0221935510635375,-0.3473660349845886
-0.1461992263793945,0.1582399755716323,-0.1275517642498016,-0.3461472392082214,-0.3078423738479614,0.0561687760055065,0.0,0.0,0.8559345006942749,-0.9034042954444884
-0.1473450660705566,0.1512069255113601,-0.1193882226943969,-0.3115715980529785,-0.3028746843338012,0.0993540212512016,0.0,0.0,0.1223256587982177,-0.685535728931427
-0.1484447419643402,0.1444503366947174,-0.116493783891201,-0.298949122428894,-0.296134740114212,0.1347990334033966,0.0,0.0,0.092105746269226,-0.3435683846473694
-0.149416446685791,0.1378108412027359,-0.1044377461075782,-0.2936339974403381,-0.2886472344398498,0.1497502774000167,0.0,0.0,0.4726045131683349,0.2357500791549682
-0.1502984017133712,0.1310717016458511,-0.0962508544325828,-0.2979407906532287,-0.2803574800491333,0.1657953113317489,0.0,0.0,0.3096407651901245,0.4066547155380249
-0.1511876136064529,0.1244523599743843,-0.097195841372013,-0.2926246225833893,-0.2718552052974701,0.170044869184494,0.0,0.0,0.7578065395355225,-0.4576790332794189
-0.1518220901489257,0.1186438426375389,-0.0725650042295456,-0.256488174200058,-0.2625134289264679,0.186834916472435,0.0,0.0,0.6301517486572266,-0.2379815578460693
-0.1524111777544021,0.1131785735487937,-0.0683842599391937,-0.2412322163581848,-0.2528383433818817,0.1935008466243744,0.0,0.0,0.8338700532913208,-0.0698354840278625
-0.1529910117387771,0.1085683926939964,-0.0673010498285293,-0.2033197432756424,-0.2433465868234634,0.1898352205753326,0.0,0.0,0.408001184463501,-0.565687358379364
-0.1534696519374847,0.1043348610401153,-0.058971244841814,-0.1863585263490677,-0.2320616543292999,0.2256987392902374,0.0,0.0,0.6623311042785645,0.5709614753723145
-0.1538636237382888,0.1007330492138862,-0.0497388392686843,-0.1584889441728592,-0.2215868830680847,0.2094958573579788,0.0,0.0,0.3547209501266479,0.9292001724243164
-0.1542030274868011,0.0975586026906967,-0.0428913049399852,-0.1397670209407806,-0.2125371694564819,0.1809942871332168,0.0,0.0,0.0160183906555175,0.8833367824554443
-0.1545043885707855,0.0943346619606018,-0.0378558672964572,-0.1421944797039032,-0.2047539949417114,0.1556638926267624,0.0,0.0,0.2076950073242187,0.7433791160583496
-0.1548296958208084,0.0912891700863838,-0.0391906723380088,-0.1344482153654098,-0.1980477720499038,0.1341244280338287,0.0,0.0,-0.0708673596382141,0.9530751705169678
-0.1551757752895355,0.0877452194690704,-0.0403831116855144,-0.1567485779523849,-0.1922466158866882,0.1160232201218605,0.0,0.0,-0.0152834057807922,0.5055515766143799
-0.1555510461330413,0.0837109684944152,-0.0426448844373226,-0.1786447465419769,-0.1870942413806915,0.1030474677681922,0.0,0.0,0.4690358638763428,0.9426589012145996
-0.1558071076869964,0.0796341523528099,-0.0294591691344976,-0.1807121336460113,-0.1832272559404373,0.0773396715521812,0.0,0.0,0.3418507575988769,0.639460563659668
-0.1558468788862228,0.0759467184543609,-0.0073406300507485,-0.163471832871437,-0.1798429936170578,0.0676849707961082,0.0,0.0,0.2536537647247314,-0.0020820498466491
-0.1558724343776703,0.0726529657840728,-0.0064164386130869,-0.1459238976240158,-0.1759701520204544,0.0774568989872932,0.0,0.0,-0.0903473496437072,0.3075257539749145
-0.1559715270996093,0.0688793510198593,-0.0143548306077718,-0.1671971678733825,-0.1715210378170013,0.0889822393655777,0.0,0.0,0.5835952758789062,0.7892230749130249
-0.155907541513443,0.0654102861881256,0.0028100432828068,-0.1537718027830124,-0.167932391166687,0.071773312985897,0.0,0.0,0.1694194078445434,0.695467472076416
-0.1557702124118805,0.062310442328453,0.0109607875347137,-0.1374603062868118,-0.165150299668312,0.0556418895721435,0.0,0.0,-0.0191847681999206,0.1456916332244873
-0.1557045876979828,0.0587305873632431,0.0031818330753594,-0.1587332338094711,-0.1617731004953384,0.0675439983606338,0.0,0.0,0.3647949695587158,0.751814603805542
-0.1555173844099044,0.0551954358816146,0.0161437541246414,-0.1568416208028793,-0.159196525812149,0.0515314117074012,0.0,0.0,0.2556854486465454,-0.0040182471275329
-0.1554178297519683,0.0518983229994773,0.0071983849629759,-0.1462453305721283,-0.1564449071884155,0.0550322942435741,0.0,0.0,0.3742578029632568,0.7610845565795898
-0.1553801596164703,0.0487675778567791,0.0020989361219108,-0.1389702260494232,-0.1547775268554687,0.0333473645150661,0.0,0.0,0.2606939077377319,0.2749027013778686
-0.1553611755371093,0.0457981191575527,-0.0003088137018494,-0.1317475587129593,-0.1525730788707733,0.0440888106822967,0.0,0.0,0.3693275451660156,0.6155579090118408
-0.1552715301513672,0.0429865941405296,0.0073256641626358,-0.1247914582490921,-0.1509379595518112,0.0327022969722747,0.0,0.0,0.2631494998931885,0.4925365447998047
-0.1551087349653244,0.0400802232325077,0.0135585684329271,-0.1288980841636657,-0.1482216566801071,0.0543260797858238,0.0,0.0,0.5934879779815674,0.7291955947875977
-0.1547547280788421,0.0376398414373397,0.033307384699583,-0.1082546710968017,-0.1461414545774459,0.0416041985154151,0.0,0.0,0.0320894718170166,0.2356672286987304
-0.154376596212387,0.0354638919234275,0.0350257456302642,-0.096437282860279,-0.1433648914098739,0.0555313117802143,0.0,0.0,-0.2207916378974914,0.2996704578399658
