x_pos,y_pos,x_vel,y_vel,angle,ang_vel,leg_1,leg_2,main_booster,lat_booster
-0.0015284537803381,1.403034806251526,-0.154873326420784,-0.3504543304443359,0.0018192935967817,0.0358915701508522,0.0,0.0,0.883354580470386,0.95239543057477
-0.0029246329795569,1.3953676223754885,-0.1396727859973907,-0.3407615125179291,0.001877702306956,0.0011687696678563,0.0,0.0,-0.2057363099075899,-0.8052891328834719
-0.0043794633820652,1.3871041536331177,-0.1468453109264373,-0.3672636747360229,0.0032229761127382,0.026908028870821,0.0,0.0,-0.692291892368788,0.8481330392127024
-0.0057926177978515,1.378248691558838,-0.1413604170083999,-0.3935761749744415,0.0032681417651474,0.0009032025118358,0.0,0.0,-0.4294564352454222,0.7379816639571124
-0.0071495054289698,1.3688064813613892,-0.1339927762746811,-0.4196580350399017,0.0015911229420453,-0.0335433706641197,0.0,0.0,0.9171585743727788,0.9250493521803982
-0.0082753179594874,1.359719157218933,-0.1094355955719947,-0.4038785099983215,-0.0015203293878585,-0.0622349083423614,0.0,0.0,0.6391437825865287,-0.5734711034136036
-0.0094884876161813,1.3509018421173096,-0.1192999705672264,-0.3918865621089935,-0.0035088728182017,-0.0397745892405509,0.0,0.0,-0.3626399017223671,0.627878876745852
-0.010661220178008,1.3414963483810425,-0.1137570887804031,-0.4180308878421783,-0.0069955643266439,-0.0697401687502861,0.0,0.0,-0.871453187908511,-0.6893231552248256
-0.0119132045656442,1.3315095901489258,-0.1231312751770019,-0.4438669383525848,-0.0090336771681904,-0.0407656021416187,0.0,0.0,-0.1210937346691347,0.9271730401290328
-0.0131182670593261,1.3209381103515625,-0.1166561618447303,-0.4698691070079803,-0.0128508014604449,-0.0763494372367858,0.0,0.0,-0.2235801715456622,0.6064271297028752
-0.0142972944304347,1.3097769021987915,-0.1127177253365516,-0.496113657951355,-0.0179824698716402,-0.1026426404714584,0.0,0.0,-0.0642608167809903,0.5032366387096032
-0.0154629703611135,1.29802405834198,-0.1103070154786109,-0.5224324464797974,-0.02416917309165,-0.123745322227478,0.0,0.0,-0.3983376752656093,-0.971796317567356
-0.0167217254638671,1.2856892347335815,-0.1212110072374343,-0.5482977628707886,-0.0287839174270629,-0.0923032015562057,0.0,0.0,0.207582821925873,-0.8062103841543804
-0.0180144309997558,1.2731468677520752,-0.1263475120067596,-0.5574954748153687,-0.0316844657063484,-0.058016050606966,0.0,0.0,-0.8953431831097602,-0.8494085475631026
-0.0193962100893259,1.2600260972976685,-0.1366118490695953,-0.5831771492958069,-0.0332307964563369,-0.0309292916208505,0.0,0.0,0.5094965037737476,0.5634267685625491
-0.0206565856933593,1.246708869934082,-0.1236715540289878,-0.5919343829154968,-0.0355646200478076,-0.0466812402009964,0.0,0.0,0.3907723321132488,-0.7953168418818746
-0.0218657497316598,1.2338870763778689,-0.1204022765159607,-0.5698716640472412,-0.0360692292451858,-0.0100931115448474,0.0,0.0,0.9452027318868929,-0.5971059833672032
-0.0229718200862407,1.221124529838562,-0.1118742004036903,-0.5671926736831665,-0.0348179638385772,0.0250275433063507,0.0,0.0,0.3725139598132181,0.7292707890355374
-0.0239534378051757,1.2087713479995728,-0.0981806591153144,-0.5490319728851318,-0.0348038412630558,0.0002826139389071,0.0,0.0,0.7143938643333516,0.8430959910839613
-0.0249891281127929,1.1967098712921145,-0.1017818450927734,-0.5361125469207764,-0.0365626662969589,-0.0351799353957176,0.0,0.0,-0.5986935588707432,-0.9791353590970344
-0.0261357314884662,1.1840689182281494,-0.1145093068480491,-0.5618156790733337,-0.0367168895900249,-0.003084662137553,0.0,0.0,0.2399728533009484,-0.8955501801026998
-0.0273831374943256,1.1713348627090454,-0.1264568716287613,-0.5659254193305969,-0.0350166372954845,0.0340079888701438,0.0,0.0,-0.1693923741680203,-0.9290712631569904
-0.0287422183901071,1.158012628555298,-0.1391605287790298,-0.5920214056968689,-0.0317973718047142,0.0643911883234977,0.0,0.0,0.6402634530743632,0.7934799248178671
-0.030008029192686,1.1445502042770386,-0.1284539401531219,-0.5982915759086609,-0.0299467127770185,0.0370166227221488,0.0,0.0,0.0909233895337855,0.547494582647257
-0.0313791260123252,1.131139636039734,-0.137774646282196,-0.5960173010826111,-0.0292896404862403,0.013142573647201,0.0,0.0,0.4961515668794216,0.5690427225359513
-0.0328886024653911,1.1180812120437622,-0.1502041220664978,-0.5803903937339783,-0.0300272349268198,-0.0147519875317811,0.0,0.0,0.1368397265727814,0.8651508270039849
-0.0343719497323036,1.1051846742630005,-0.1459176391363144,-0.5732208490371704,-0.0324102193117141,-0.0476598516106605,0.0,0.0,-0.3934290130385935,0.6371238653176992
-0.0358776077628135,1.0917035341262815,-0.1472153663635254,-0.5992364883422852,-0.0357109233736991,-0.0660144239664077,0.0,0.0,-0.7348395948435673,0.611206753996491
-0.0374083518981933,1.0776360034942627,-0.1488533765077591,-0.6253283619880676,-0.0398894622921943,-0.0835706293582916,0.0,0.0,0.3118362741616589,-0.9713220807487772
-0.0390846244990825,1.0635615587234497,-0.1654114872217178,-0.6255974173545837,-0.0420720763504505,-0.0436523035168647,0.0,0.0,0.0579278391791369,0.8176738661836005
-0.0407249443233013,1.049714207649231,-0.1602553278207779,-0.6155468821525574,-0.0458013154566288,-0.074584849178791,0.0,0.0,-0.9944457411766052,-0.7625442743301392
-0.0425003990530967,1.0352776050567627,-0.1755845546722412,-0.6416866183280945,-0.0477443486452102,-0.0388606861233711,0.0,0.0,-0.9574814438819884,-0.5702862739562988
-0.0443950667977333,1.0202605724334717,-0.1888859421014785,-0.6674463152885437,-0.0483225882053375,-0.011564714834094,0.0,0.0,-0.926155924797058,-0.3739678859710693
-0.0463589653372764,1.004653811454773,-0.1958784461021423,-0.6936483383178711,-0.0488274171948432,-0.0100966775789856,0.0,0.0,-0.959878146648407,-0.0486977100372314
-0.0483930595219135,0.9884575605392456,-0.2029708325862884,-0.7198503613471985,-0.049259141087532,-0.0086345616728067,0.0,0.0,-0.5639185905456543,0.2787514925003052
-0.0504982955753803,0.9716715216636658,-0.2101574391126632,-0.7460522055625916,-0.04961808770895,-0.0071791023947298,0.0,0.0,-0.3843228816986084,-0.7215970754623413
-0.0527351386845111,0.9542967677116394,-0.2249129563570022,-0.7721710205078125,-0.0484069436788558,0.0242230407893657,0.0,0.0,-0.6958841681480408,-0.1638292074203491
-0.0550448410212993,0.9363325834274292,-0.2322717905044555,-0.7983732223510742,-0.0471238419413566,0.0256621278822422,0.0,0.0,-0.4438676834106445,0.699913740158081
-0.0573761947453022,0.917782723903656,-0.2331960201263427,-0.8244341611862183,-0.0470696166157722,0.0010846660006791,0.0,0.0,0.4947143793106079,0.3470040559768677
-0.0597305297851562,0.8994655609130859,-0.2356832772493362,-0.814089834690094,-0.0468261800706386,0.0048689539544284,0.0,0.0,0.832852840423584,-0.1425183415412902
-0.062237836420536,0.8818613886833191,-0.2504952251911163,-0.7824165225028992,-0.0470603145658969,-0.0046827206388115,0.0,0.0,-0.4032278060913086,0.5012502670288086
-0.064773179590702,0.8636631369590759,-0.2521526217460632,-0.8088569045066833,-0.0484265983104705,-0.0273254755884408,0.0,0.0,-0.1451947689056396,0.1178030967712402
-0.0673849135637283,0.8448753952980042,-0.2598577737808227,-0.8350589871406555,-0.0497236587107181,-0.0259414259344339,0.0,0.0,0.6510140895843506,0.8718886375427246
-0.0698678940534591,0.8262741565704346,-0.245479866862297,-0.8268137574195862,-0.0525145381689071,-0.0558174140751361,0.0,0.0,-0.5816186666488647,-0.4721747636795044
-0.0724284201860427,0.8070835471153259,-0.2532943189144134,-0.8530163168907166,-0.0552375204861164,-0.054459661245346,0.0,0.0,0.4771978855133056,0.4774973392486572
-0.075009249150753,0.7877475023269653,-0.2555981576442718,-0.8594753742218018,-0.0577033162117004,-0.0493158772587776,0.0,0.0,0.6977901458740234,0.7841802835464478
-0.0775114074349403,0.7684939503669739,-0.2463471889495849,-0.8558627367019653,-0.0615324266254901,-0.0765818059444427,0.0,0.0,0.6710342168807983,0.5634188652038574
-0.0801176056265831,0.7499269247055054,-0.2553585171699524,-0.8254251480102539,-0.0667325183749198,-0.1040019020438194,0.0,0.0,0.1072407960891723,0.6782008409500122
-0.082814410328865,0.7315720319747925,-0.2630161643028259,-0.8160852789878845,-0.0733302906155586,-0.1319551914930343,0.0,0.0,0.7835066318511963,0.3197073936462402
-0.0855733901262283,0.7134520411491394,-0.2691909670829773,-0.805677592754364,-0.0799694433808326,-0.1327832490205764,0.0,0.0,0.1132715940475463,0.2714806795120239
-0.0882852524518966,0.6953067183494568,-0.264993816614151,-0.8068028688430786,-0.0860979408025741,-0.1225698962807655,0.0,0.0,0.6758692264556885,0.6579245328903198
-0.0910240188241005,0.6776949763298035,-0.2662921547889709,-0.7831990718841553,-0.0936180651187896,-0.1504027545452118,0.0,0.0,-0.3050817847251892,0.8924317359924316
-0.0937605872750282,0.659477949142456,-0.2640188932418823,-0.8102779984474182,-0.1031794697046279,-0.1912284195423126,0.0,0.0,0.8617300987243652,0.739814281463623
-0.0964227691292762,0.6420109868049622,-0.255170613527298,-0.7771093845367432,-0.1141435429453849,-0.2192816734313964,0.0,0.0,-0.6119186878204346,0.2317912578582763
-0.0991658195853233,0.6239560842514038,-0.2633421421051025,-0.803321123123169,-0.1250470280647277,-0.2180696427822113,0.0,0.0,0.9152615070343018,-0.316916286945343
-0.1020318046212196,0.6061468720436096,-0.2751961648464203,-0.7925230860710144,-0.1364031136035919,-0.2271214723587036,0.0,0.0,0.6515035629272461,0.9207911491394044
-0.1046934127807617,0.5889057517051697,-0.253148078918457,-0.7675139904022217,-0.1493885964155197,-0.2597095966339111,0.0,0.0,0.4905649423599243,0.4005701541900635
-0.1072229370474815,0.5719519257545471,-0.2405851185321808,-0.7547933459281921,-0.1617397516965866,-0.2470229566097259,0.0,0.0,0.674302339553833,-0.790285050868988
-0.1096779853105545,0.5556482672691345,-0.2349662333726883,-0.7257881164550781,-0.1722924709320068,-0.2110544890165329,0.0,0.0,0.675041913986206,-0.153260052204132
-0.1121543869376182,0.5399536490440369,-0.2368145436048507,-0.6988319158554077,-0.1831455826759338,-0.2170621901750564,0.0,0.0,-0.5497400164604187,0.0439091920852661
-0.114712618291378,0.5236708521842957,-0.2450845688581466,-0.7250430583953857,-0.19394251704216,-0.2159390449523925,0.0,0.0,0.4794553518295288,0.2178157567977905
-0.1173199638724327,0.5077503323554993,-0.2496547698974609,-0.7090653777122498,-0.2050993889570236,-0.2231374084949493,0.0,0.0,0.2994198799133301,0.3679275512695312
-0.1198314651846885,0.4918094277381897,-0.2405917942523956,-0.7099851369857788,-0.2157521098852157,-0.2130543440580368,0.0,0.0,0.1149061918258667,-0.6734433174133301
-0.1223708167672157,0.4758983552455902,-0.2448118478059768,-0.7085152864456177,-0.2249740660190582,-0.1844391971826553,0.0,0.0,-0.5518484115600586,0.5708799362182617
-0.124948501586914,0.4593795239925384,-0.247571587562561,-0.7357608675956726,-0.2353109270334243,-0.2067377865314483,0.0,0.0,0.6966992616653442,-0.420454740524292
-0.127590462565422,0.4432022273540497,-0.2535019814968109,-0.7207385301589966,-0.2461829632520675,-0.2174408137798309,0.0,0.0,0.6793107986450195,0.2350965738296508
-0.1300814598798751,0.4276942014694214,-0.2385836094617843,-0.6910440921783447,-0.256901741027832,-0.2143752127885818,0.0,0.0,0.3109216690063476,-0.4552645683288574
-0.1325327903032302,0.4119096398353576,-0.2349823415279388,-0.7033442258834839,-0.2672673463821411,-0.2073129415512085,0.0,0.0,0.9038875102996826,-0.6123408675193787
-0.1348195075988769,0.3969725966453552,-0.2199108302593231,-0.6654947400093079,-0.2762467265129089,-0.1795871704816818,0.0,0.0,0.819439172744751,-0.7839840650558472
-0.1372154206037521,0.3822672367095947,-0.23221156001091,-0.6549803018569946,-0.2838198542594909,-0.1514628678560257,0.0,0.0,0.8836710453033447,0.0006467103958129
-0.1395776718854904,0.368128627538681,-0.2284541577100753,-0.6299149394035339,-0.2918269634246826,-0.1601418852806091,0.0,0.0,0.5442945957183838,-0.7999268770217896
-0.1418841332197189,0.354251503944397,-0.2245596945285797,-0.6179945468902588,-0.2981071174144745,-0.1256031543016433,0.0,0.0,0.946608066558838,-0.6796835064888
-0.1441861093044281,0.3413145542144775,-0.225110650062561,-0.5760269165039062,-0.3033539354801178,-0.1049360856413841,0.0,0.0,0.5669667720794678,-0.7663297057151794
-0.1463903486728668,0.3285646140575409,-0.2170386016368866,-0.5673758387565613,-0.30685955286026,-0.0701120942831039,0.0,0.0,0.7722766399383545,-0.3720656037330627
-0.148584172129631,0.3158413469791412,-0.2158863842487335,-0.5662216544151306,-0.310483306646347,-0.0724750086665153,0.0,0.0,0.973297119140625,-0.8184816837310791
-0.1507200300693512,0.3030636608600616,-0.2119142711162567,-0.5682520270347595,-0.3122120499610901,-0.0345756933093071,0.0,0.0,0.9976363182067872,-0.8508248329162598
-0.1529165208339691,0.2903242409229278,-0.2196105718612671,-0.5662071704864502,-0.3122526109218597,-0.0008110579801723,0.0,0.0,0.9960788488388062,0.0835280418395996
-0.1549095213413238,0.2783676087856293,-0.1992612481117248,-0.5314128398895264,-0.312291145324707,-0.0007709531346336,0.0,0.0,0.9929546117782592,-0.2646058797836303
-0.1565892249345779,0.2671815156936645,-0.1684184670448303,-0.4970686733722687,-0.311834305524826,0.0091365855187177,0.0,0.0,0.9995992183685304,-0.5429167747497559
-0.1582225859165191,0.2569088637828827,-0.1644911020994186,-0.4563146829605102,-0.3106385171413421,0.0239158514887094,0.0,0.0,0.9841349124908448,0.8843109607696533
-0.1599126756191253,0.2466520816087722,-0.1681437194347381,-0.4560403227806091,-0.3115370869636535,-0.0179711040109395,0.0,0.0,0.9487800598144532,-0.0939561128616333
-0.1613517701625824,0.2371150106191635,-0.1433037966489792,-0.4239988923072815,-0.3121666014194488,-0.0125901475548744,0.0,0.0,0.9774565696716307,-0.2193139195442199
-0.1627744734287262,0.2280274033546447,-0.1411718130111694,-0.4041309058666229,-0.3133080899715423,-0.022829633206129,0.0,0.0,0.9681074619293212,-0.0439044833183288
-0.1640897691249847,0.2195324450731277,-0.1301886290311813,-0.3778440654277801,-0.3147025108337402,-0.0278884973376989,0.0,0.0,0.6900626420974731,-0.1827718019485473
-0.1652742326259613,0.2114738076925277,-0.1170938462018966,-0.3584589958190918,-0.3161042332649231,-0.0280349142849445,0.0,0.0,0.8020961284637451,-0.893866240978241
-0.1663064956665039,0.2037139236927032,-0.1038545817136764,-0.3447473347187042,-0.3154574930667877,0.012934667058289,0.0,0.0,0.7691123485565186,-0.8510003089904785
-0.1673419028520584,0.1958972513675689,-0.1059145778417587,-0.3468933403491974,-0.3129856288433075,0.0494373366236686,0.0,0.0,0.6809978485107422,-0.4241039156913757
-0.1682386398315429,0.1880319416522979,-0.0925212055444717,-0.3489566743373871,-0.3100272119045257,0.0591681897640228,0.0,0.0,0.628656268119812,-0.2557109594345093
-0.1689020097255706,0.180314764380455,-0.0698988810181617,-0.3422308266162872,-0.3063476979732513,0.0735900402069091,0.0,0.0,0.6714786291122437,-0.8521226644515991
-0.1694371253252029,0.1725321412086486,-0.0590319819748401,-0.344742864370346,-0.3006385564804077,0.1141826659440994,0.0,0.0,-0.3839586973190307,-0.6701511740684509
-0.1700972616672516,0.1641885340213775,-0.0729320272803306,-0.3694124519824981,-0.2934972047805786,0.142827033996582,0.0,0.0,0.5174261331558228,-0.081314742565155
-0.1706028878688812,0.1562439799308776,-0.0576775968074798,-0.3516798615455627,-0.2861731648445129,0.1464808285236358,0.0,0.0,0.7244898080825806,0.0855791568756103
-0.1708607673645019,0.1486571878194809,-0.0335425660014152,-0.3356862962245941,-0.2781962454319,0.1595392525196075,0.0,0.0,0.933479070663452,-0.3276829719543457
-0.1709727346897125,0.1409839242696762,-0.0195461027324199,-0.3394632041454315,-0.2696213722229004,0.1714977025985717,0.0,0.0,0.5335712432861328,-0.7542541027069092
-0.1711396276950836,0.1334487795829773,-0.0265350304543972,-0.3331165015697479,-0.2595604658126831,0.2012175768613815,0.0,0.0,0.7425836324691772,-0.2133453488349914
-0.1710569411516189,0.1266101449728012,-0.0020509250462055,-0.3021466135978699,-0.2490340024232864,0.2105296403169632,0.0,0.0,0.5491640567779541,-0.4986426830291748
-0.1709328591823578,0.1199671328067779,0.0021069524809718,-0.2935346662998199,-0.2385556548833847,0.2095670402050018,0.0,0.0,0.6171650886535645,-0.2410910129547119
-0.1708107888698578,0.113913856446743,0.0023828113917261,-0.2674751281738281,-0.2285874634981155,0.1993638724088668,0.0,0.0,0.7278009653091431,-0.6328310966491699
-0.1705419570207595,0.1083252057433128,0.0154809774830937,-0.2466567903757095,-0.2170510292053222,0.2307287901639938,0.0,0.0,0.5309817790985107,-0.1810659170150756
-0.170236587524414,0.1031830906867981,0.0192877072840929,-0.2269278019666671,-0.2056902945041656,0.2272145003080368,0.0,0.0,0.4604811668395996,-0.3338031768798828
-0.1699306517839431,0.0984472334384918,0.0196013189852237,-0.2089923769235611,-0.1946139335632324,0.2215273678302765,0.0,0.0,0.4325405359268188,-0.751653790473938
-0.169684499502182,0.0937807634472847,0.0120715023949742,-0.2058038264513015,-0.1820132285356521,0.2520144581794739,0.0,0.0,0.6354153156280518,0.102879524230957
-0.1695035994052887,0.0894361585378646,0.0060095475055277,-0.1916581690311432,-0.1698926240205764,0.2424120455980301,0.0,0.0,0.4192149639129638,0.173770785331726
-0.1694311201572418,0.0852016285061836,-0.0043331165798008,-0.1869208365678787,-0.1583159118890762,0.2315341681241989,0.0,0.0,0.5573749542236328,0.0412551164627075
-0.1692085266113281,0.0813590586185455,0.0101603548973798,-0.1695388704538345,-0.1462234258651733,0.241849809885025,0.0,0.0,0.0208058357238769,0.6741321086883545
-0.1689103096723556,0.0772399008274078,0.0189483184367418,-0.1820427626371383,-0.1353904008865356,0.2166602611541748,0.0,0.0,0.6434500217437744,-0.0026529431343078
-0.1684169769287109,0.0736313685774803,0.0377241261303424,-0.1593609154224395,-0.1238365769386291,0.2310765981674194,0.0,0.0,0.119522213935852,0.3865535259246826
-0.1679217368364334,0.0702206715941429,0.0379258245229721,-0.1506640166044235,-0.1123014912009239,0.2307017147541046,0.0,0.0,0.1917552947998047,0.2656363248825073
-0.167299747467041,0.0671236142516136,0.0500402823090553,-0.1367761939764022,-0.1002379059791565,0.241271823644638,0.0,0.0,0.0328707695007324,0.4883270263671875
-0.1666359007358551,0.0639725551009178,0.0539488866925239,-0.1392576098442077,-0.0879019051790237,0.2467201948165893,0.0,0.0,-0.0220162868499755,0.8698077201843262
-0.1659422814846038,0.0602333396673202,0.0585773400962352,-0.1655859947204589,-0.0772245824337005,0.213546484708786,0.0,0.0,0.5219407081604004,0.8050415515899658
-0.1651020050048828,0.0569833628833293,0.0747093111276626,-0.1439870744943618,-0.0680015757679939,0.1844604164361953,0.0,0.0,0.2528972625732422,0.6044782400131226
-0.1641550064086914,0.0536504834890365,0.0864232555031776,-0.1477762162685394,-0.0598119422793388,0.163792997598648,0.0,0.0,0.2132112979888916,0.7763333320617676
-0.1632497757673263,0.0504135228693485,0.083860382437706,-0.1436133086681366,-0.0532206892967224,0.1318247318267822,0.0,0.0,0.2320117950439453,0.5797033309936523
-0.1624080687761306,0.0471656173467636,0.0788210332393646,-0.1441691070795059,-0.0479332506656646,0.1057489663362503,0.0,0.0,0.663618803024292,0.947927951812744
-0.1615090370178222,0.044174775481224,0.0864469483494758,-0.1328222900629043,-0.0445192381739616,0.0682804808020591,0.0,0.0,0.5210998058319092,0.7461355924606323
-0.1605191230773925,0.0413232669234275,0.0969381555914878,-0.1266733109951019,-0.0424990728497505,0.0404035411775112,0.0,0.0,0.448171854019165,0.729607343673706
-0.1593439131975174,0.0383362136781215,0.1166953220963478,-0.132735788822174,-0.0416738577187061,0.0165041331201791,0.0,0.0,0.5181169509887695,0.3722176551818847
-0.1580610275268554,0.0356956347823143,0.1269949078559875,-0.1173242628574371,-0.040393017232418,0.0256165899336338,0.0,0.0,0.14569091796875,0.0452063083648681
-0.1567419022321701,0.0333028174936771,0.1304921209812164,-0.1063102185726165,-0.0389920473098754,0.0280194245278835,0.0,0.0,0.0225191116333007,0.2476141452789306
