x_pos,y_pos,x_vel,y_vel,angle,ang_vel,leg_1,leg_2,main_booster,lat_booster
-0.0015100479358807,1.403332233428955,-0.1531553119421005,-0.3372397422790527,0.0019234119681641,0.0379530973732471,0.0,0.0,-0.3554369211196899,0.8833979368209839
-0.0029311180114746,1.3954710960388184,-0.1422395557165146,-0.3493803441524505,0.0020491266623139,0.0025152876041829,0.0,0.0,0.0646448135375976,0.6089059114456177
-0.0041944505646824,1.3877038955688477,-0.1255241334438324,-0.345212459564209,0.0012525086058303,-0.0159340128302574,0.0,0.0,0.3239412307739258,0.5359622240066528
-0.0055060386657714,1.3802428245544434,-0.1291494071483612,-0.3315978646278381,-0.0007319001015275,-0.0396917052567005,0.0,0.0,-0.1151193976402282,-0.5328468680381775
-0.0068366052582859,1.3724913597106934,-0.1319996416568756,-0.3445144295692444,-0.0017789506819099,-0.0209430698305368,0.0,0.0,0.0640454292297363,0.0108187198638916
-0.0080642700195312,1.3649719953536987,-0.1222297400236129,-0.3341922760009765,-0.0023110071197152,-0.0106423450633883,0.0,0.0,-0.307788074016571,0.700036883354187
-0.0092250825837254,1.3571603298187256,-0.1142711788415908,-0.3471959233283996,-0.0040987385436892,-0.0357579104602336,0.0,0.0,-0.5003458857536316,0.3147292137145996
-0.0103720668703317,1.3490562438964844,-0.1129507422447204,-0.3601830899715423,-0.0058221402578055,-0.0344712361693382,0.0,0.0,-0.5530248284339905,0.1932072639465332
-0.0115052219480276,1.3406600952148438,-0.1116214841604232,-0.373171716928482,-0.0074975755997002,-0.0335119888186454,0.0,0.0,-0.682583749294281,0.7412436008453369
-0.0125663755461573,1.3319756984710691,-0.1029664650559425,-0.3859921395778656,-0.0106067406013607,-0.062189120799303,0.0,0.0,-0.3856868743896484,-0.5030367374420166
-0.0136477472260594,1.3229999542236328,-0.105879321694374,-0.3989361822605133,-0.0128436591476202,-0.044742077589035,0.0,0.0,-0.8140746355056763,0.0808678865432739
-0.0147157665342092,1.3137322664260864,-0.1045283675193786,-0.411925733089447,-0.0150798084214329,-0.0447273328900337,0.0,0.0,-0.928045094013214,0.3638859987258911
-0.0157702453434467,1.3041722774505615,-0.1031730771064758,-0.4249153733253479,-0.0173300486057996,-0.0450087450444698,0.0,0.0,-0.5105673670768738,0.9333707094192504
-0.016729449853301,1.294309377670288,-0.091534212231636,-0.4384105801582336,-0.0216735638678073,-0.0868782103061676,0.0,0.0,-0.4764752984046936,0.4455517530441284
-0.017675494775176,1.2841544151306152,-0.0901685208082199,-0.4514012932777405,-0.0260610226541757,-0.0877571329474449,0.0,0.0,-0.152481198310852,-0.4099915027618408
-0.0186084751039743,1.273707389831543,-0.0888038426637649,-0.4643925428390503,-0.0305087827146053,-0.0889632850885391,0.0,0.0,-0.9391891360282898,-0.5668431520462036
-0.0195629112422466,1.2629766464233398,-0.0917553901672363,-0.4770024716854095,-0.0341624841094017,-0.0730803310871124,0.0,0.0,-0.4644985795021057,-0.1736792922019958
-0.0205047614872455,1.2519538402557373,-0.09039818495512,-0.4899932742118835,-0.0379055589437484,-0.074868157505989,0.0,0.0,-0.8660919070243835,-0.6843977570533752
-0.0214792247861623,1.2406480312347412,-0.0947139263153076,-0.5025537610054016,-0.0406102314591407,-0.0540980398654937,0.0,0.0,-0.2037538290023803,-0.9749245047569276
-0.0225287433713674,1.2290548086166382,-0.1043200492858886,-0.5152689218521118,-0.0412356741726398,-0.0125102158635854,0.0,0.0,-0.0565639734268188,0.3769874572753906
-0.0235663410276174,1.2171694040298462,-0.1029922142624855,-0.5282589793205261,-0.0419912673532962,-0.0151134356856346,0.0,0.0,-0.1048123836517334,-0.2824195623397827
-0.0245922096073627,1.2049919366836548,-0.1016739830374717,-0.54124915599823,-0.0428881049156188,-0.0179382357746362,0.0,0.0,-0.1854110360145568,-0.833916425704956
-0.0256582256406545,1.1925244331359863,-0.1068546995520591,-0.5541051626205444,-0.0426376610994339,0.0050090183503925,0.0,0.0,-0.5755957365036011,-0.4678286910057068
-0.0267129894345998,1.1797648668289185,-0.1055656671524047,-0.5670951008796692,-0.0425522699952125,0.0017078954260796,0.0,0.0,0.0778738260269165,0.2193554639816284
-0.0278315544128417,1.1673481464385986,-0.1113286390900611,-0.5518677234649658,-0.0430711321532726,-0.0103781875222921,0.0,0.0,0.4470041990280151,-0.0095252990722656
-0.0290409084409475,1.1555501222610474,-0.1196309924125671,-0.5243911743164062,-0.0443650372326374,-0.0258780755102634,0.0,0.0,-0.6986787915229797,0.245166540145874
-0.0302399639040231,1.1434601545333862,-0.1183940321207046,-0.5373793244361877,-0.0458528064191341,-0.0297556854784488,0.0,0.0,-0.02560555934906,-0.5574610233306885
-0.0314823165535926,1.1310875415802002,-0.123890683054924,-0.5499048829078674,-0.0461922995746135,-0.0067898975685238,0.0,0.0,-0.6643227338790894,0.7832357883453369
-0.0326662063598632,1.118425965309143,-0.116594098508358,-0.5627934336662292,-0.047961913049221,-0.0353921614587307,0.0,0.0,-0.2263917922973632,-0.3755514621734619
-0.0338406562805175,1.105472207069397,-0.1154291629791259,-0.5757819414138794,-0.0499494150280952,-0.0397501587867736,0.0,0.0,-0.7947037816047668,-0.3817365169525146
-0.0350059494376182,1.092226505279541,-0.1142924800515174,-0.5887706279754639,-0.0521617457270622,-0.0442465618252754,0.0,0.0,-0.5933794379234314,0.2575960159301758
-0.0361624732613563,1.0786888599395752,-0.1131862178444862,-0.6017593741416931,-0.0546053126454353,-0.0488710775971412,0.0,0.0,-0.9148756861686708,-0.9330981969833374
-0.0373942367732524,1.0648748874664309,-0.1226005181670188,-0.6139761805534363,-0.055172823369503,-0.0113503728061914,0.0,0.0,-0.8745328187942505,0.2345311641693115
-0.0386180877685546,1.0507688522338867,-0.1215617433190345,-0.6269646883010864,-0.0559829883277416,-0.0162033699452877,0.0,0.0,-0.9589648842811584,-0.2838286161422729
-0.0398344025015831,1.0363707542419434,-0.1205601245164871,-0.6399533152580261,-0.0570408441126346,-0.0211572833359241,0.0,0.0,-0.8288156986236572,-0.6615888476371765
-0.0410941131412982,1.0216901302337646,-0.1259396076202392,-0.652479887008667,-0.0570731274783611,-0.000645657768473,0.0,0.0,-0.7815489172935486,-0.0681116580963134
-0.0423472411930561,1.006717324256897,-0.1250192373991012,-0.6654685139656067,-0.0573619902133941,-0.0057774125598371,0.0,0.0,-0.810111939907074,-0.4909367561340332
-0.0435941703617572,0.9914526343345642,-0.1241430416703224,-0.6784571409225464,-0.0579113587737083,-0.0109871234744787,0.0,0.0,-0.7556081414222717,-0.4115132689476013
-0.0448355674743652,0.9758958220481871,-0.1233133822679519,-0.6914457678794861,-0.0587247647345066,-0.0162679683417081,0.0,0.0,-0.3218419551849365,-0.817177414894104
-0.0461333282291889,0.9600534439086914,-0.1302485018968582,-0.7040857672691345,-0.0582551434636116,0.0093923080712556,0.0,0.0,-0.4673442244529724,0.0488573312759399
-0.0474265106022357,0.9439191222190856,-0.1295190006494522,-0.7170745730400085,-0.0580557696521282,0.0039875824004411,0.0,0.0,0.435302734375,-0.263189435005188
-0.0485821738839149,0.9281644821166992,-0.1160000562667846,-0.7001901865005493,-0.0576333552598953,0.0084485542029142,0.0,0.0,-0.7718183994293213,-0.0246657133102417
-0.0497344024479389,0.9121178984642028,-0.1153801679611206,-0.7131788730621338,-0.0574862584471702,0.0029421621002256,0.0,0.0,-0.3527109622955322,-0.1191688179969787
-0.0508839599788188,0.8957793116569519,-0.1148185729980468,-0.726167619228363,-0.0576166436076164,-0.0026077269576489,0.0,0.0,0.2943265438079834,-0.5454718470573425
-0.0520959869027137,0.8794943690299988,-0.1218151077628135,-0.723749577999115,-0.0570162534713745,0.012008061632514,0.0,0.0,0.2175729274749755,-0.6316098570823669
-0.0533050522208213,0.8632810711860657,-0.1225588768720626,-0.720535933971405,-0.0553806237876415,0.0327124968171119,0.0,0.0,-0.6790926456451416,-0.2542228698730469
-0.0545131675899028,0.8467757105827332,-0.1221855655312538,-0.7335249185562134,-0.0540277399122715,0.0270576532930135,0.0,0.0,-0.8527089357376099,0.2732942104339599
-0.0557211861014366,0.829978346824646,-0.1218792349100112,-0.7465136647224426,-0.0529589653015136,0.0213754661381244,0.0,0.0,-0.2706747055053711,-0.2438394427299499
-0.0569296851754188,0.8128888607025146,-0.1216418594121933,-0.7595024704933167,-0.0521754957735538,0.0156693551689386,0.0,0.0,-0.4200837612152099,-0.0441074967384338
-0.0581394210457801,0.7955076098442078,-0.121475338935852,-0.7724911570549011,-0.0516783706843853,0.0099423825740814,0.0,0.0,0.0591987371444702,0.1462959051132202
-0.0592403411865234,0.7783753275871277,-0.1107353344559669,-0.7614072561264038,-0.0510431192815303,0.0127053167670965,0.0,0.0,-0.0429609417915344,-0.3227619528770447
-0.0603439323604106,0.7609511613845825,-0.1107155457139015,-0.7743958830833435,-0.050695851445198,0.0069453394971787,0.0,0.0,-0.3387378454208374,-0.6014798283576965
-0.0614900588989257,0.7432346940040588,-0.1156644597649574,-0.7873679995536804,-0.0496582724153995,0.0207518152892589,0.0,0.0,0.740075945854187,0.4734444618225097
-0.0625953674316406,0.7264845371246338,-0.1113036423921585,-0.7444265484809875,-0.0488943196833133,0.0152790937572717,0.0,0.0,-0.5581342577934265,0.1961541175842285
-0.0637057274580001,0.7094423174858093,-0.1115143746137619,-0.7574150562286377,-0.048419889062643,0.0094883646816015,0.0,0.0,0.6217536926269531,-0.0018050670623779
-0.0648931488394737,0.6928080320358276,-0.118493340909481,-0.7393158674240112,-0.0486692190170288,-0.0049864226020872,0.0,0.0,0.0728545188903808,-0.0792575478553772
-0.0660010352730751,0.6766523718833923,-0.1105306968092918,-0.7180310487747192,-0.0489261820912361,-0.0051391790620982,0.0,0.0,-0.1562757492065429,-0.3525736927986145
-0.0671163573861122,0.6602049469947815,-0.1109800487756729,-0.7310196161270142,-0.0494732707738876,-0.0109418658539652,0.0,0.0,0.3306756019592285,-0.2222012281417846
-0.0681470856070518,0.6444544196128845,-0.1024990305304527,-0.7000424265861511,-0.0500321574509143,-0.0111778648570179,0.0,0.0,-0.6873498558998108,0.4194833040237427
-0.0691867843270301,0.6284118294715881,-0.1031092405319213,-0.7130310535430908,-0.0508811399340629,-0.0169796906411647,0.0,0.0,-0.5436494946479797,0.702112078666687
-0.0701762214303016,0.6120666861534119,-0.096265509724617,-0.7265468239784241,-0.0535371340811252,-0.0531196482479572,0.0,0.0,-0.0466382503509521,0.2702395915985107
-0.0711764320731163,0.595429539680481,-0.0970359593629837,-0.7395360469818115,-0.0564828664064407,-0.0589146129786968,0.0,0.0,0.7072811126708984,-0.3831221461296081
-0.0720303505659103,0.5792901515960693,-0.0827210023999214,-0.7174111604690552,-0.0591276958584785,-0.052896749228239,0.0,0.0,0.267494797706604,0.4181749820709228
-0.0728507041931152,0.5635613203048706,-0.0791486948728561,-0.6991736888885498,-0.0619780719280242,-0.0570074506103992,0.0,0.0,0.396442174911499,-0.2517787218093872
-0.073656365275383,0.5480472445487976,-0.0774259269237518,-0.6896451711654663,-0.0650866031646728,-0.0621709711849689,0.0,0.0,0.5227742195129395,-0.5379471182823181
-0.0746053680777549,0.5330732464790344,-0.0922401770949363,-0.6656312942504883,-0.0677201673388481,-0.0526714846491813,0.0,0.0,-0.3695001602172851,0.5306382179260254
-0.0755252838134765,0.5178092122077942,-0.0879247933626174,-0.6785926222801208,-0.0717341676354408,-0.0802802070975303,0.0,0.0,0.1832379102706909,-0.2902377843856811
-0.0763866454362869,0.5025604367256165,-0.0820644944906234,-0.677923858165741,-0.0757634490728378,-0.0805856809020042,0.0,0.0,0.7714577913284302,-0.6232903599739075
-0.0772122368216514,0.4883982241153717,-0.0795387774705886,-0.6295885443687439,-0.0787578374147415,-0.0598875880241394,0.0,0.0,-0.8422678709030151,-0.1996493339538574
-0.0780544281005859,0.4739441871643066,-0.0809107273817062,-0.6425785422325134,-0.0820381343364715,-0.0656058341264724,0.0,0.0,-0.0909514427185058,0.8149611949920654
-0.078859232366085,0.4591951966285705,-0.0754963010549545,-0.655792772769928,-0.0869785696268081,-0.0988086983561515,0.0,0.0,0.7125749588012695,-0.5247549414634705
-0.0796333327889442,0.4451205432415008,-0.0732879564166069,-0.6257850527763367,-0.0910635143518447,-0.0816990137100219,0.0,0.0,-0.1147037148475647,-0.2235628962516784
-0.0804259330034256,0.4307541847229004,-0.0748572498559951,-0.6387760043144226,-0.0954320654273033,-0.0873706713318824,0.0,0.0,0.6272357702255249,-0.4953787326812744
-0.0811115279793739,0.4169353246688843,-0.0641998201608657,-0.6144601702690125,-0.0997485592961311,-0.0863299518823623,0.0,0.0,0.8205041885375977,-0.7543327212333679
-0.0818738937377929,0.4034769833087921,-0.0730297267436981,-0.5983650088310242,-0.102932721376419,-0.0636832267045974,0.0,0.0,0.7563505172729492,-0.8517622947692871
-0.0826092734932899,0.3902316689491272,-0.071894846856594,-0.5887960195541382,-0.1045599430799484,-0.0325445905327796,0.0,0.0,0.5020954608917236,0.1686824560165405
-0.0833617225289344,0.3771593570709228,-0.0731972604990005,-0.5811344385147095,-0.1065998151898384,-0.0407974496483802,0.0,0.0,0.8208160400390625,-0.1772254109382629
-0.0840518027544021,0.3651006519794464,-0.0666203275322914,-0.5361147522926331,-0.1089609637856483,-0.0472230538725853,0.0,0.0,-0.088461697101593,0.1344419717788696
-0.0847635269165039,0.3527501821517944,-0.0685231164097786,-0.5491052269935608,-0.1115995496511459,-0.0527716465294361,0.0,0.0,0.1396228075027465,0.0736442804336547
-0.0855117812752723,0.3409614264965057,-0.0715248137712478,-0.5241961479187012,-0.1148724183440208,-0.0654573291540145,0.0,0.0,-0.8643524050712585,0.2307250499725341
-0.0862826332449913,0.3288809657096863,-0.0735203251242637,-0.5371870398521423,-0.1184201091527938,-0.0709536373615264,0.0,0.0,-0.0012602806091308,-0.3538029193878174
-0.0870766639709472,0.3165089786052704,-0.0755587890744209,-0.5501782894134521,-0.1222412139177322,-0.0764221176505088,0.0,0.0,0.286508560180664,-0.7670955657958984
-0.0879882797598838,0.3045397996902466,-0.0884697288274765,-0.5321844220161438,-0.1249103471636772,-0.0533827655017375,0.0,0.0,-0.7395582795143127,0.4872651100158691
-0.0889236479997634,0.2922789752483368,-0.0905874520540237,-0.5451751947402954,-0.1278499513864517,-0.0587924048304557,0.0,0.0,-0.1849253177642822,-0.487968385219574
-0.0898833274841308,0.279726505279541,-0.0927417203783989,-0.5581661462783813,-0.1310583502054214,-0.0641682296991348,0.0,0.0,0.1958402395248413,0.438210129737854
-0.0907499343156814,0.2674963474273681,-0.083461582660675,-0.5438478589057922,-0.1342418491840362,-0.0636704042553901,0.0,0.0,0.1645762920379638,-0.6393172740936279
-0.091641329228878,0.2553333044052124,-0.0869744792580604,-0.5407735705375671,-0.136389285326004,-0.0429489128291606,0.0,0.0,0.7635364532470703,-0.3228377103805542
-0.0924012213945388,0.2434970885515213,-0.0740307196974754,-0.5262330770492554,-0.138341948390007,-0.039053201675415,0.0,0.0,0.4531707763671875,-0.3875537514686584
-0.0929890647530555,0.2320886999368667,-0.0571668222546577,-0.5071927905082703,-0.1399571895599365,-0.0323047265410423,0.0,0.0,0.0441418886184692,-0.9105419516563416
-0.0935359969735145,0.2207449525594711,-0.0546273067593574,-0.5041713118553162,-0.1400287449359893,-0.001431101351045,0.0,0.0,0.931654930114746,-0.2006904482841491
-0.0939929038286209,0.2104155868291854,-0.0453240238130092,-0.4591184556484222,-0.1403875946998596,-0.0071775028482079,0.0,0.0,-0.2254832983016967,-0.8432092666625977
-0.0945378318428993,0.1998139917850494,-0.0554873347282409,-0.4710863530635834,-0.1393986642360687,0.019778523594141,0.0,0.0,0.2025233507156372,0.8341249227523804
-0.0948727577924728,0.1896095871925354,-0.0326345600187778,-0.4536105692386627,-0.1402524262666702,-0.01707524061203,0.0,0.0,-0.2154018282890319,-0.4313197135925293
-0.0952342003583908,0.1791133433580398,-0.0350358225405216,-0.4666009545326233,-0.141354963183403,-0.0220510829240083,0.0,0.0,0.4760080575942993,-0.5844722390174866
-0.095654584467411,0.1690199524164199,-0.0417388975620269,-0.4486245810985565,-0.1416511684656143,-0.005924355238676,0.0,0.0,0.6584212779998779,-0.6972112059593201
-0.0959414467215538,0.159921184182167,-0.0297447834163904,-0.4042910635471344,-0.1405951976776123,0.0211193077266216,0.0,0.0,-0.5350562334060669,-0.4726799726486206
-0.0962553024291992,0.1505306512117386,-0.0322016179561615,-0.4172813594341278,-0.1397787183523178,0.016329139471054,0.0,0.0,-0.1674323678016662,-0.1876325607299804
-0.0965962409973144,0.140848234295845,-0.0346746034920215,-0.4302715361118316,-0.1391983181238174,0.0116080809384584,0.0,0.0,0.7650728225708008,0.2424664497375488
-0.0967687591910362,0.1319623291492462,-0.0180380828678607,-0.3948589861392975,-0.1384201943874359,0.0155625836923718,0.0,0.0,0.3739678859710693,-0.8221679329872131
-0.0969961136579513,0.1237412542104721,-0.0248827990144491,-0.3651804029941559,-0.13628451526165,0.0427136346697807,0.0,0.0,0.256840705871582,-0.6782346367835999
-0.0972958579659462,0.1161051839590072,-0.0331455543637275,-0.3390957713127136,-0.1331207156181335,0.0632758513092994,0.0,0.0,-0.3831722736358642,-0.2224961519241333
-0.0976230651140213,0.108177363872528,-0.0356730856001377,-0.3520864844322204,-0.1301771700382232,0.0588710196316242,0.0,0.0,0.651871919631958,0.582017183303833
-0.0979785919189453,0.1008681654930114,-0.0368023999035358,-0.3247446417808532,-0.1289260387420654,0.0250224880874156,0.0,0.0,0.4649312496185303,0.3333292007446289
-0.0984342545270919,0.0939836129546165,-0.0459912829101085,-0.3059410452842712,-0.1285032033920288,0.008456626906991,0.0,0.0,0.4575647115707397,0.4183552265167236
-0.0987436324357986,0.0877324938774108,-0.0315897986292839,-0.2777746617794037,-0.1278542131185531,0.012979676015675,0.0,0.0,-0.0457329154014587,0.7790573835372925
-0.0990139991044998,0.0811696648597717,-0.0257599540054798,-0.2917889654636383,-0.1291236728429794,-0.0253889374434947,0.0,0.0,0.6929745674133301,0.5980467796325684
-0.0990053191781044,0.0754424631595611,0.0031305416487157,-0.2547379732131958,-0.1313811987638473,-0.0451505593955516,0.0,0.0,0.3650060892105102,-0.1404458880424499
-0.0989591628313064,0.0703807473182678,0.0071620382368564,-0.2251953780651092,-0.1339160948991775,-0.050698198378086,0.0,0.0,0.323822021484375,0.526972770690918
-0.0986843109130859,0.0660178288817405,0.0309848133474588,-0.1942245811223983,-0.1374056041240692,-0.0697900727391243,0.0,0.0,0.0398606061935424,-0.7938843965530396
-0.098394013941288,0.0619066804647445,0.0311001874506473,-0.1829098910093307,-0.1394654363393783,-0.041196558624506,0.0,0.0,-0.1833075284957885,-0.2760090231895447
-0.098131462931633,0.0575037114322185,0.0284972451627254,-0.1958996504545211,-0.1416968405246734,-0.0446281321346759,0.0,0.0,-0.2677249908447265,-0.7649128437042236
-0.0979497879743576,0.0528270117938518,0.0191898997873067,-0.2079500555992126,-0.1427148878574371,-0.0203606225550174,0.0,0.0,0.4131034612655639,0.0221122503280639
-0.0976717919111251,0.0484259687364101,0.0286580584943294,-0.1956849694252014,-0.1435723155736923,-0.0171489920467138,0.0,0.0,0.1403087377548217,-0.6718628406524658
-0.0975070968270301,0.044399581849575,0.01625114120543,-0.1789328455924987,-0.1433548629283905,0.0043489141389727,0.0,0.0,0.2767934799194336,0.5223109722137451
-0.0973794013261795,0.0406847558915615,0.0139836343005299,-0.1652216911315918,-0.1445626616477966,-0.0241558253765106,0.0,0.0,0.7128314971923828,-0.1281807422637939
-0.0972171798348426,0.0375502929091453,0.0176755264401435,-0.1394507139921188,-0.1460102945566177,-0.0289528667926788,0.0,0.0,0.0749351978302002,0.5162168741226196
-0.0969732254743576,0.0346250385046005,0.0269752144813537,-0.1302643120288849,-0.148586019873619,-0.0515142567455768,0.0,0.0,-0.1056698560714721,0.4913269281387329
-0.0967567414045333,0.0314079634845256,0.0243471078574657,-0.1432537883520126,-0.1512828469276428,-0.0539365336298942,0.0,0.0,0.5579156875610352,-0.3264178037643432
-0.0963797569274902,0.0288343280553817,0.0400970578193664,-0.1146291866898536,-0.1536677181720733,-0.0476976931095123,0.0,0.0,-0.2695657014846802,-0.0830184817314148
-0.0960299521684646,0.025968799367547,0.0374664515256881,-0.1276184022426605,-0.1561577022075653,-0.0497994609177112,0.0,0.0,0.3385237455368042,-0.1241222620010376
