x_pos,y_pos,x_vel,y_vel,angle,ang_vel,leg_1,leg_2,main_booster,lat_booster
-0.0014528274768963,1.4034188985824585,-0.1471531689167022,-0.3334009051322937,0.0016681945417076,0.0328996591269969,0.0,0.0,-0.0497861504554748,0.6007907390594482
-0.0027834891807287,1.3957319259643557,-0.1333517432212829,-0.3416465520858764,0.0019466102821752,0.0055693811737,0.0,0.0,-0.3592259883880615,-0.0024704933166503
-0.0040431977249681,1.3878384828567505,-0.1261893212795257,-0.3508202731609344,0.0021670688875019,0.0044097620993852,0.0,0.0,-0.3153969049453735,0.3383738994598388
-0.0052319527603685,1.3797390460968018,-0.1190375685691833,-0.3599746823310852,0.0023289141245186,0.0032372362911701,0.0,0.0,0.2372646331787109,0.7835214138031006
-0.0061796186491847,1.3721693754196167,-0.093436561524868,-0.3364303708076477,0.0010129264555871,-0.0263224337249994,0.0,0.0,-0.2846907377243042,-0.408709168434143
-0.0070566176436841,1.364393711090088,-0.0863053575158119,-0.3455868363380432,-0.0003617492911871,-0.0274962838739156,0.0,0.0,-0.8301369547843933,-0.09145188331604
-0.0078631397336721,1.3564121723175049,-0.0791891068220138,-0.3547348380088806,-0.0017963155405595,-0.0286940094083547,0.0,0.0,-0.7197477221488953,-0.2248822450637817
-0.0085991863161325,1.3482247591018677,-0.0720889046788215,-0.3638845086097717,-0.003290974535048,-0.0298961512744426,0.0,0.0,-0.6192991733551025,-0.023234486579895
-0.0092649459838867,1.3398315906524658,-0.0650065317749977,-0.3730349540710449,-0.0048461738042533,-0.0311067067086696,0.0,0.0,-0.7024171948432922,-0.4054983258247375
-0.0098607065156102,1.3312325477600098,-0.0579436793923378,-0.3821854889392853,-0.0064622899517416,-0.0323255583643913,0.0,0.0,-0.7505581974983215,-0.7460533976554871
-0.0104371067136526,1.322428584098816,-0.0572228655219078,-0.3912854492664337,-0.0068726907484233,-0.0082085579633712,0.0,0.0,-0.9002208709716797,0.3778588771820068
-0.0109439846128225,1.313418984413147,-0.0502087660133838,-0.4004358351230621,-0.0073455576784908,-0.0094583164900541,0.0,0.0,-0.8245400786399841,0.1874655485153198
-0.0113816261291503,1.3042032718658447,-0.0432199016213417,-0.4095863401889801,-0.0078804520890116,-0.0106988158077001,0.0,0.0,-0.8460720777511597,0.2357926368713379
-0.011750316247344,1.2947818040847778,-0.0362589620053768,-0.418736845254898,-0.0084779802709817,-0.0119518218562006,0.0,0.0,-0.7920951247215271,-0.0024823546409606
-0.0120502468198537,1.2851543426513672,-0.0293285492807626,-0.4278874099254608,-0.0091384574770927,-0.0132105201482772,0.0,0.0,-0.6062484383583069,-0.5664728879928589
-0.0123185161501169,1.2753150463104248,-0.0270234253257513,-0.4373056292533874,-0.0089428192004561,0.0039129899814724,0.0,0.0,-0.7188050746917725,-0.8204987645149231
-0.0125687597319483,1.26528000831604,-0.0264268666505813,-0.4459942281246185,-0.0075548440217971,0.0277620144188404,0.0,0.0,-0.7295860648155212,-0.5728628039360046
-0.0127860065549612,1.2550344467163086,-0.0239472333341836,-0.4553396105766296,-0.0053629605099558,0.0438416823744773,0.0,0.0,-0.9183574318885804,-0.827410876750946
-0.0129910465329885,1.2445915937423706,-0.0240508057177066,-0.4641189873218536,-0.0018573785200715,0.0701180249452591,0.0,0.0,-0.9692414402961732,-0.4223195314407348
-0.0131296161562204,1.233942985534668,-0.0173305105417966,-0.4732707142829895,0.0015831608325242,0.0688167959451675,0.0,0.0,-0.6811665296554565,0.0301257371902465
-0.0132020954042673,1.2230887413024902,-0.0106599945574998,-0.4824223220348358,0.0049592349678277,0.0675273686647415,0.0,0.0,-0.9624154567718506,-0.4731826782226562
-0.0132090570405125,1.2120286226272583,-0.0040440261363983,-0.4915738701820373,0.008270526304841,0.0662316754460334,0.0,0.0,-0.8497881889343262,-0.1059629321098327
-0.0131511688232421,1.2007628679275513,0.0025129807181656,-0.500725507736206,0.0115170339122414,0.0649358481168747,0.0,0.0,-0.7287485003471375,-0.1300569176673889
-0.0130290035158395,1.18929123878479,0.0090061295777559,-0.5098771452903748,0.0146988118067383,0.0636411234736442,0.0,0.0,-0.9253524541854858,-0.2346372604370117
-0.0128432270139455,1.1776139736175537,0.015430124476552,-0.5190287828445435,0.0178159866482019,0.06234897300601,0.0,0.0,-0.8738459348678589,0.2223113775253296
-0.0125942230224609,1.1657092571258545,0.0218053944408893,-0.5291339159011841,0.0208690073341131,0.061060082167387,0.0,0.0,-0.8614066243171692,-0.1951712965965271
-0.0122831342741847,1.1535987854003906,0.0280823372304439,-0.5382832288742065,0.023858692497015,0.0597938299179077,0.0,0.0,-0.9464104771614076,0.1714818477630615
-0.011910724453628,1.1412826776504517,0.0342717319726944,-0.547432541847229,0.0267858300358057,0.0585429482161998,0.0,0.0,-0.7608880400657654,0.3506007194519043
-0.01147804223001,1.1287606954574585,0.0403667502105236,-0.5565817356109619,0.0296512506902217,0.0573085248470306,0.0,0.0,-0.8558337688446045,0.6323214769363403
-0.0109376907348632,1.1160328388214111,0.0524220094084739,-0.5657168626785278,0.0312422551214694,0.0318201147019863,0.0,0.0,-0.8113704323768616,-0.0136429667472839
-0.0103390691801905,1.10309898853302,0.0583061277866363,-0.574865460395813,0.0327733866870403,0.0306227207183837,0.0,0.0,-0.9216218590736388,-0.3433133363723755
-0.0096834180876612,1.0899595022201538,0.0640729218721389,-0.5840141177177429,0.0342456698417663,0.0294459424912929,0.0,0.0,-0.8814178705215454,0.0724246501922607
-0.0089719770476222,1.0766141414642334,0.0697139054536819,-0.5931627154350281,0.0356602519750595,0.028291592374444,0.0,0.0,-0.898615300655365,-0.7891227006912231
-0.0082748411223292,1.06305193901062,0.0665777400135994,-0.6028357148170471,0.0387550741434097,0.0618965253233909,0.0,0.0,-0.5885565280914307,0.3449454307556152
-0.0075247762724757,1.0492842197418213,0.0719401612877845,-0.6119850277900696,0.0417946577072143,0.0607915706932544,0.0,0.0,-0.8830251097679138,0.0978579521179199
-0.0067230225540697,1.0353106260299685,0.0771491155028343,-0.6211341619491577,0.0447803549468517,0.05971410125494,0.0,0.0,-0.8069894313812256,-0.0089221596717834
-0.005871295928955,1.02113139629364,0.0821947306394577,-0.6302832961082458,0.0477136522531509,0.0586660094559192,0.0,0.0,-0.7742587327957153,0.1995484828948974
-0.0049715042114257,1.0067462921142578,0.0870669037103653,-0.6394323706626892,0.0505961030721664,0.0576492026448249,0.0,0.0,-0.9503421187400818,0.0657918453216552
-0.0040252683684229,0.9921554327011108,0.0917553454637527,-0.6485814452171326,0.0534293837845325,0.0566656999289989,0.0,0.0,-0.6211698651313782,0.4586836099624634
-0.0030344962142407,0.9773589372634888,0.0962496548891067,-0.6577305197715759,0.0562152527272701,0.0557176284492015,0.0,0.0,-0.9634976387023926,-0.2761387228965759
-0.0020014762412756,0.962356448173523,0.1005394086241722,-0.6668795347213745,0.0589556097984313,0.0548071041703224,0.0,0.0,-0.8906286954879761,0.0759981870651245
-0.0009280204540118,0.9471483826637268,0.1046142429113388,-0.6760284900665283,0.0616524182260036,0.0539361722767353,0.0,0.0,-0.5956507921218872,-0.2398032546043396
0.0001834869326557,0.9317343235015868,0.1084639430046081,-0.6851775646209717,0.0643077567219734,0.0531070008873939,0.0,0.0,-0.703357994556427,-0.8773162364959717
0.0012729645241051,0.9161072969436646,0.104826308786869,-0.6947179436683655,0.0683827474713325,0.0814996212720871,0.0,0.0,-0.8141251802444458,0.2811901569366455
0.0023956298828125,0.9002745151519775,0.1081964150071144,-0.7038677334785461,0.0724207684397697,0.0807604789733886,0.0,0.0,-0.9611037969589232,0.7167977094650269
0.0036105155013501,0.8842353224754333,0.1189885586500167,-0.7129718661308289,0.0748898983001709,0.0493826083838939,0.0,0.0,-0.476435124874115,-0.282384991645813
0.0048535345122218,0.8679904341697693,0.1218427568674087,-0.7221208214759827,0.0773269906640052,0.0487419143319129,0.0,0.0,-0.7512683272361755,0.6210566759109497
0.0061615942977368,0.8515509963035583,0.1293942332267761,-0.730715811252594,0.0787266716361045,0.0279934350401163,0.0,0.0,-0.7246363759040833,-0.4993904829025268
0.0074925422668457,0.8349055647850037,0.1317016929388046,-0.7398643493652344,0.0800996124744415,0.0274588707834482,0.0,0.0,-0.8462503552436829,0.1107115745544433
0.0088434219360351,0.8180544376373291,0.1337263733148574,-0.7490128874778748,0.0814485996961593,0.0269799269735813,0.0,0.0,-0.8804182410240173,-0.5368468761444092
0.0101791378110647,0.8009934425354004,0.1314166486263275,-0.7583882212638855,0.0835911929607391,0.0428517945110797,0.0,0.0,-0.832722544670105,-0.3758267164230346
0.0115292547270655,0.7837266325950623,0.1328618824481964,-0.7675371170043945,0.0857156068086624,0.0424886494874954,0.0,0.0,-0.6971240639686584,0.1912949085235595
0.0128906248137354,0.7662538886070251,0.1340126991271972,-0.7766859531402588,0.0878248736262321,0.0421852357685565,0.0,0.0,-0.5627796053886414,0.4446111917495727
0.0142604829743504,0.7485755085945129,0.1348674595355987,-0.7858349680900574,0.0899220183491706,0.0419425964355468,0.0,0.0,-0.7005194425582886,0.1779131889343261
0.0156357772648334,0.7306912541389465,0.135425716638565,-0.7949838042259216,0.0920100957155227,0.0417614504694938,0.0,0.0,-0.242637038230896,-0.6325965523719788
0.0169561393558979,0.7125903964042664,0.1284579634666443,-0.8047032952308655,0.0955538973212242,0.0708760023117065,0.0,0.0,0.189001202583313,0.0036760568618774
0.0182888023555278,0.6951500773429871,0.1293760687112808,-0.7753786444664001,0.099407821893692,0.0770785063505172,0.0,0.0,-0.903605043888092,0.7191734313964844
0.019687557592988,0.677517294883728,0.1377700120210647,-0.7838184833526611,0.1014984771609306,0.04181345179677,0.0,0.0,-0.8323325514793396,-0.4059458971023559
0.0210802070796489,0.6596788167953491,0.1371613442897796,-0.7929674983024597,0.1035925149917602,0.0418804958462715,0.0,0.0,-0.2010796666145324,0.2729058265686035
0.0224640853703022,0.6416346430778503,0.1362711042165756,-0.8021164536476135,0.1056929677724838,0.0420088768005371,0.0,0.0,0.1976433992385864,-0.529468297958374
0.0238072387874126,0.6237801313400269,0.1310399025678634,-0.7937619686126709,0.1089424341917038,0.0649895220994949,0.0,0.0,0.0482575893402099,0.0631587505340576
0.0250245090574026,0.6063733696937561,0.1187396645545959,-0.773857057094574,0.1119100004434585,0.0593514032661914,0.0,0.0,-0.5137140154838562,0.7547553777694702
0.0262967105954885,0.5887709259986877,0.1260337382555008,-0.7824183702468872,0.1130789741873741,0.0233799032866954,0.0,0.0,0.2731106281280517,0.4187681674957275
0.0275142677128314,0.5716698169708252,0.1204762682318687,-0.7601494193077087,0.1143501475453376,0.0254234727472066,0.0,0.0,-0.0697166323661804,0.9473710060119628
0.0287859924137592,0.5543688535690308,0.1278033554553985,-0.7688830494880676,0.1137302070856094,-0.0123990150168538,0.0,0.0,0.3906337022781372,-0.8539333939552307
0.0297928806394338,0.53757244348526,0.0997022613883018,-0.7465845942497253,0.1147057116031646,0.0195100009441375,0.0,0.0,0.2670007944107055,0.5571787357330322
0.0307595245540142,0.5215652585029602,0.096739575266838,-0.7114230990409851,0.1146293729543685,-0.0015265594702214,0.0,0.0,0.096155047416687,-0.2917916774749756
0.0317296981811523,0.5056508183479309,0.0968054458498954,-0.7073255181312561,0.114833652973175,0.0040857186540961,0.0,0.0,0.2146927118301391,0.3074126243591308
0.0326170921325683,0.4904692471027374,0.0884180590510368,-0.6747618913650513,0.1151609271764755,0.0065451255068182,0.0,0.0,0.2834870815277099,0.93324875831604
0.0334195122122764,0.4756239056587219,0.0817931517958641,-0.6596721410751343,0.1136136651039123,-0.0309450272470712,0.0,0.0,-0.1702451705932617,-0.8179072141647339
0.0341132171452045,0.4605635404586792,0.0690027847886085,-0.6693780422210693,0.1139812469482421,0.0073516918346285,0.0,0.0,-0.5430835485458374,0.9309827089309692
0.0348475463688373,0.4453123807907104,0.0750009194016456,-0.6777128577232361,0.1124330684542656,-0.0309638082981109,0.0,0.0,0.1616163253784179,0.1346559524536132
0.0353877060115337,0.4307252168655395,0.0559501536190509,-0.6481714844703674,0.1105053350329399,-0.0385546460747718,0.0,0.0,-0.3952250480651855,0.2368969917297363
0.0358884818851947,0.4159323871135711,0.0519783124327659,-0.6573208570480347,0.1086189076304435,-0.0377286523580551,0.0,0.0,-0.0098927021026611,0.0563433170318603
0.0363484397530555,0.4009338319301605,0.0478556677699089,-0.6664701700210571,0.1067754998803138,-0.0368681885302066,0.0,0.0,0.7829996347427368,0.0516445636749267
0.0368018150329589,0.3862645030021667,0.0468084700405597,-0.6518679261207581,0.1053162217140197,-0.029185727238655,0.0,0.0,0.5672481060028076,-0.1194678544998169
0.0371479988098144,0.371864914894104,0.036184873431921,-0.6398702263832092,0.1037644147872924,-0.031036090105772,0.0,0.0,0.406610369682312,-0.0462045073509216
0.0373724922537803,0.3582661151885986,0.0239927656948566,-0.6042872071266174,0.1022272035479545,-0.0307442061603069,0.0,0.0,0.6470704078674316,0.5321722030639648
0.0375944152474403,0.3456998467445373,0.0245399884879589,-0.5583413243293762,0.0999038442969322,-0.0464674420654773,0.0,0.0,0.2341289520263672,-0.1996259689331054
0.0376251228153705,0.3338266015052795,0.0057503459975123,-0.5275222063064575,0.0972428172826767,-0.0532203130424022,0.0,0.0,0.1238577365875244,-0.0137919187545776
0.0374982841312885,0.3220713138580322,-0.0096414685249328,-0.5222647190093994,0.094225950539112,-0.0603372864425182,0.0,0.0,-0.4548350572586059,-0.1614383459091186
0.037322424352169,0.3101103007793426,-0.0145933534950017,-0.5314144492149353,0.0912614613771438,-0.0592897310853004,0.0,0.0,-0.4171167612075805,0.2485127449035644
0.0370966903865337,0.2979435920715332,-0.019635135307908,-0.5405642986297607,0.0883503928780555,-0.0582215487957,0.0,0.0,0.6541802883148193,0.2294366359710693
0.0367057807743549,0.2865780293941498,-0.0359576120972633,-0.5049542784690857,0.0852396711707115,-0.0622142553329467,0.0,0.0,0.2606315612792969,-0.0445758700370788
0.0362088195979595,0.2758030593395233,-0.046568427234888,-0.4787115454673767,0.0821418687701225,-0.061955951154232,0.0,0.0,-0.4320729970932007,0.6397976875305176
0.0357173904776573,0.2648297548294067,-0.0445957034826278,-0.4874583482742309,0.0776408612728118,-0.0900199562311172,0.0,0.0,0.090274691581726,0.3836691379547119
0.0351712219417095,0.2539906203746795,-0.0502027384936809,-0.4815177321434021,0.0732688903808593,-0.0874392837285995,0.0,0.0,0.2545828819274902,0.027808666229248
0.0346195213496685,0.243411049246788,-0.0511474423110485,-0.4700115025043487,0.0692801252007484,-0.0797751024365425,0.0,0.0,0.5023152828216553,0.3266854286193847
0.0341112129390239,0.2334168553352356,-0.0474799461662769,-0.4440387189388275,0.0659682154655456,-0.0662380903959274,0.0,0.0,0.2334816455841064,0.3844280242919922
0.0336328521370887,0.2236679196357727,-0.0450345426797866,-0.4331651031970978,0.0631963089108467,-0.055438257753849,0.0,0.0,0.3655054569244385,0.2850292921066284
0.03305559232831,0.2146423906087875,-0.0549605265259742,-0.401020884513855,0.0604617930948734,-0.0546905100345611,0.0,0.0,-0.3991087675094604,0.6294139623641968
0.032474897801876,0.2054206728935241,-0.0540250018239021,-0.4096938073635101,0.0564685240387916,-0.0798653438687324,0.0,0.0,0.2082475423812866,0.738384485244751
0.0319722183048725,0.1967406123876571,-0.0449296161532402,-0.3855902254581451,0.051182460039854,-0.1057209745049476,0.0,0.0,0.228046178817749,-0.254951000213623
0.0314756408333778,0.1882242709398269,-0.044714268296957,-0.3783426880836487,0.0463035888969898,-0.0975776091217994,0.0,0.0,0.1179368495941162,-0.6383662223815918
0.0308163650333881,0.1800105720758438,-0.0622844323515892,-0.3649443387985229,0.0427021980285644,-0.0720279961824417,0.0,0.0,0.3622078895568847,0.6081907749176025
0.0301942825317382,0.172672688961029,-0.0575532503426075,-0.3260040581226349,0.0381034277379512,-0.0919755697250366,0.0,0.0,0.4244232177734375,-0.3214151859283447
0.0294763557612895,0.1658635288476944,-0.0671019405126571,-0.3025141656398773,0.0334729924798011,-0.0926084071397781,0.0,0.0,-0.1603213548660278,-0.0337670445442199
0.0287012103945016,0.1588489413261413,-0.0728903859853744,-0.31166473031044,0.0289041828364133,-0.091376319527626,0.0,0.0,0.052223801612854,-0.4834486246109009
0.0279111862182617,0.152297556400299,-0.0746992081403732,-0.2910957634449005,0.0246536340564489,-0.0850111693143844,0.0,0.0,-0.266641616821289,-0.0850405097007751
0.0270635597407817,0.1455406099557876,-0.0805225223302841,-0.3002460598945617,0.0204650927335023,-0.0837707668542862,0.0,0.0,-0.4339675903320312,-0.5440497994422913
0.0261091236025095,0.1385803818702697,-0.0925068408250808,-0.3093065023422241,0.0175690129399299,-0.0579213872551918,0.0,0.0,-0.5720866918563843,0.3514540195465088
0.0250968933105468,0.1314143687486648,-0.0983531922101974,-0.3184558451175689,0.0147352637723088,-0.0566749088466167,0.0,0.0,-0.6424235701560974,-0.0559462308883667
0.0240267757326364,0.124042734503746,-0.1042068153619766,-0.3276051878929138,0.0119639504700899,-0.0554261580109596,0.0,0.0,-0.4754042625427246,0.2956445217132568
0.0228986740112304,0.1164653152227401,-0.1100649461150169,-0.3367544710636139,0.0092551708221435,-0.0541757121682167,0.0,0.0,-0.3199814558029175,0.7437376976013184
0.0217818263918161,0.108687549829483,-0.1072437614202499,-0.3456546366214752,0.0048696366138756,-0.0877105966210365,0.0,0.0,0.1548295021057129,0.77290940284729
0.0207160953432321,0.1010853126645088,-0.1006817817687988,-0.3378704190254211,-0.0009483550093136,-0.1163596361875534,0.0,0.0,0.0994215011596679,-0.113080084323883
0.0196894649416208,0.0940390452742576,-0.0972872450947761,-0.3131816685199737,-0.0062571843154728,-0.1061763539910316,0.0,0.0,-0.1125156283378601,-0.0429403781890869
0.0186049453914165,0.0867872089147567,-0.1031368747353553,-0.3223325908184051,-0.011503342539072,-0.1049232706427574,0.0,0.0,0.7109036445617676,0.2651679515838623
0.0176206585019826,0.0806546807289123,-0.0938739255070686,-0.2726021409034729,-0.0160033553838729,-0.0900002345442771,0.0,0.0,0.0091552734375,-0.7246268391609192
0.016580868512392,0.0748475193977356,-0.1009772419929504,-0.2581304013729095,-0.0189668014645576,-0.0592688098549842,0.0,0.0,-0.1297051906585693,0.1686311960220337
0.0154835702851414,0.0688345730304718,-0.1067931875586509,-0.2672796547412872,-0.0218677539378404,-0.0580188259482383,0.0,0.0,0.1267019510269165,0.4129858016967773
0.0143820764496922,0.0634200200438499,-0.1074741706252098,-0.2406884282827377,-0.0245149489492177,-0.0529437065124511,0.0,0.0,-0.3132083415985107,0.3980954885482788
0.0132233621552586,0.057799682021141,-0.1132547855377197,-0.2498374879360199,-0.0270998310297727,-0.0516977496445179,0.0,0.0,0.3376281261444092,0.7449827194213867
0.0119692804291844,0.0527276620268821,-0.1211961060762405,-0.2255044877529144,-0.0312613360583782,-0.083229973912239,0.0,0.0,0.0054179430007934,0.8330810070037842
0.0106419567018747,0.0479188524186611,-0.1268915683031082,-0.2138582319021225,-0.0370262898504734,-0.1152992248535156,0.0,0.0,0.068985104560852,0.8017789125442505
0.0093189235776662,0.0434484332799911,-0.1249051094055175,-0.1988867372274398,-0.0443318784236907,-0.1461118012666702,0.0,0.0,-0.299238383769989,0.2282547950744629
0.0079398155212402,0.0387728065252304,-0.1305839121341705,-0.2080395817756652,-0.0515758134424686,-0.1448787152767181,0.0,0.0,0.0690038204193115,0.4667084217071533
0.0066011426970362,0.0342339389026165,-0.1269867420196533,-0.2019781172275543,-0.0583674237132072,-0.135832279920578,0.0,0.0,0.1495029926300048,0.3472623825073242
0.0053026201203465,0.0301962476223707,-0.1233688443899154,-0.1797191202640533,-0.0647841766476631,-0.1283350437879562,0.0,0.0,0.1773638725280761,0.2824443578720093
0.0040040016174316,0.0268119424581527,-0.1235208660364151,-0.1507024466991424,-0.0710574313998222,-0.1254650652408599,0.0,0.0,-0.2926875948905945,0.249904990196228
0.0026507377624511,0.0232221465557813,-0.1290542334318161,-0.1598539650440216,-0.0772700905799865,-0.1242528408765792,0.0,0.0,-0.225684106349945,0.4791853427886963
