x_pos,y_pos,x_vel,y_vel,angle,ang_vel,leg_1,leg_2,main_booster,lat_booster
-0.0015188216930255,1.4029706716537476,-0.1538772881031036,-0.3533043563365936,0.0017915435601025,0.0353415682911872,0.0,0.0,-0.4205144643783569,0.8492926359176636
-0.0029591559432446,1.394386887550354,-0.1439844667911529,-0.3815035820007324,0.00173705664929,-0.0010891209822148,0.0,0.0,-0.22039794921875,0.7993776798248291
-0.0043156621977686,1.3851432800292969,-0.1336597055196762,-0.4108278155326843,-0.0002243049675598,-0.0392311140894889,0.0,0.0,0.040711760520935,0.3966767787933349
-0.0057387351989746,1.3757178783416748,-0.139983981847763,-0.4189020693302154,-0.0025212415494024,-0.0459429323673248,0.0,0.0,0.259587287902832,0.5675716400146484
-0.0069985389709472,1.366385817527771,-0.1227896809577941,-0.4147642850875854,-0.0056859566830098,-0.0633000582456588,0.0,0.0,0.3540366888046264,0.7370755672454834
-0.0080618858337402,1.3570653200149536,-0.1018880829215049,-0.4142713844776153,-0.01007832121104,-0.0878552049398422,0.0,0.0,-0.6315904259681702,-0.1608679294586181
-0.0091136936098337,1.3470911979675293,-0.1007752045989036,-0.4433288276195526,-0.0144449593499302,-0.0873404666781425,0.0,0.0,-0.0760995149612426,0.570561408996582
-0.0100973127409815,1.3364641666412354,-0.0925411134958267,-0.4723753333091736,-0.0201953090727329,-0.1150176972150802,0.0,0.0,-0.0729864239692688,-0.3360923528671264
-0.0110676763579249,1.3251841068267822,-0.0912466868758201,-0.5014315247535706,-0.0259186215698719,-0.11447674036026,0.0,0.0,0.4412907361984253,-0.647685170173645
-0.012059211730957,1.314206838607788,-0.0946920588612556,-0.4879649579524994,-0.0303334631025791,-0.088304691016674,0.0,0.0,0.0721634626388549,-0.5090785622596741
-0.0130026815459132,1.30315363407135,-0.0910560339689254,-0.4913254678249359,-0.03359180316329,-0.0651726871728897,0.0,0.0,-0.1764140129089355,-0.7811502814292908
-0.0139850620180368,1.2914477586746216,-0.096351146697998,-0.5203001499176025,-0.0354564934968948,-0.0372967794537544,0.0,0.0,-0.1954473257064819,-0.4525024890899658
-0.0149512290954589,1.2790883779525757,-0.0947607308626174,-0.5493519902229309,-0.0372942946851253,-0.0367596372961998,0.0,0.0,0.372338056564331,-0.9346446990966796
-0.0158976558595895,1.266509175300598,-0.0947476774454116,-0.5590722560882568,-0.0371931530535221,0.0020231658127158,0.0,0.0,-0.4457163214683532,-0.5464603900909424
-0.0168595314025878,1.2532837390899658,-0.0971591547131538,-0.5877756476402283,-0.0362341068685054,0.0191825646907091,0.0,0.0,-0.2765824198722839,0.0235515832901
-0.017803382128477,1.239404559135437,-0.0953864678740501,-0.6168283224105835,-0.0352473594248294,0.0197364781051874,0.0,0.0,0.1663568019866943,-0.5989964604377747
-0.0186465270817279,1.2257808446884155,-0.0867234840989112,-0.6054462194442749,-0.0328576825559139,0.0477981641888618,0.0,0.0,-0.6981543302536011,-0.152727723121643
-0.0194705016911029,1.211503267288208,-0.0848474279046058,-0.6345075368881226,-0.0304408613592386,0.048340767621994,0.0,0.0,-0.3486658334732055,-0.6268840432167053
-0.0203165058046579,1.196579933166504,-0.088117592036724,-0.6631897687911987,-0.0269506312906742,0.0698106959462165,0.0,0.0,-0.7452144026756287,0.179842472076416
-0.0211423877626657,1.1810030937194824,-0.0861499682068824,-0.6922447085380554,-0.0234326459467411,0.0703659430146217,0.0,0.0,-0.0441752672195434,-0.0487475395202636
-0.021947955712676,1.164772629737854,-0.084140233695507,-0.7212997078895569,-0.0198860093951225,0.0709389224648475,0.0,0.0,-0.4002470970153808,0.1607743501663208
-0.0227328296750783,1.1478886604309082,-0.08209178596735,-0.7503547072410583,-0.0163107961416244,0.0715104714035987,0.0,0.0,0.4400469064712524,0.5775903463363647
-0.0233200080692768,1.1310577392578125,-0.0614884905517101,-0.7480036616325378,-0.0135760735720396,0.0546991638839244,0.0,0.0,0.2088505029678344,0.0511189699172973
-0.023831557482481,1.113914966583252,-0.0541881620883941,-0.761882483959198,-0.0105748418718576,0.060030024498701,0.0,0.0,0.1760838031768798,0.1036989688873291
-0.0244175903499126,1.0968072414398191,-0.0611929111182689,-0.7603281140327454,-0.0080133704468607,0.0512338988482952,0.0,0.0,0.2669672966003418,-0.2896879315376282
-0.0250890739262104,1.0798356533050537,-0.0692492499947547,-0.7542861700057983,-0.005938951857388,0.0414884723722934,0.0,0.0,0.5810186862945557,0.1618355512619018
-0.0257304199039936,1.0632529258728027,-0.0662819147109985,-0.7369953989982605,-0.0038175149820744,0.0424288772046566,0.0,0.0,0.2509117126464844,-0.3135023117065429
-0.0264457706362009,1.0469547510147097,-0.0732480734586715,-0.7243664264678955,-0.0021233493462204,0.033883087337017,0.0,0.0,0.3290117979049682,-0.1124487519264221
-0.0272419936954975,1.030937671661377,-0.0808779746294021,-0.7118647694587708,-0.0008840707596391,0.0247855670750141,0.0,0.0,0.7675235271453857,-0.3992841243743896
-0.0280373580753803,1.0150495767593384,-0.0807162523269653,-0.7061402797698975,0.0002823341928888,0.023327799513936,0.0,0.0,0.2654316425323486,0.4629726409912109
-0.0287955291569232,0.9994804859161376,-0.0770992487668991,-0.6919611096382141,0.001546372543089,0.0252810530364513,0.0,0.0,-0.5990270376205444,-0.5389949083328247
-0.0295787807554006,0.9832544922828674,-0.0808658748865127,-0.7211593389511108,0.0040523828938603,0.050120510160923,0.0,0.0,-0.3717995882034302,0.222578763961792
-0.0303388591855764,0.9663748741149902,-0.0785833448171615,-0.7502120733261108,0.0065903789363801,0.0507599003612995,0.0,0.0,-0.4511342048645019,0.3845498561859131
-0.0310757644474506,0.9488416910171508,-0.0762971490621566,-0.7792648077011108,0.0091606210917234,0.0514049418270587,0.0,0.0,0.5996772050857544,0.1713423728942871
-0.0317792892456054,0.9315661191940308,-0.0730631127953529,-0.7678228616714478,0.0118362037464976,0.0535118952393531,0.0,0.0,0.3536149263381958,0.375507116317749
-0.0324520096182823,0.9145666360855104,-0.070088692009449,-0.7555552124977112,0.014613464474678,0.0555453076958656,0.0,0.0,0.1085824966430664,0.5849149227142334
-0.0330793373286724,0.8973694443702698,-0.0643729865550994,-0.7643383145332336,0.016229934990406,0.0323295667767524,0.0,0.0,-0.0535495281219482,0.2076601982116699
-0.0336835868656635,0.8795185089111328,-0.0620972141623497,-0.7933906316757202,0.0178797282278537,0.0329958163201808,0.0,0.0,0.2597440481185913,0.4479821920394897
-0.0343063361942768,0.8619767427444458,-0.0638361722230911,-0.7796520590782166,0.0194242466241121,0.0308902375400066,0.0,0.0,0.4285969734191894,0.939145803451538
-0.0348140709102153,0.8445736765861511,-0.0505108311772346,-0.7734596729278564,0.0191600490361452,-0.0052836062386631,0.0,0.0,0.1965255737304687,-0.5512497425079346
-0.0354385375976562,0.8273637890815735,-0.0631646066904068,-0.7648954391479492,0.0198624245822429,0.0140477064996957,0.0,0.0,-0.1790108680725097,0.4631352424621582
-0.0360404960811138,0.8095001578330994,-0.0609375946223735,-0.7939477562904358,0.0205990765243768,0.0147328916937112,0.0,0.0,0.7116163969039917,0.5714702606201172
-0.0364734642207622,0.7914685606956482,-0.0432076305150985,-0.801402747631073,0.0205164067447185,-0.0016538787167519,0.0,0.0,0.8835434913635254,-0.4448263049125671
-0.036783218383789,0.7736905813217163,-0.0314663611352443,-0.7901381254196167,0.0209919530898332,0.0095112230628728,0.0,0.0,0.4643845558166504,0.5086698532104492
-0.0370749458670616,0.7556445002555847,-0.0285624302923679,-0.8020426034927368,0.0203928388655185,-0.0119823180139064,0.0,0.0,0.3902430534362793,0.3051705360412597
-0.0373119339346885,0.737367570400238,-0.0233087129890918,-0.8123031258583069,0.0200076065957546,-0.0077044465579092,0.0,0.0,0.8991525173187256,0.7049227952957153
-0.0374059677124023,0.7192075252532959,-0.0078242477029562,-0.8070946335792542,0.0184383299201726,-0.0313854441046714,0.0,0.0,0.289668321609497,0.5750981569290161
-0.037541676312685,0.7013747692108154,-0.0106596266850829,-0.7925354838371277,0.0155679481104016,-0.0574079267680645,0.0,0.0,-0.0589227080345153,0.3984405994415283
-0.0376564040780067,0.6828882694244385,-0.0086032943800091,-0.8215884566307068,0.0127331549301743,-0.0566958263516426,0.0,0.0,0.2645518779754638,-0.2409902811050415
-0.0377717986702919,0.6643320918083191,-0.0086178248748183,-0.8247024416923523,0.0098591810092329,-0.0574793145060539,0.0,0.0,0.2453888654708862,-0.5351969599723816
-0.0377951636910438,0.6457688212394714,-0.000793898012489,-0.8250246644020081,0.0083320355042815,-0.0305430386215448,0.0,0.0,0.6236021518707275,-0.0283911824226379
-0.0378612503409385,0.6276372075080872,-0.0048352973535656,-0.805843710899353,0.0065791183151304,-0.0350585840642452,0.0,0.0,0.7146251201629639,0.1902116537094116
-0.0377974510192871,0.609545111656189,0.0075906203128397,-0.8040903210639954,0.0053871441632509,-0.0238393414765596,0.0,0.0,0.4658000469207763,-0.1470025181770324
-0.0377154350280761,0.5918608903884888,0.0093560321256518,-0.785960853099823,0.0042445003055036,-0.0228529404848814,0.0,0.0,0.5412731170654297,-0.5693714022636414
-0.0375116355717182,0.5742039084434509,0.0199918448925018,-0.7847598195075989,0.0046332450583577,0.0077749527990818,0.0,0.0,0.4355593919754028,0.1363908052444458
-0.0373743996024131,0.5565066933631897,0.0136785749346017,-0.7865415215492249,0.0046742861159145,0.0008208284853026,0.0,0.0,0.5819838047027588,-0.1924034357070922
-0.0371329300105571,0.5393010973930359,0.0236484557390213,-0.7646908164024353,0.0051681753247976,0.009877810254693,0.0,0.0,0.4358679056167602,0.4520822763442993
-0.0367571823298931,0.5223221778869629,0.0364761687815189,-0.7546271085739136,0.0062533202581107,0.0217031277716159,0.0,0.0,0.1807538270950317,-0.0678653717041015
-0.0363147743046283,0.5055726170539856,0.0428485572338104,-0.7444307208061218,0.0076219458132982,0.0273722019046545,0.0,0.0,-0.1213949918746948,-0.1751993298530578
-0.0358560569584369,0.4881693422794342,0.0444476418197155,-0.773483157157898,0.0090269902721047,0.0281010381877422,0.0,0.0,0.9150011539459229,0.2079391479492187
-0.0353260040283203,0.4707571566104889,0.0512654408812522,-0.7738872766494751,0.0107429092749953,0.0343185514211654,0.0,0.0,0.5658266544342041,-0.2924189567565918
-0.0348827354609966,0.4536868631839752,0.042991854250431,-0.7586881518363953,0.0120555013418197,0.0262518767267465,0.0,0.0,0.8811309337615967,-0.6913565993309021
-0.034334659576416,0.4368462562561035,0.0516752824187278,-0.7484999895095825,0.0151477307081222,0.0618444755673408,0.0,0.0,0.935043454170227,0.0834541320800781
-0.0337555892765522,0.4204294085502624,0.0546097047626972,-0.7296715378761292,0.0184036437422037,0.0651182606816291,0.0,0.0,0.8850598335266113,-0.0857698321342468
-0.0331623069941997,0.4040453433990478,0.0559539087116718,-0.7282283902168274,0.0217366944998502,0.0666610151529312,0.0,0.0,0.8656668663024902,0.2640258073806762
-0.0327100753784179,0.388003945350647,0.0424624495208263,-0.7129910588264465,0.0244587268680334,0.0544408336281776,0.0,0.0,0.9243533611297609,0.2922179698944092
-0.0322446823120117,0.3728047609329223,0.0436320267617702,-0.6755707263946533,0.0273318104445934,0.0574615523219108,0.0,0.0,0.8968765735626221,0.3994350433349609
-0.0316822044551372,0.3574593067169189,0.0528594627976417,-0.6820839047431946,0.0306759048253297,0.0668819695711135,0.0,0.0,0.9506254196166992,0.3586463928222656
-0.031107235699892,0.3429730832576751,0.0539186522364616,-0.6439120769500732,0.034202329814434,0.0705284848809242,0.0,0.0,0.9139885902404784,0.6966140270233154
-0.0306026451289653,0.3286490738391876,0.0485484078526496,-0.6366668343544006,0.0360899269580841,0.037752415984869,0.0,0.0,0.955103635787964,0.1008998155593872
-0.0302252769470214,0.3148667514324188,0.0362998098134994,-0.6125838160514832,0.0375087223947048,0.0283755548298358,0.0,0.0,0.942685842514038,0.604688286781311
-0.0297793392091989,0.3015337288379669,0.0442398302257061,-0.592589259147644,0.0378636084496974,0.0070975692942738,0.0,0.0,0.9397580623626708,0.5910251140594482
-0.0294763557612895,0.2890334129333496,0.0315517969429492,-0.5555384159088135,0.0366263389587402,-0.024745425209403,0.0,0.0,0.9322917461395264,0.590359091758728
-0.0290513038635253,0.2768995463848114,0.044655866920948,-0.5392340421676636,0.0345009490847587,-0.0425075925886631,0.0,0.0,0.8443789482116699,-0.2111755609512329
-0.0286710746586322,0.2647645771503448,0.0403243899345397,-0.5392799377441406,0.0322327874600887,-0.0453633591532707,0.0,0.0,0.7450764179229736,-0.4414238929748535
-0.0282227508723735,0.252494215965271,0.0467629544436931,-0.5453071594238281,0.0303274188190698,-0.038107480853796,0.0,0.0,0.8099656105041504,-0.1106144189834594
-0.0278135295957326,0.2401262372732162,0.042983055114746,-0.5496474504470825,0.0282915700227022,-0.0407169684767723,0.0,0.0,0.8871240615844727,-0.1857240200042724
-0.0274333003908395,0.2284627705812454,0.0401010178029537,-0.518340528011322,0.0262402165681123,-0.0410271771252155,0.0,0.0,0.6909904479980469,-0.4259895086288452
-0.0269874576479196,0.217400848865509,0.0462520718574523,-0.4916117787361145,0.024595458060503,-0.0328951999545097,0.0,0.0,0.6464974880218506,-0.6538093090057373
-0.0267297737300395,0.2069068998098373,0.0263644121587276,-0.4663867950439453,0.0240018628537654,-0.0118716033175587,0.0,0.0,0.8303084373474121,-0.0663312077522277
-0.0266196243464946,0.1963043808937072,0.0122521389275789,-0.4712015688419342,0.0227705389261245,-0.0246262364089489,0.0,0.0,0.4945604801177978,0.4071069955825805
-0.0264854431152343,0.1861219257116317,0.0144773991778492,-0.4525399208068847,0.0217321086674928,-0.0207686685025692,0.0,0.0,0.8908683061599731,0.5395607948303223
-0.0264424327760934,0.176270917057991,0.006775383837521,-0.4377888143062591,0.0192873179912567,-0.0488958582282066,0.0,0.0,0.7342286109924316,0.345929741859436
-0.0264678001403808,0.166831761598587,0.0001953045139089,-0.4194875955581665,0.0165975391864776,-0.0537957325577735,0.0,0.0,0.5714471340179443,-0.1350171566009521
-0.0265130046755075,0.1577362120151519,-0.0017651235684752,-0.4042173027992248,0.013874745927751,-0.0544557981193065,0.0,0.0,0.0245610475540161,0.1925940513610839
-0.0265071876347064,0.14852936565876,0.0030684131197631,-0.4091714322566986,0.0114200832322239,-0.0490933805704116,0.0,0.0,0.5697855949401855,0.5774348974227905
-0.0264335628598928,0.1391523629426956,0.0109424879774451,-0.4167339205741882,0.0078925630077719,-0.0705505758523941,0.0,0.0,0.2515263557434082,-0.7920759320259094
-0.0263439174741506,0.1295736581087112,0.0108425226062536,-0.4257114231586456,0.0060370857827365,-0.0371094271540641,0.0,0.0,0.5947346687316895,-0.4998221397399902
-0.0261149406433105,0.1201694086194038,0.0240985136479139,-0.417962908744812,0.0048510232008993,-0.0237211622297763,0.0,0.0,0.7851510047912598,-0.4789363145828247
-0.025737190619111,0.1107517778873443,0.0382620170712471,-0.4185594916343689,0.0043722102418541,-0.0095761194825172,0.0,0.0,0.8015391826629639,-0.909855306148529
-0.0254420284181833,0.1019154414534568,0.0281719081103801,-0.3927326202392578,0.0056993109174072,0.0265421774238348,0.0,0.0,0.8597756624221802,-0.349611759185791
-0.0251173973083496,0.0937065184116363,0.0309485998004674,-0.3648476004600525,0.0071937958709895,0.0298896040767431,0.0,0.0,0.7446646690368652,-0.8874810934066772
-0.0247228629887104,0.0859047994017601,0.0358965843915939,-0.3467646539211273,0.0107003794983029,0.0701317340135574,0.0,0.0,0.5438199043273926,-0.0463432669639587
-0.0242385864257812,0.0779085978865623,0.0444315113127231,-0.355419248342514,0.0146447867155075,0.0788879990577697,0.0,0.0,0.9277366399765016,-0.8019492030143738
-0.0238947868347167,0.0701450705528259,0.0289161056280136,-0.3451080918312073,0.0200391374528408,0.1078869253396987,0.0,0.0,0.9378106594085692,0.801257848739624
-0.0234016422182321,0.0632605850696563,0.0452371165156364,-0.3060382902622223,0.024071704596281,0.0806512087583541,0.0,0.0,0.5345727205276489,0.2618985176086426
-0.0229448322206735,0.0565145835280418,0.0417050346732139,-0.2998926937580108,0.0279989503324031,0.0785450786352157,0.0,0.0,0.7677290439605713,0.8782439231872559
-0.022592257708311,0.0503959283232688,0.0333225764334201,-0.2719751596450805,0.0299160722643136,0.0383423157036304,0.0,0.0,0.0679602622985839,0.4887037277221679
-0.022199248895049,0.0443025939166545,0.037099253386259,-0.2708609998226166,0.0320835709571838,0.0433498993515968,0.0,0.0,0.7439358234405518,0.7919049263000488
-0.0218338966369628,0.0387487038969993,0.0360755734145641,-0.2468505799770355,0.0325415059924125,0.0091586643829941,0.0,0.0,0.4026441574096679,0.7270665168762207
-0.0215126983821392,0.0334983691573143,0.0332681573927402,-0.2333222031593322,0.0314116701483726,-0.0225968100130558,0.0,0.0,0.2546104192733764,0.5749692916870117
-0.0211813934147357,0.0281606297940015,0.0354837849736213,-0.2371847331523895,0.0290812067687511,-0.0466091372072696,0.0,0.0,0.5710132122039795,0.29376220703125
-0.0209806449711322,0.023021874949336,0.0229732599109411,-0.2283335030078888,0.026218231767416,-0.0572596900165081,0.0,0.0,0.6259362697601318,-0.1039574146270752
-0.0209445003420114,0.0179967731237411,0.0072286585345864,-0.2232816815376281,0.0226485710591077,-0.0713932886719703,0.0,0.0,0.8220667839050293,0.4842817783355713
-0.020812701433897,0.0135104749351739,0.0162823349237442,-0.1993450373411178,0.019595393911004,-0.0610637068748474,0.0,0.0,0.5008913278579712,0.4482684135437011
-0.020634651184082,0.0088750096037983,0.0206530205905437,-0.2059863209724426,0.0167738962918519,-0.0564298555254936,0.0,0.0,0.6492494344711304,-0.4931191205978393
-0.0203277580440044,0.0047317836433649,0.0328972749412059,-0.1841192990541458,0.0145939821377396,-0.0435983575880527,0.0,0.0,0.6413178443908691,-0.4602948427200317
-0.0200578682124614,0.0010907388059422,0.0293352752923965,-0.1618021875619888,0.0122785754501819,-0.0463082082569599,0.0,0.0,0.5620982646942139,-0.2756652235984802
-0.0197597499936819,-0.001348998514004,0.0491694435477256,-0.1083851903676986,-0.0068386900238692,-0.3823453783988952,0.0,1.0,0.590269923210144,0.084477424621582
-0.0193488113582134,-0.0025748752523213,0.0507607944309711,-0.0545736029744148,-0.0163166280835866,-0.1894797682762146,1.0,1.0,0.8436119556427002,-0.6470304131507874
-0.0189513210207223,-0.0021839879918843,0.0367664918303489,0.0173879787325859,-0.0133246639743447,0.0599036291241645,1.0,1.0,-0.3994429111480713,-0.6977716684341431
-0.0186542514711618,-0.0014644765760749,0.0242137350142002,0.0320150405168533,-0.0078687090426683,0.1091526299715042,1.0,1.0,-0.239875316619873,0.4403712749481201
-0.0183446891605854,-0.0006045603659003,0.0244600661098957,0.0382281169295311,-0.0014192877570167,0.1290291100740432,1.0,1.0,-0.519959032535553,0.5201468467712402
-0.018047522753477,-0.0003426337207201,0.027656864374876,0.0116409705951809,0.0006109092500992,0.0406037122011184,1.0,1.0,-0.2399734854698181,-0.2912501096725464
-0.0178050994873046,-0.0003448510251473,0.0242416076362133,-9.748661250341684e-05,0.000609662849456,-2.425534148642328e-05,1.0,1.0,-0.5685219764709473,-0.1839741468429565
-0.0176243782043457,-0.000346710672602,0.0180758535861969,-8.19185734144412e-05,0.0006086163339205,-2.0360097551019866e-05,1.0,1.0,-0.722102165222168,-0.4277927279472351
-0.0175054557621479,-0.000346710672602,0.0118954963982105,-4.4988331637796374e-07,0.00060860713711,-1.0974882513892227e-07,1.0,1.0,-0.6760076284408569,-0.1797098517417907
-0.0174481384456157,-0.000346710672602,0.0057323812507092,5.495596155924432e-07,0.0006086131907068,1.368735240703245e-07,1.0,1.0,-0.7450749278068542,-0.1897614002227783
-0.0174495689570903,-0.000346710672602,-0.000141531068948,5.371857625391385e-08,0.0006107581430114,4.170485772192478e-05,1.0,1.0,-0.8336023092269897,0.0361982583999633
-0.0174688342958688,-0.000346710672602,-0.0019763458985835,5.170697932044277e-07,0.000640622805804,0.0005814360338263,1.0,1.0,-0.7803130745887756,-0.1887468099594116
-0.0174811370670795,-0.000346710672602,-0.0012499872827902,3.402201400604099e-07,0.0006595172453671,0.0003677345230244,1.0,1.0,-0.9160190224647522,0.0308661460876464
