x_pos,y_pos,x_vel,y_vel,angle,ang_vel,leg_1,leg_2,main_booster,lat_booster
-0.0015043258899822,1.402940034866333,-0.1524993628263473,-0.3546700179576874,0.0018407914321869,0.0363170020282268,0.0,0.0,-0.1914253830909729,0.8407509326934814
-0.0029204369056969,1.3942947387695312,-0.1416747570037841,-0.3842328786849975,0.0019118193304166,0.0014213954564183,0.0,0.0,0.0570681095123291,0.6389821767807007
-0.0041758539155125,1.3853480815887451,-0.1245545893907547,-0.3976296186447143,0.0009331452893093,-0.0195749849081039,0.0,0.0,-0.004778504371643,0.6907060146331787
-0.0053760530427098,1.3757145404815674,-0.1180062070488929,-0.4281526803970337,-0.0010583485709503,-0.0398335829377174,0.0,0.0,0.5197508335113525,0.5300285816192627
-0.0063974382355809,1.366297960281372,-0.0994978100061416,-0.4185191988945007,-0.0036690311972051,-0.0522187650203704,0.0,0.0,-0.2616668343544006,0.0173662900924682
-0.0074127195402979,1.3561969995498655,-0.0989710316061973,-0.448946475982666,-0.0061935009434819,-0.0504936948418617,0.0,0.0,-0.2451628446578979,0.1676253080368042
-0.0084247589111328,1.3454116582870483,-0.0987294614315033,-0.4793634712696075,-0.0086304945871233,-0.0487446971237659,0.0,0.0,0.2635730504989624,0.244374394416809
-0.0093176839873194,1.3346823453903198,-0.0874695107340812,-0.4768599271774292,-0.0104342969134449,-0.0360794439911842,0.0,0.0,-0.4662400484085083,0.2231464385986328
-0.0102131841704249,1.3232688903808594,-0.0878059938549995,-0.5072857737541199,-0.0121486857533454,-0.0342910960316658,0.0,0.0,-0.267947256565094,0.2826844453811645
-0.0111139295622706,1.3111708164215088,-0.0884298831224441,-0.5377041101455688,-0.0137718319892883,-0.0324658341705799,0.0,0.0,0.296222448348999,-0.608644962310791
-0.0119898794218897,1.299087643623352,-0.0874126106500625,-0.5370258092880249,-0.0139482310041785,-0.0035285619087517,0.0,0.0,-0.3559494614601135,-0.6275991201400757
-0.0129204746335744,1.2863197326660156,-0.0940868034958839,-0.567457377910614,-0.0129339899867773,0.0202865079045295,0.0,0.0,0.4918503761291504,0.3893148899078369
-0.013739014044404,1.2738124132156372,-0.0835392922163009,-0.5558663010597229,-0.0112695479765534,0.0332918837666511,0.0,0.0,-0.4828742742538452,-0.6745643615722656
-0.0146212577819824,1.2606151103973389,-0.0911991894245147,-0.5865287184715271,-0.0083256922662258,0.0588823370635509,0.0,0.0,-0.39827561378479,-0.5906023979187012
-0.0155583377927541,1.246740221977234,-0.097683846950531,-0.6166489124298096,-0.0043882704339921,0.0787553191184997,0.0,0.0,0.1011924743652343,0.067834734916687
-0.0164431575685739,1.232477784156799,-0.0929022952914238,-0.6338809132575989,-1.0134303011000156e-05,0.08757034689188,0.0,0.0,-0.3896076083183288,0.3393487930297851
-0.0173521041870117,1.2175310850143433,-0.0954116582870483,-0.6643046140670776,0.0044659818522632,0.0895303860306739,0.0,0.0,-0.3378088474273681,0.127905011177063
-0.0182873718440532,1.2019001245498655,-0.0981530249118805,-0.6947264075279236,0.0090412180870771,0.0915130227804184,0.0,0.0,0.0201191902160644,0.9106414318084716
-0.019112205132842,1.186339020729065,-0.0853765457868576,-0.691625714302063,0.0118971429765224,0.0571236833930015,0.0,0.0,-0.2326433658599853,0.4122672080993652
-0.0199676509946584,1.1700934171676636,-0.0885430127382278,-0.7220519781112671,0.0148544404655694,0.0591513589024543,0.0,0.0,-0.3540889024734497,0.0443376302719116
-0.0208558086305856,1.1531636714935305,-0.0919081047177314,-0.7524713277816772,0.0179127380251884,0.0611714832484722,0.0,0.0,0.5536326169967651,0.3356955051422119
-0.0217749588191509,1.1361737251281738,-0.0951537042856216,-0.7551451325416565,0.0211240965873003,0.0642326548695564,0.0,0.0,0.4829330444335937,0.6990549564361572
-0.0225567817687988,1.1192373037338257,-0.0803801864385604,-0.752764105796814,0.0232905428856611,0.0433328375220298,0.0,0.0,0.6815316677093506,0.6462688446044922
-0.0232556350529193,1.1020901203155518,-0.071063607931137,-0.7621157765388489,0.0244565159082412,0.0233215205371379,0.0,0.0,0.5166919231414795,0.0294018983840942
-0.0241386406123638,1.0851396322250366,-0.088966503739357,-0.7533631920814514,0.0251209009438753,0.0132886497303843,0.0,0.0,0.7062472105026245,0.4897449016571045
-0.0252305977046489,1.068567991256714,-0.1092722788453102,-0.736517608165741,0.0251918230205774,0.0014184839092195,0.0,0.0,-0.0645999312400817,0.2061681747436523
-0.0263646133244037,1.0513120889663696,-0.1135759726166725,-0.7669356465339661,0.0253650061786174,0.0034638065844774,0.0,0.0,0.5710397958755493,0.4472389221191406
-0.0276859290897846,1.034543752670288,-0.1318290084600448,-0.7452519536018372,0.0250648856163024,-0.0060024121776223,0.0,0.0,0.0668834447860717,-0.0767187476158142
-0.0291482917964458,1.0178381204605105,-0.1456467658281326,-0.7424678206443787,0.0244756005704402,-0.0117856254801154,0.0,0.0,-0.7512642741203308,-0.3262790441513061
-0.0306561477482318,1.0004479885101318,-0.1502856910228729,-0.7728859782218933,0.0239859726279974,-0.0097926408052444,0.0,0.0,0.5607386827468872,0.0143537521362304
-0.0322117805480957,0.9835734963417052,-0.1552506238222122,-0.7499725818634033,0.0236765183508396,-0.0061892266385257,0.0,0.0,0.623161792755127,0.0587331056594848
-0.0339012145996093,0.96665757894516,-0.1683719456195831,-0.7518102526664734,0.0231105294078588,-0.0113198487088084,0.0,0.0,0.0493545532226562,-0.0408993959426879
-0.035702895373106,0.9498188495635986,-0.1794441640377044,-0.7483710646629333,0.022397419437766,-0.0142621155828237,0.0,0.0,-0.7783299088478088,0.5935589075088501
-0.0375112518668174,0.932292103767395,-0.1791405379772186,-0.778950035572052,0.0207229889929294,-0.0334884189069271,0.0,0.0,-0.415835976600647,-0.3736046552658081
-0.0393691062927246,0.9140806794166564,-0.1841804087162017,-0.8093682527542114,0.0191404465585947,-0.0316509306430816,0.0,0.0,0.8845949172973633,-0.4003810286521911
-0.0412727370858192,0.8964795470237732,-0.1889531910419464,-0.7822542190551758,0.0177436061203479,-0.027936652302742,0.0,0.0,-0.6549492478370667,-0.8036463856697083
-0.0432933792471885,0.8781881332397461,-0.2024312913417816,-0.8129538893699646,0.0181024223566055,0.0071763470768928,0.0,0.0,-0.2329704761505127,0.7262363433837891
-0.0453042015433311,0.8592197299003601,-0.1999799311161041,-0.8430308699607849,0.0170104447752237,-0.0218394584953784,0.0,0.0,0.9700043201446532,0.4513953924179077
-0.0474307052791118,0.8410724997520447,-0.2114119529724121,-0.8065283298492432,0.0157840438187122,-0.0245281755924224,0.0,0.0,-0.1670665740966797,0.7784098386764526
-0.049544908106327,0.8222435712814331,-0.2086189240217209,-0.8368173241615295,0.0130168665200471,-0.0553433485329151,0.0,0.0,-0.50922030210495,0.9722213745117188
-0.0516485199332237,0.8027397990226746,-0.2060201168060302,-0.8668028116226196,0.0087358234450221,-0.0856210589408874,0.0,0.0,0.949087619781494,0.4600824117660522
-0.053664781153202,0.7834801077842712,-0.1980510652065277,-0.8559702038764954,0.0052024973556399,-0.070666566491127,0.0,0.0,0.9147577285766602,0.8575711250305176
-0.0555448532104492,0.7640735507011414,-0.1830177754163742,-0.8625083565711975,0.0002808939316309,-0.0984320640563964,0.0,0.0,0.970511555671692,0.8790526390075684
-0.0572792068123817,0.7449269890785217,-0.1670112162828445,-0.8509712815284729,-0.0060612517409026,-0.1268429458141327,0.0,0.0,0.9513695240020752,0.3395860195159912
-0.0591133125126361,0.7256186604499817,-0.1768344938755035,-0.8581856489181519,-0.0125607987865805,-0.1299906522035598,0.0,0.0,0.9588446617126464,0.8039427995681763
-0.0608738884329795,0.7062104940414429,-0.1680437624454498,-0.8626764416694641,-0.0204681307077407,-0.1581467539072036,0.0,0.0,0.9059860706329346,0.0324485301971435
-0.0626079589128494,0.6868895888328552,-0.1657865345478058,-0.8588280081748962,-0.0279920287430286,-0.1504779011011123,0.0,0.0,0.98587965965271,-0.1047495007514953
-0.0645037665963172,0.668393611907959,-0.1813764721155166,-0.8222225904464722,-0.036086518317461,-0.1618897318840026,0.0,0.0,0.9382498264312744,-0.2633897662162781
-0.0665765777230262,0.6506086587905884,-0.1984081715345382,-0.7906869649887085,-0.0448501855134964,-0.1752736419439315,0.0,0.0,0.2151764631271362,0.4823753833770752
-0.0687032714486122,0.6327016353607178,-0.2037732154130935,-0.7961511611938477,-0.0536385513842105,-0.175767108798027,0.0,0.0,0.2588421106338501,0.3260912895202636
-0.0707527175545692,0.614754319190979,-0.1966130137443542,-0.7979821562767029,-0.06187754124403,-0.1647796928882599,0.0,0.0,0.985633134841919,-0.3366594314575195
-0.0728718787431716,0.5974554419517517,-0.2033084332942962,-0.7692196369171143,-0.0703964829444885,-0.1703787893056869,0.0,0.0,-0.1431569457054138,-0.0109708905220031
-0.0750466361641883,0.5794730186462402,-0.2089110612869262,-0.7996434569358826,-0.0788787454366684,-0.1696453392505645,0.0,0.0,0.4842240810394287,0.1488745212554931
-0.0772178620100021,0.5618784427642822,-0.208602949976921,-0.7824556231498718,-0.0873145684599876,-0.1687166094779968,0.0,0.0,0.987043023109436,-0.4588420391082763
-0.079215332865715,0.5444530248641968,-0.1920951008796692,-0.7749274969100952,-0.0948917344212532,-0.1515434980392456,0.0,0.0,0.4724972248077392,-0.4604492783546448
-0.081313706934452,0.5269832611083984,-0.2018280774354934,-0.7769657373428345,-0.1028366386890411,-0.15889772772789,0.0,0.0,0.8648616075515747,-0.2448685765266418
-0.0832702666521072,0.5101557374000549,-0.1881694495677948,-0.7484239339828491,-0.1102677583694458,-0.1486221849918365,0.0,0.0,0.9047691822052002,-0.1808430552482605
-0.085039235651493,0.4937774538993835,-0.1701848208904266,-0.7284356355667114,-0.116943247616291,-0.1335097402334213,0.0,0.0,0.6746209859848022,-0.2782881259918213
-0.0866920500993728,0.4779452681541443,-0.1589296162128448,-0.7041628360748291,-0.1232519224286079,-0.1261736452579498,0.0,0.0,0.9369959831237792,0.3216423988342285
-0.0883765220642089,0.4628171026706695,-0.1617064625024795,-0.6729342341423035,-0.129960298538208,-0.1341675072908401,0.0,0.0,0.6738278865814209,0.2840932607650757
-0.0900174155831337,0.4475530385971069,-0.1576058566570282,-0.678982138633728,-0.136418342590332,-0.1291610300540924,0.0,0.0,0.0243183374404907,0.3605655431747436
-0.09171724319458,0.4322640895843506,-0.1632294952869415,-0.680143415927887,-0.1431564688682556,-0.1347624510526657,0.0,0.0,-0.2902805805206299,0.1352097988128662
-0.0934738144278526,0.4162913560867309,-0.1689015924930572,-0.7105649709701538,-0.1498897820711136,-0.1346666663885116,0.0,0.0,-0.179589569568634,-0.4330542087554931
-0.0952870398759841,0.3996347784996032,-0.1745765060186386,-0.7409865856170654,-0.156620979309082,-0.1346239298582077,0.0,0.0,0.9564015865325928,-0.6328416466712952
-0.0971229523420333,0.3830022811889648,-0.1781515777111053,-0.7398031949996948,-0.1620623171329498,-0.1088271364569664,0.0,0.0,0.9885504245758056,-0.6434149146080017
-0.099108412861824,0.3667901754379272,-0.1939636170864105,-0.7210484147071838,-0.1666425317525863,-0.0916044414043426,0.0,0.0,0.968818426132202,-0.0653124451637268
-0.1009562462568283,0.3513959944248199,-0.1803185045719146,-0.6846902966499329,-0.171109601855278,-0.0893415883183479,0.0,0.0,0.876589298248291,-0.2131255865097046
-0.1027124375104904,0.335784912109375,-0.1715839058160781,-0.694297194480896,-0.1751527339220047,-0.0808629840612411,0.0,0.0,0.9745240211486816,-0.8539884686470032
-0.1043781265616417,0.3210145831108093,-0.1643113195896148,-0.656724214553833,-0.1774148494005203,-0.0452423505485057,0.0,0.0,0.9950501918792723,-0.1827389001846313
-0.1061116233468055,0.3064340949058532,-0.1705616116523742,-0.6483596563339233,-0.180214062333107,-0.0559843406081199,0.0,0.0,0.9858033657073976,0.8550189733505249
-0.107807919383049,0.2923882007598877,-0.1648751199245453,-0.6248458623886108,-0.1849881559610366,-0.0954815968871116,0.0,0.0,0.8673374652862549,0.2766296863555908
-0.1093975082039833,0.2786857485771179,-0.1543527692556381,-0.6095780730247498,-0.1896164566278457,-0.0925661027431488,0.0,0.0,0.983715295791626,0.1073987483978271
-0.1110047325491905,0.2658368349075317,-0.1553887128829956,-0.5717556476593018,-0.1949769556522369,-0.1072102636098861,0.0,0.0,0.8069174289703369,0.2242532968521118
-0.1124675720930099,0.2532099783420563,-0.1413062512874603,-0.561858594417572,-0.1999840438365936,-0.1001418083906173,0.0,0.0,0.9478118419647216,-0.1819148063659668
-0.1139345169067382,0.2405887246131897,-0.1415252685546875,-0.5616511106491089,-0.205194815993309,-0.1042154431343078,0.0,0.0,0.9790146350860596,0.1313033103942871
-0.1152992248535156,0.2278304249048233,-0.1316514760255813,-0.567712128162384,-0.2100499868392944,-0.0971036255359649,0.0,0.0,0.979262351989746,0.2432367801666259
-0.1166727989912033,0.2149965167045593,-0.1323578208684921,-0.5711176991462708,-0.2151028364896774,-0.1010569185018539,0.0,0.0,0.9987705945968628,-0.1589856147766113
-0.1179081946611404,0.2028880268335342,-0.1184664219617843,-0.5389012694358826,-0.2202263176441192,-0.1024696677923202,0.0,0.0,0.9847952127456664,0.2971937656402588
-0.1188921928405761,0.1914985030889511,-0.0937560573220253,-0.5068995952606201,-0.2249300479888916,-0.0940745770931243,0.0,0.0,0.99718177318573,-0.496532678604126
-0.1198446303606033,0.1809151470661163,-0.0899580270051956,-0.4711880981922149,-0.2302874028682708,-0.1071470752358436,0.0,0.0,0.9912896156311036,-0.7430351376533508
-0.1209848374128341,0.1703011095523834,-0.1097912788391113,-0.4724026024341583,-0.2345796972513198,-0.0858454778790474,0.0,0.0,0.994783878326416,-0.5564752221107483
-0.1219512969255447,0.160397469997406,-0.093648113310337,-0.4406416118144989,-0.2376235574483871,-0.0608776211738586,0.0,0.0,0.9915883541107178,-0.5839816331863403
-0.1229819282889366,0.150883138179779,-0.1008278355002403,-0.4232222139835357,-0.2398849725723266,-0.0452282503247261,0.0,0.0,0.9457111358642578,-0.8184088468551636
-0.1240096092224121,0.1418990194797516,-0.1019966751337051,-0.3994198441505432,-0.2406699657440185,-0.0156999342143535,0.0,0.0,0.954235315322876,-0.8054055571556091
-0.1249722465872764,0.1334677338600158,-0.097034178674221,-0.3745976686477661,-0.2398897409439087,0.0156045584008097,0.0,0.0,0.6480010747909546,-0.5540777444839478
-0.1258049011230468,0.1251801997423172,-0.085333839058876,-0.3679980635643005,-0.2377821207046508,0.0421523004770278,0.0,0.0,0.8960292339324951,-0.3321338295936584
-0.1265743225812912,0.1167715191841125,-0.0791179835796356,-0.3733721077442169,-0.2355806678533554,0.0440288707613945,0.0,0.0,0.8752446174621582,-0.2967448234558105
-0.127190500497818,0.1083083227276802,-0.0642324388027191,-0.3757265508174896,-0.2329247593879699,0.0531181097030639,0.0,0.0,0.9888925552368164,-0.4754478931427002
-0.1275311410427093,0.1001029089093208,-0.0374605059623718,-0.3641517758369446,-0.2294827401638031,0.068840391933918,0.0,0.0,0.9850425720214844,-0.3571062684059143
-0.1276562660932541,0.0918484330177307,-0.0166384428739547,-0.3662298619747162,-0.225299671292305,0.0836615040898323,0.0,0.0,0.9937900304794312,0.1314949989318847
-0.1276406347751617,0.0842376798391342,-0.0025002607144415,-0.3376391232013702,-0.2211824655532837,0.0823444053530693,0.0,0.0,0.9519643783569336,-0.6295379400253296
-0.1274928152561187,0.0772626474499702,0.0093867052346467,-0.3092024028301239,-0.2157245278358459,0.1091587543487548,0.0,0.0,0.9609079360961914,0.2265750169754028
-0.1270856857299804,0.070716343820095,0.0346655622124671,-0.2900751233100891,-0.2096179574728012,0.1221314892172813,0.0,0.0,0.759429931640625,0.0467715263366699
-0.1265554428100586,0.0639628246426582,0.0465081334114074,-0.2992484867572784,-0.2030500471591949,0.1313580572605133,0.0,0.0,0.8588273525238037,0.1960710287094116
-0.1260215789079666,0.0573851913213729,0.0471701994538307,-0.2915014922618866,-0.1967914998531341,0.1251709163188934,0.0,0.0,0.767350435256958,-0.3360416293144226
-0.1252721846103668,0.0514549352228641,0.0683419778943061,-0.2627059817314148,-0.1901503652334213,0.1328224539756775,0.0,0.0,0.92836594581604,-0.5112704038619995
-0.1245183944702148,0.045838888734579,0.0678679049015045,-0.2486568242311477,-0.1826058626174926,0.1508901119232177,0.0,0.0,0.9542994499206544,0.1535379886627197
-0.1237914115190506,0.0409672819077968,0.0658995360136032,-0.2156915068626403,-0.1757791638374328,0.1365338265895843,0.0,0.0,0.8586883544921875,-0.6239292025566101
-0.1229241341352462,0.0365601629018783,0.0784208849072456,-0.1949134469032287,-0.16746486723423,0.1662856638431549,0.0,0.0,0.8664648532867432,-0.2432880401611328
-0.1220272034406662,0.0327382646501064,0.0816984102129936,-0.1689809262752533,-0.1594679057598114,0.1599396616220474,0.0,0.0,0.4299064874649048,-0.694603443145752
-0.1212105751037597,0.0292296502739191,0.0724439173936843,-0.1549762636423111,-0.1502557098865509,0.1842437088489532,0.0,0.0,0.3741657733917236,-0.1221618056297302
-0.1204031929373741,0.02565673366189,0.0716377049684524,-0.1579034477472305,-0.1411773860454559,0.1815665066242218,0.0,0.0,0.5296032428741455,-0.0624018311500549
-0.1196747794747352,0.0222501847892999,0.0642874464392662,-0.1506124287843704,-0.132637158036232,0.1708046495914459,0.0,0.0,0.5366944074630737,0.5780482292175293
-0.1190361008048057,0.0189040750265121,0.0568406470119953,-0.1481059193611145,-0.1256500333547592,0.1397425234317779,0.0,0.0,0.4798001050949096,0.6943546533584595
-0.118207074701786,0.0158062316477298,0.0771110728383064,-0.1372081637382507,-0.1198917403817176,0.1151661276817321,0.0,0.0,0.2223327159881591,0.2405574321746826
-0.1173483878374099,0.0124228568747639,0.0799063220620155,-0.1499057412147522,-0.1139629408717155,0.1185759678483009,0.0,0.0,0.90390944480896,0.0522695779800415
-0.1162090301513671,0.0101492023095488,0.094492882490158,-0.0996874496340751,-0.0946259349584579,0.3867793679237366,1.0,0.0,0.3375790119171142,-0.3288677930831909
-0.1150280013680458,0.0081366514787077,0.0986698120832443,-0.0883282274007797,-0.0753732770681381,0.3850547671318054,1.0,0.0,0.1048312187194824,-0.5349635481834412
-0.1137403473258018,0.0062987660057842,0.1080292090773582,-0.0807678326964378,-0.0548651330173015,0.4101626276969909,1.0,0.0,-0.0224769711494445,-0.2864881753921509
-0.1124526038765907,0.0037821389269083,0.1080257892608642,-0.111220858991146,-0.0343575850129127,0.4101507663726806,1.0,0.0,0.0866109132766723,-0.3575530052185058
-0.1111510246992111,0.0013918972108513,0.1094181165099144,-0.1058849915862083,-0.0138727016746997,0.4096978306770324,1.0,0.0,0.0419565439224243,-0.343347430229187
-0.1098041534423828,-0.0009328627493232,0.1137539520859718,-0.1032616421580314,0.0067884824238717,0.4132237434387207,0.0,0.0,0.8199889659881592,0.9387593269348145
-0.1085589379072189,-0.0026133202482014,0.1253431141376495,-0.0746910721063613,0.0059459037147462,-0.0168924871832132,0.0,1.0,-0.4853341579437256,0.2710409164428711
-0.1074392348527908,-0.0038086913991719,0.1135477423667907,-0.0531357713043689,0.0043959133327007,-0.0310002472251653,1.0,1.0,-0.3963788747787475,-0.9162715077400208
-0.1065163612365722,-0.0045377160422503,0.091980330646038,-0.0324168615043163,0.0047007729299366,0.0060968222096562,1.0,1.0,-0.6563975214958191,-0.9758119583129884
-0.1057823151350021,-0.004803504794836,0.0714400261640548,-0.0118333669379353,0.0066375345923006,0.0387345738708972,1.0,1.0,-0.7877909541130066,-0.7958135008811951
-0.1052182167768478,-0.0046089910902082,0.053346000611782,0.0086198393255472,0.0096555249765515,0.0603593215346336,1.0,1.0,-0.7827503681182861,-0.578829824924469
-0.1048063263297081,-0.0039805676788091,0.0384811796247959,0.0279045607894659,0.0123271299526095,0.0534283146262168,1.0,1.0,-0.5915130972862244,0.1727763414382934
-0.1044332534074783,-0.0029983425047248,0.0355761274695396,0.0436473563313484,0.0140040880069136,0.0335057973861694,1.0,1.0,-0.6934120059013367,-0.0441373586654663
-0.1041646972298622,-0.0020768784452229,0.0338463708758354,0.0410031080245971,0.0071106259711086,-0.1378679871559143,1.0,1.0,-0.6340078711509705,-0.3331295251846313
