x_pos,y_pos,x_vel,y_vel,angle,ang_vel,leg_1,leg_2,main_booster,lat_booster
-0.0015265464317053,1.4030961990356443,-0.1541420966386795,-0.3477340340614319,0.0013319596182554,0.0262420326471328,0.0,0.0,0.8035490896399735,-0.6299262595712167
-0.0030435561202466,1.395519137382507,-0.1540065109729766,-0.3367559611797333,0.0036194694694131,0.045755311846733,0.0,0.0,-0.9212481967568336,-0.7902669059707279
-0.0046080588363111,1.387407302856445,-0.1595873236656189,-0.3605390191078186,0.0067230788990855,0.0620776899158954,0.0,0.0,0.5621545555195571,-0.9298578721383052
-0.0063732145354151,1.379470705986023,-0.1809464246034622,-0.352761298418045,0.011109878309071,0.0877441838383674,0.0,0.0,0.6905764484088939,-0.7770165483690202
-0.0080571174621582,1.3720107078552246,-0.1743295639753341,-0.331612765789032,0.0169811081141233,0.1174353212118148,0.0,0.0,-0.878201570896219,-0.8092996865740474
-0.0097836498171091,1.3640203475952148,-0.1795003414154052,-0.3552256226539612,0.0237563289701938,0.135516956448555,0.0,0.0,-0.0442312454000497,0.8178622040544102
-0.0114396093413233,1.355504035949707,-0.1705571860074997,-0.3785848319530487,0.0286638308316469,0.0981591865420341,0.0,0.0,0.9860858571682662,0.8108162622623589
-0.0128479953855276,1.3476393222808838,-0.1443574726581573,-0.3496188521385193,0.0321408994495868,0.069547563791275,0.0,0.0,-0.5582338590761025,-0.6884092269517744
-0.0142992017790675,1.3392506837844849,-0.1497735679149627,-0.3729285597801208,0.036750141531229,0.0921932980418205,0.0,0.0,-0.4280724776219868,0.9348514918904904
-0.0156622882932424,1.3303440809249878,-0.1388642340898513,-0.3959236741065979,0.0392758585512638,0.0505189672112464,0.0,0.0,-0.6481789495200123,0.8396345190623028
-0.0169330593198537,1.3209136724472046,-0.1275043785572052,-0.4191326200962066,0.0396955721080303,0.0083949379622936,0.0,0.0,-0.5660034342556697,0.9566524853062248
-0.0181008335202932,1.3109581470489502,-0.1148794740438461,-0.4424240291118622,0.0378194227814674,-0.0375263057649135,0.0,0.0,0.3650315905108918,-0.938739730074468
-0.0192201621830463,1.3013478517532349,-0.11186995357275,-0.4271183013916015,0.0377620011568069,-0.0011484447168186,0.0,0.0,0.3567284466340619,-0.6955680493449647
-0.0203194618225097,1.291640281677246,-0.1112520918250083,-0.4314848780632019,0.0390712618827819,0.0261876434087753,0.0,0.0,0.2984284963039552,-0.9945487906649304
-0.0213690754026174,1.2823885679244995,-0.1082372888922691,-0.4112725853919983,0.0423182994127273,0.0649461597204208,0.0,0.0,0.5000256575861322,0.9414593025277136
-0.0222161300480365,1.273013710975647,-0.0861631631851196,-0.4166995584964752,0.0437588356435298,0.0288134403526783,0.0,0.0,0.2960360295635353,-0.7100084502115269
-0.0229997634887695,1.264128804206848,-0.0813843756914138,-0.3949787318706512,0.0467548668384552,0.0599259249866008,0.0,0.0,0.7968506870396292,0.8750799205805981
-0.0235320087522268,1.2553354501724243,-0.0548037365078926,-0.3908688127994537,0.0483165010809898,0.0312354415655136,0.0,0.0,0.5934644164069163,-0.7061979697225873
-0.0240233428776264,1.2471837997436523,-0.0523457936942577,-0.3624043464660644,0.0515080764889717,0.0638372525572776,0.0,0.0,0.9118749322534808,0.9232749148718892
-0.0245449058711528,1.2394819259643557,-0.0533784218132495,-0.342343121767044,0.0527147948741912,0.0241366177797317,0.0,0.0,0.0273845883697922,0.7359740152896198
-0.0249065402895212,1.2319694757461548,-0.0360351875424385,-0.333888441324234,0.0525872483849525,-0.0025514443404972,0.0,0.0,-0.4846770291764053,-0.9642349031635564
-0.0253058429807424,1.2239171266555786,-0.0418001934885978,-0.3579456210136413,0.0544340796768665,0.0369401909410953,0.0,0.0,0.2293708325940895,0.9683970466248846
-0.0254996307194232,1.215957522392273,-0.0194463692605495,-0.3537600338459015,0.0545064881443977,0.0014482522383332,0.0,0.0,-0.3132177579785362,0.9576859486635876
-0.0255687721073627,1.2074660062789917,-0.0049888016656041,-0.3773370385169983,0.0525983162224292,-0.038166768848896,0.0,0.0,0.6398074787740131,0.6328109896375083
-0.0257328990846872,1.1993966102600098,-0.0130265355110168,-0.3585175573825836,0.0492408946156501,-0.0671546161174774,0.0,0.0,-0.4102426515208774,0.915799761583266
-0.0257991794496774,1.190786838531494,-0.002021285239607,-0.3825174868106842,0.0446900464594364,-0.0910167694091796,0.0,0.0,-0.3520704466619204,0.6628515464824748
-0.0257691387087106,1.1816567182540894,0.0087458277121186,-0.4056209325790405,0.0390217863023281,-0.1133650913834571,0.0,0.0,0.4479406760957778,0.7012542259197938
-0.025793457403779,1.1730860471725464,0.004711381625384,-0.3807422816753387,0.0319619812071323,-0.141196146607399,0.0,0.0,0.4784884037608021,0.9767693152000114
-0.0258502010256052,1.1650328636169434,0.003309664549306,-0.3577573597431183,0.0230910386890172,-0.1774190813302993,0.0,0.0,-0.1325719592497958,0.7922171803829045
-0.0257991794496774,1.1564518213272097,0.0153556782752275,-0.3812620937824249,0.0129709793254733,-0.2024013251066208,0.0,0.0,-0.1209045239943031,0.6216244042491653
-0.0256491657346487,1.147351861000061,0.0262514650821685,-0.4043862223625183,0.0018657491309568,-0.2221045941114425,0.0,0.0,0.2722491696140501,0.7579615434657594
-0.0254581458866596,1.1382272243499756,0.0316537842154502,-0.4055761098861694,-0.0105216903612017,-0.2477490901947021,0.0,0.0,0.928980651681595,-0.6606519772014321
-0.0253627784550189,1.1299883127212524,0.020695986226201,-0.3662849366664886,-0.0215368457138538,-0.2203031033277511,0.0,0.0,0.5406146891413266,-0.7646142631883747
-0.025335406884551,1.121724009513855,0.0121230240911245,-0.3674665987491607,-0.0308059379458427,-0.1853817999362945,0.0,0.0,0.395688441834976,0.8801165167461337
-0.0251544006168842,1.1137248277664185,0.0288795791566371,-0.3557769656181335,-0.0414542257785797,-0.2129657566547393,0.0,0.0,-0.2208339163751591,0.6611263517728346
-0.0248666759580373,1.1052004098892212,0.0405539236962795,-0.3792339265346527,-0.0530876368284225,-0.2326682806015014,0.0,0.0,0.9950999700422074,0.6558773997223966
-0.0244782455265522,1.096968173980713,0.0516293719410896,-0.3663849532604217,-0.0657340809702873,-0.2529289126396179,0.0,0.0,0.4713595716218641,-0.851514369411346
-0.0240198131650686,1.0892330408096311,0.0564547292888164,-0.344285786151886,-0.0762389972805976,-0.2100983411073684,0.0,0.0,-0.6192819923043202,-0.9035035195096628
-0.0235818866640329,1.0809890031814575,0.05205038189888,-0.3668442070484161,-0.0844172686338424,-0.1635654270648956,0.0,0.0,-0.0866275167729258,-0.8177939965769856
-0.0231498721987009,1.0722256898880005,0.0494698695838451,-0.3898476660251617,-0.0906244069337844,-0.1241427436470985,0.0,0.0,0.5783695418649926,-0.7231065217952948
-0.0227625854313373,1.0640740394592283,0.0433119907975196,-0.3625763058662414,-0.0951764732599258,-0.0910411402583122,0.0,0.0,-0.9654929637908936,-0.9497968554496764
-0.0223783496767282,1.0554001331329346,0.0410511121153831,-0.3856765031814575,-0.0977859422564506,-0.0521892383694648,0.0,0.0,-0.7933440208435059,-0.8777901530265808
-0.0219957344233989,1.046196222305298,0.0389714501798152,-0.4091089069843292,-0.0984839648008346,-0.0139607843011617,0.0,0.0,-0.9183756113052368,-0.8206652998924255
-0.0216094963252544,1.03646981716156,0.0374847464263439,-0.4322153329849243,-0.0973605662584304,0.0224683247506618,0.0,0.0,-0.911644458770752,-0.5940086245536804
-0.0212157256901264,1.0262147188186646,0.0365051105618476,-0.4555971324443817,-0.0945119187235832,0.0569729730486869,0.0,0.0,-0.913210391998291,-0.4510142207145691
-0.020763587206602,1.0154308080673218,0.0418707840144634,-0.4790759682655334,-0.0911923125386238,0.0663920789957046,0.0,0.0,-0.9537869691848756,-0.2282050251960754
-0.0202526096254587,1.0041182041168213,0.0472673587501049,-0.5025551915168762,-0.087394967675209,0.0759468451142311,0.0,0.0,-0.9750285744667052,-0.3618364334106445
-0.019682502374053,0.9922768473625184,0.0526926144957542,-0.5260347127914429,-0.0831136032938957,0.0856271758675575,0.0,0.0,-0.9449494481086732,-0.2721045017242431
-0.0190528873354196,0.9799070954322816,0.0581444501876831,-0.5495147705078125,-0.078342393040657,0.0954241007566452,0.0,0.0,-0.8200640082359314,0.0537575483322143
-0.0183634757995605,0.9670085906982422,0.0636208727955818,-0.5729953646659851,-0.0730760619044303,0.1053265482187271,0.0,0.0,-0.938937783241272,-0.1272324323654174
-0.0176139827817678,0.953581690788269,0.0691200047731399,-0.5964764952659607,-0.0673097372055053,0.1153266057372093,0.0,0.0,-0.964232861995697,-0.1532720327377319
-0.0168041232973337,0.9396266341209412,0.0746400654315948,-0.6199583411216736,-0.061038963496685,0.1254157871007919,0.0,0.0,-0.9686455726623536,0.1365914344787597
-0.0159338004887104,0.9251431226730348,0.0801793709397316,-0.6434410214424133,-0.0542596578598022,0.1355860233306884,0.0,0.0,-0.9859581589698792,-0.5652969479560852
-0.0150469783693552,0.9101406335830688,0.0801800638437271,-0.6664911508560181,-0.0458481945097446,0.1682293117046356,0.0,0.0,-0.9548181891441344,0.2853288650512695
-0.0140990260988473,0.894610583782196,0.0857530087232589,-0.6899769902229309,-0.0369212552905082,0.1785384565591812,0.0,0.0,-0.8941916823387146,0.7403969764709473
-0.0130408285185694,0.8785468935966492,0.0975138917565345,-0.7137627005577087,-0.0287155695259571,0.1641139388084411,0.0,0.0,-0.942177414894104,-0.1020855903625488
-0.0119213107973337,0.8619555830955505,0.1031149253249168,-0.7372491359710693,-0.0199888553470373,0.1745341420173645,0.0,0.0,-0.4341243505477905,0.6808979511260986
-0.0106740947812795,0.8448373675346375,0.1170406118035316,-0.7607243061065674,-0.0124031994491815,0.1517135500907898,0.0,0.0,-0.953209638595581,0.0498117208480834
-0.0093652727082371,0.8271915316581726,0.1226643919944763,-0.7842105031013489,-0.004292250610888,0.1622187197208404,0.0,0.0,-0.9000888466835022,0.6848692893981934
-0.0079474449157714,0.8090237975120544,0.134239912033081,-0.807449221611023,0.0031559595372527,0.1489643454551696,0.0,0.0,-0.934493124485016,-0.1011484265327453
-0.0064677237533032,0.7903285622596741,0.1398814022541046,-0.8309358954429626,0.0111324442550539,0.1595297753810882,0.0,0.0,-0.6733859777450562,0.405958890914917
-0.0049263001419603,0.7711060643196106,0.1455299854278564,-0.8544237017631531,0.0196382589638233,0.1701163649559021,0.0,0.0,-0.8675215840339661,0.3997790813446045
-0.0033228874672204,0.751356303691864,0.151184543967247,-0.8779126405715942,0.028674192726612,0.1807185262441635,0.0,0.0,-0.383359432220459,0.2376927137374878
-999.0,0.731079638004303,0.1568440049886703,-0.901402711868286,0.0382407270371913,0.1913307309150695,0.0,0.0,0.6952493190765381,-0.2355678677558899
6.198883056640625e-05,0.7108932733535767,0.1617005616426468,-0.8974736332893372,0.0483752153813838,0.202689841389656,0.0,0.0,0.1330733299255371,0.8024818897247314
0.0017895698547363,0.69078528881073,0.1636469662189483,-0.8940120339393616,0.0573791414499282,0.1800788044929504,0.0,0.0,0.6260143518447876,0.5703458786010742
0.0035983086563646,0.6714240312576294,0.1723282635211944,-0.860847532749176,0.0658343136310577,0.1691035032272339,0.0,0.0,0.0808856487274169,0.0233229398727417
0.0055101392790675,0.6518277525901794,0.1818458437919616,-0.8713862895965576,0.075067900121212,0.1846716552972793,0.0,0.0,0.5181692838668823,0.0630381107330322
0.0074498178437352,0.6328810453414917,0.1839936077594757,-0.8426101803779602,0.0849455967545509,0.1975538581609726,0.0,0.0,0.0396866798400878,0.4804670810699463
0.0093671800568699,0.6138455271720886,0.1815089285373687,-0.8466359972953796,0.0950774624943733,0.2026372700929641,0.0,0.0,0.7754933834075928,0.1695787906646728
0.011178970336914,0.595356285572052,0.1709030568599701,-0.8224330544471741,0.10527965426445,0.204043835401535,0.0,0.0,0.6762697696685791,0.760901927947998
0.0130801200866699,0.5772988796234131,0.1807759255170822,-0.8032369613647461,0.1145558208227157,0.1855235397815704,0.0,0.0,0.281049370765686,0.702461838722229
0.0149117466062307,0.559688925743103,0.1748772859573364,-0.7833214402198792,0.122788205742836,0.1646476835012436,0.0,0.0,0.5871741771697998,0.7843716144561768
0.016876220703125,0.5424038767814636,0.1890835464000702,-0.7688452005386353,0.1301113814115524,0.1464635878801345,0.0,0.0,0.4799222946166992,0.6870429515838623
0.0188780780881643,0.525111973285675,0.1937573999166488,-0.7691079378128052,0.1365208625793457,0.128189742565155,0.0,0.0,0.2788354158401489,0.3426085710525512
0.0209593772888183,0.5076778531074524,0.2009347230195999,-0.7755256295204163,0.143690213561058,0.1433869302272796,0.0,0.0,0.7211339473724365,0.6466166973114014
0.0230672843754291,0.4902388751506805,0.2044705152511596,-0.7756895422935486,0.1499991118907928,0.1261779516935348,0.0,0.0,0.8928592205047607,0.5626394748687744
0.0251339916139841,0.4736335575580597,0.2009958922863006,-0.7385953664779663,0.1556614488363266,0.1132465824484825,0.0,0.0,0.8648135662078857,0.3128433227539062
0.027208138257265,0.4578869938850403,0.2008253037929535,-0.7005527019500732,0.1622486561536789,0.1317444741725921,0.0,0.0,0.3592174053192138,0.9416837692260742
0.0292020794004201,0.4426105618476867,0.1942698955535888,-0.6795182824134827,0.1673724204301834,0.1024755463004112,0.0,0.0,-0.1221409440040588,0.6985344886779785
0.0313000679016113,0.4268109798431396,0.2052830904722213,-0.7027203440666199,0.1719011962413787,0.0905751660466194,0.0,0.0,0.8833494186401367,-0.2271310687065124
0.0333497039973735,0.4118281006813049,0.1997343748807907,-0.6665211915969849,0.1771378219127655,0.1047325357794761,0.0,0.0,0.0413424968719482,0.1760181188583374
0.0353325828909873,0.396837055683136,0.1928748786449432,-0.6669232249259949,0.1825696527957916,0.1086363196372985,0.0,0.0,0.0687454938888549,-0.1510962843894958
0.0372607223689556,0.3819564580917358,0.1870924681425094,-0.6620782017707825,0.1883232742547989,0.1150724291801452,0.0,0.0,0.4541072845458984,0.8482154607772827
0.0391868576407432,0.3674755096435547,0.1881202161312103,-0.6441709399223328,0.1928374320268631,0.0902834683656692,0.0,0.0,0.2100986242294311,0.2306817770004272
0.0411531440913677,0.3531136214733124,0.1913775205612182,-0.6390016674995422,0.198122426867485,0.1056999191641807,0.0,0.0,0.5619534254074097,-0.0523248314857482
0.0431364998221397,0.3387075066566467,0.1925207674503326,-0.6410607099533081,0.2039808630943298,0.1171683222055435,0.0,0.0,0.680465579032898,0.6924071311950684
0.0452502258121967,0.3244192004203796,0.2062582224607467,-0.635750412940979,0.209136962890625,0.1031221002340316,0.0,0.0,0.8452038764953613,-0.5000632405281067
0.0474209785461425,0.3105819225311279,0.2100188285112381,-0.6160075664520264,0.2162708938121795,0.1426783502101898,0.0,0.0,0.8377691507339478,0.233264684677124
0.0497066490352153,0.2969108819961548,0.2203514873981475,-0.608821451663971,0.2245731949806213,0.1660461723804474,0.0,0.0,0.868034839630127,-0.3346390128135681
0.051853846758604,0.2839539647102356,0.2061095982789993,-0.5772002339363098,0.233290210366249,0.1743404120206833,0.0,0.0,0.618309497833252,-0.253675103187561
0.0539149269461631,0.2715657949447632,0.1969657391309738,-0.5520584583282471,0.2425847649574279,0.1858909726142883,0.0,0.0,0.6249481439590454,0.4532023668289184
0.0559930801391601,0.2596514225006103,0.1977104395627975,-0.5312272906303406,0.2528758943080902,0.2058224231004715,0.0,0.0,0.4597415924072265,0.8399624824523926
0.0582169517874717,0.2476841956377029,0.2134111225605011,-0.5334488153457642,0.2620269954204559,0.183021992444992,0.0,0.0,0.6080143451690674,0.8617546558380127
0.0603777877986431,0.235910877585411,0.2085079699754715,-0.5246297121047974,0.2697663903236389,0.1547880917787552,0.0,0.0,0.6205692291259766,-0.4308538436889648
0.062446691095829,0.2248682528734207,0.1985692679882049,-0.4923397004604339,0.2782962918281555,0.170598104596138,0.0,0.0,0.6783275604248047,0.4570991992950439
0.0643868446350097,0.2141237556934356,0.1854321062564849,-0.4791889190673828,0.2871147096157074,0.1763682216405868,0.0,0.0,0.334936261177063,0.8468601703643799
0.0661497116088867,0.2037651389837265,0.1691342890262603,-0.4618073999881744,0.2944853901863098,0.1474134773015976,0.0,0.0,0.5739419460296631,0.6266055107116699
0.0679035186767578,0.1938983350992202,0.1689130514860153,-0.4398465752601623,0.3011590242385864,0.1334727853536605,0.0,0.0,0.7095856666564941,0.2906010150909424
0.0694241523742675,0.1845927834510803,0.1455034166574478,-0.4149569869041443,0.3079478740692138,0.1357772648334503,0.0,0.0,0.9226813316345216,0.8770816326141357
0.0706933960318565,0.1759956926107406,0.1219458803534507,-0.3831582963466644,0.3131057620048523,0.1031577363610267,0.0,0.0,0.5179140567779541,0.6882696151733398
0.0718977004289627,0.1675360798835754,0.1165187954902648,-0.376830905675888,0.3171678483486175,0.0812418907880783,0.0,0.0,0.8758385181427002,0.7532942295074463
0.0728550925850868,0.1594840139150619,0.0932827070355415,-0.3584092259407043,0.3197203874588012,0.0510507151484489,0.0,0.0,0.9643003940582277,0.399116039276123
0.0734921470284462,0.1517074704170227,0.0617332644760608,-0.3460626900196075,0.3217783272266388,0.04115841537714,0.0,0.0,0.8079743385314941,0.1830432415008545
0.0740344077348709,0.1445780843496322,0.0514209195971488,-0.3174876570701599,0.3246952891349792,0.058339349925518,0.0,0.0,0.8543760776519775,0.5554790496826172
0.0745987892150878,0.1375619322061538,0.0542257651686668,-0.3123267590999603,0.3269988000392914,0.0460700802505016,0.0,0.0,0.7467204332351685,0.6313711404800415
0.0751472488045692,0.1312728226184845,0.0532035008072853,-0.2798890769481659,0.3287080824375152,0.0341861397027969,0.0,0.0,0.3822183609008789,0.5490545034408569
0.0755451172590255,0.1253934949636459,0.0389956310391426,-0.2614840567111969,0.3295363783836365,0.0165658351033926,0.0,0.0,0.1357362270355224,0.7135809659957886
0.0759465247392654,0.1199099123477935,0.0403833426535129,-0.2436615824699401,0.3292867541313171,-0.0049926955252885,0.0,0.0,0.0800864696502685,0.916187047958374
0.0763844475150108,0.1145006492733955,0.0455718450248241,-0.2400067597627639,0.3274290859699249,-0.037152774631977,0.0,0.0,0.3959556818008423,0.801611065864563
0.076684758067131,0.1095788329839706,0.0331539884209632,-0.2180464267730713,0.3241766691207886,-0.0650486201047897,0.0,0.0,-0.3983839750289917,0.9975544214248656
0.0770955085754394,0.1041795089840889,0.0461338609457016,-0.2388486564159393,0.318922221660614,-0.1050889268517494,0.0,0.0,0.6557831764221191,0.6891436576843262
0.0775262862443924,0.0989714488387107,0.049078494310379,-0.2301638722419738,0.3126901090145111,-0.1246422678232193,0.0,0.0,0.5134290456771851,0.9265551567077636
0.0777567848563194,0.0940215215086937,0.0308050159364938,-0.218344047665596,0.3046618103981018,-0.1605660766363144,0.0,0.0,0.4699296951293945,0.963630437850952
0.0778215378522872,0.0891737341880798,0.0160351619124412,-0.2134874016046524,0.2947826385498047,-0.1975842416286468,0.0,0.0,0.0307700634002685,0.8732411861419678
0.0778550133109092,0.0843272283673286,0.0144642395898699,-0.213195189833641,0.2833381593227386,-0.2288897484540939,0.0,0.0,0.4525362253189087,0.6072876453399658
0.077844999730587,0.0796597599983215,0.011096597649157,-0.2051412910223007,0.270912617444992,-0.2485101968050003,0.0,0.0,0.5035064220428467,0.8715388774871826
0.0779583901166915,0.0750135257840156,0.0248606465756893,-0.2040591835975647,0.2570834159851074,-0.2765842378139496,0.0,0.0,0.6514360904693604,0.719179630279541
0.0780670195817947,0.0708990916609764,0.0254683103412389,-0.180372878909111,0.2421902120113372,-0.297864019870758,0.0,0.0,0.1327788829803466,-0.8112590909004211
0.0780072212219238,0.0670564472675323,0.0069124111905694,-0.1687175929546356,0.2291080951690673,-0.2616419792175293,0.0,0.0,0.0488215684890747,0.412797212600708
0.0779475197196006,0.0629911497235298,0.0066060707904398,-0.1787749975919723,0.2163720428943634,-0.2547211945056915,0.0,0.0,0.3010376691818237,-0.4128621816635132
0.0778613090515136,0.0591371394693851,0.003501959843561,-0.1695638000965118,0.2041432559490203,-0.2445758283138275,0.0,0.0,0.3094116449356079,-0.6330211758613586
