x_pos,y_pos,x_vel,y_vel,angle,ang_vel,leg_1,leg_2,main_booster,lat_booster
-0.0015233040321618,1.403478980064392,-0.1543318182229995,-0.330716997385025,0.0017959387041628,0.0354290194809436,0.0,0.0,0.3793479017279224,-0.723108693495171
-0.0030555725097656,1.3964896202087402,-0.1565469652414322,-0.3106409013271332,0.0050850827246904,0.0657897666096687,0.0,0.0,0.0337424910170125,0.7295721567751581
-0.0044349669478833,1.3897292613983154,-0.1399110108613968,-0.3004633784294128,0.0070343287661671,0.0389884896576404,0.0,0.0,-0.4390396362866517,0.9576934348666964
-0.0057532312348484,1.3828210830688477,-0.1322872638702392,-0.3070377707481384,0.0074846120551228,0.0090065766125917,0.0,0.0,-0.8569710105337134,-0.8276964423309463
-0.0071220397949218,1.3757692575454712,-0.1386617124080658,-0.3134198188781738,0.009242738597095,0.0351658947765827,0.0,0.0,-0.5907734214509348,0.7419649090959981
-0.0084185600280761,1.3685718774795532,-0.1296229064464569,-0.3198789656162262,0.009215410798788,-0.0005467449082061,0.0,0.0,-0.6737729763615985,0.7966258908843767
-0.0096539501100778,1.3612301349639893,-0.1219903007149696,-0.3262991309165954,0.0076869400218129,-0.0305724646896123,0.0,0.0,-0.1361381221175979,0.716531193511522
-0.0108180996030569,1.353745698928833,-0.1130935698747634,-0.3326280415058136,0.0044024200178682,-0.0656969100236892,0.0,0.0,-0.5460575650024104,0.7114229470814535
-0.0119264600798487,1.3461240530014038,-0.1061290949583053,-0.3387317359447479,-0.0002512767969164,-0.0930822193622589,0.0,0.0,-0.7076709864505066,0.9518806391978948
-0.0129589084535837,1.3383631706237793,-0.0966490060091018,-0.3449375331401825,-0.0067792837508022,-0.1305720508098602,0.0,0.0,-0.946920883499079,0.8623615511320892
-0.0139127727597951,1.3304576873779297,-0.0868130177259445,-0.3514242768287658,-0.0152538297697901,-0.1695065647363662,0.0,0.0,0.842821329755779,-0.6971204859106408
-0.0148262977600097,1.323288917541504,-0.0843876004219055,-0.318697839975357,-0.0221319887787103,-0.137576013803482,0.0,0.0,-0.5757088020881145,0.7353150555241099
-0.0156682971864938,1.315976619720459,-0.0754441022872924,-0.3251390159130096,-0.0307850297540426,-0.1730768978595733,0.0,0.0,-0.4969206909304424,0.9261974071106944
-0.016427993774414,1.3085076808929443,-0.0651507824659347,-0.3322011530399322,-0.041489977389574,-0.2141191065311432,0.0,0.0,-0.7920777965295911,-0.7847265501229571
-0.0172337535768747,1.3009058237075806,-0.0709651261568069,-0.3381522595882416,-0.0510088130831718,-0.1903938949108123,0.0,0.0,-0.8107081276000081,0.6775102079719305
-0.0179758071899414,1.2931472063064575,-0.0629728883504867,-0.3452493548393249,-0.0621326379477977,-0.222496673464775,0.0,0.0,0.6851712677423751,-0.8303600941213602
-0.0185725204646587,1.2865519523620603,-0.0503744296729564,-0.2935313880443573,-0.0713382586836814,-0.1841287761926651,0.0,0.0,0.8903282184222003,-0.7011162125985766
-0.0190176963806152,1.2804343700408936,-0.0370530933141708,-0.272258847951889,-0.0787408351898193,-0.1480650007724762,0.0,0.0,0.5990270930904522,-0.9527989919132808
-0.0193697921931743,1.275339126586914,-0.029769342392683,-0.2267517745494842,-0.0841396450996398,-0.1079859584569931,0.0,0.0,-0.2821432255677283,0.6594033162762523
-0.0196765903383493,1.2700926065444946,-0.0240492839366197,-0.2335601300001144,-0.0907084122300148,-0.1313870549201965,0.0,0.0,-0.6768367293888811,-0.9562271157507684
-0.0200415607541799,1.2647165060043335,-0.0313682481646537,-0.2392670214176178,-0.0958115980029106,-0.1020729094743728,0.0,0.0,-0.9113923268524248,-0.882783637732468
-0.0204748157411813,1.2591997385025024,-0.0398738905787467,-0.2454109936952591,-0.0992371961474418,-0.0685177892446518,0.0,0.0,-0.999786280297044,-0.9778870389179454
-0.0209683421999216,1.2535452842712402,-0.0473939403891563,-0.2514373064041137,-0.1011848077178001,-0.0389555506408214,0.0,0.0,0.4919975762736845,0.6342637816840702
-0.0213153846561908,1.2481412887573242,-0.031568881124258,-0.2403978407382965,-0.1043088063597679,-0.062485434114933,0.0,0.0,-0.0901853095424662,-0.6766750282985655
-0.0217283256351947,1.2426038980484009,-0.0397622250020504,-0.2462111413478851,-0.1058253198862075,-0.0303325895220041,0.0,0.0,-0.684977871761276,0.946615098294595
-0.0220861434936523,1.2368959188461304,-0.0327531211078166,-0.2539060115814209,-0.108839064836502,-0.0602747686207294,0.0,0.0,0.5627304425564248,-0.9778011924038948
-0.0224421508610248,1.2320852279663086,-0.0344635806977748,-0.2138909250497818,-0.1099695339798927,-0.0226094555109739,0.0,0.0,-0.4145944682296951,0.8643101647496688
-0.022744845598936,1.2271294593811035,-0.0276976414024829,-0.2204519361257553,-0.1125265285372734,-0.0511398799717426,0.0,0.0,0.0267825641503245,-0.9391599249506348
-0.0231640823185443,1.2227823734283447,-0.041176613420248,-0.1932573169469833,-0.1132620200514793,-0.0147100295871496,0.0,0.0,-0.6066215053075139,0.8194918859917615
-0.0235221870243549,1.2182765007019043,-0.0333918444812297,-0.2004513442516327,-0.1156693696975708,-0.0481469146907329,0.0,0.0,0.3854640853594324,-0.8355806356444392
-0.0238467212766408,1.2147008180618286,-0.0316288918256759,-0.1589827984571457,-0.1164835020899772,-0.0162828508764505,0.0,0.0,-0.7452216857901146,0.6667065657427841
-0.0241271015256643,1.2109678983688354,-0.0259468145668506,-0.1660673171281814,-0.11856310069561,-0.0415919497609138,0.0,0.0,-0.2425618920262435,0.8967734938892038
-0.0243474002927541,1.207087516784668,-0.0182743668556213,,-0.1222951933741569,-0.074641928076744,0.0,0.0,0.3368908916150002,-0.9391623690158986
-0.0246670730412006,1.2035123109817505,-0.0299328677356243,-0.159061774611473,-0.1243142485618591,-0.040381334722042,0.0,0.0,-0.0774263175290481,0.7271351935220576
-0.0249296184629201,1.1997827291488647,-0.0226066131144762,-0.166074588894844,-0.1279480308294296,-0.0726753026247024,0.0,0.0,0.4225403765856743,-0.7907655682359893
-0.025154972448945,1.196891188621521,-0.0203737579286098,-0.1286994069814682,-0.1301058530807495,-0.0431565642356872,0.0,0.0,-0.3484135597972955,0.9972942920002824
-0.0253080371767282,1.1938347816467283,-0.0110924821346998,-0.1362105906009674,-0.1343082338571548,-0.0840476676821708,0.0,0.0,-0.0762823561897176,0.92167243878676
-0.0253859516233205,1.1906251907348633,-0.0014643711037933,-0.1432348191738128,-0.1406083405017852,-0.1260021924972534,0.0,0.0,0.4951950918057044,0.9813975208640112
-0.0253216736018657,1.1884067058563232,0.0148938987404108,-0.0994235649704933,-0.149050697684288,-0.1688470691442489,0.0,0.0,0.8910956016741749,0.6093666564433478
-0.0250745769590139,1.1870585680007937,0.0344470404088497,-0.0609231740236282,-0.1587745547294616,-0.1944770514965057,0.0,0.0,0.7896350749588685,0.8827859558775306
-0.0247532837092876,1.1868371963500977,0.043983094394207,-0.0111490786075592,-0.1706445664167404,-0.2374004423618316,0.0,0.0,-0.3494555354118347,-0.9547563791275024
-0.0244941711425781,1.1864855289459229,0.0363998189568519,-0.0168693382292985,-0.1811623126268386,-0.2103549242019653,0.0,0.0,-0.5657699108123779,-0.9613191485404968
-0.0243021007627248,1.1859968900680542,0.0282548815011978,-0.0228491649031639,-0.190243124961853,-0.1816162765026092,0.0,0.0,-0.721899688243866,-0.9545000791549684
-0.0241751670837402,1.185379981994629,0.0203021671622991,-0.0284111388027668,-0.1979041099548339,-0.1532194763422012,0.0,0.0,-0.9121914505958556,-0.9836062788963318
-0.0241346359252929,1.1846318244934082,0.009758704341948,-0.034025564789772,-0.2036484330892563,-0.1148867160081863,0.0,0.0,-0.50351881980896,-0.9465428590774536
-0.0241666790097951,1.1837506294250488,0.0009460154105909,-0.039745919406414,-0.2078321725130081,-0.08367520570755,0.0,0.0,-0.815312385559082,-0.9883260726928712
-0.0242719650268554,1.1827410459518433,-0.0079512977972626,-0.045237548649311,-0.2104290127754211,-0.0519366972148418,0.0,0.0,-0.7006513476371765,-0.9812836647033693
-0.0244695656001567,1.1816256046295166,-0.0193196609616279,-0.0496380142867565,-0.2108762115240097,-0.0089439963921904,0.0,0.0,-0.816853940486908,-0.826611340045929
-0.0247482303529977,1.180397391319275,-0.0292321406304836,-0.0543914251029491,-0.2094942033290863,0.0276404879987239,0.0,0.0,-0.7146876454353333,-0.9049294590950012
-0.0251038558781147,1.1790449619293213,-0.0385981425642967,-0.0596839301288127,-0.2064401507377624,0.0610812716186046,0.0,0.0,-0.5899057388305664,-0.3027267456054687
-0.0254641529172658,1.177547812461853,-0.0388408452272415,-0.0661533921957016,-0.2036006897687912,0.0567891709506511,0.0,0.0,-0.3467097282409668,0.0125421285629272
-0.0258291251957416,1.175905704498291,-0.0390961728990078,-0.0726227611303329,-0.2009802013635635,0.0524090938270092,0.0,0.0,-0.7043639421463013,-0.7021698951721191
-0.0262439735233783,1.174128770828247,-0.0450086519122123,-0.07850281894207,-0.1974309235811233,0.0709859579801559,0.0,0.0,-0.3044317960739136,0.738900899887085
-0.0266054160892963,1.172196388244629,-0.0379656478762626,-0.0856401622295379,-0.1955963224172592,0.0366919934749603,0.0,0.0,-0.9200717210769652,-0.3608216047286987
-0.0269721038639545,1.1701191663742063,-0.0382579490542411,-0.092109203338623,-0.1939927488565445,0.0320714861154556,0.0,0.0,-0.9152243733406068,-0.4678103327751159
-0.0273441318422555,1.1678972244262695,-0.0385622270405292,-0.0985782071948051,-0.1926237940788269,0.0273790471255779,0.0,0.0,-0.7438839673995972,-0.5607174038887024
-0.0277575496584177,1.165546178817749,-0.0434252768754959,-0.1042224392294883,-0.1905393600463867,0.0416891016066074,0.0,0.0,-0.759366512298584,-0.5949611663818359
-0.0282120704650878,1.1630630493164062,-0.0481948368251323,-0.1100110784173011,-0.1877738833427429,0.0553096756339073,0.0,0.0,-0.7557570338249207,-0.4518940448760986
-0.0286723133176565,1.1604350805282593,-0.0485338047146797,-0.1164805144071579,-0.1852525025606155,0.0504271872341632,0.0,0.0,-0.8523847460746765,0.4745981693267822
-0.0291384700685739,1.1576623916625977,-0.048883706331253,-0.1229498609900474,-0.1829779893159866,0.0454902574419975,0.0,0.0,-0.4296009540557861,0.2042584419250488
-0.0296108238399028,1.1547448635101318,-0.049244251102209,-0.1294191032648086,-0.1809528172016143,0.0405034236609935,0.0,0.0,-0.7856127023696899,0.1127254962921142
-0.0300892833620309,1.1516826152801514,-0.0496151186525821,-0.1358882486820221,-0.1791792511940002,0.0354713946580886,0.0,0.0,-0.3487461805343628,0.0110597610473632
-0.0305740348994731,1.1484755277633667,-0.0499959625303745,-0.1423573046922683,-0.1776593327522277,0.0303987171500921,0.0,0.0,-0.7883460521697998,-0.8686755895614624
-0.031130027025938,1.1451423168182373,-0.0585302412509918,-0.1477932184934616,-0.1747205555438995,0.0587754249572753,0.0,0.0,-0.8019575476646423,-0.1319971680641174
-0.0316925048828125,1.1416645050048828,-0.0589301362633705,-0.1542626768350601,-0.1720387637615203,0.0536358729004859,0.0,0.0,-0.6808069348335266,0.4227055311203003
-0.0322617515921592,1.1380417346954346,-0.0593388751149177,-0.1607319712638855,-0.1696152687072754,0.0484702363610267,0.0,0.0,-0.0419133305549621,0.0539592504501342
-0.0328376777470111,1.1342742443084717,-0.0597560815513134,-0.1672011315822601,-0.1674510836601257,0.0432834923267364,0.0,0.0,-0.0929262638092041,0.6018334627151489
-0.0333681106567382,1.1303412914276123,-0.0535638630390167,-0.1747398674488067,-0.1669212430715561,0.0105968248099088,0.0,0.0,-0.5496202707290649,-0.5035099983215332
-0.033942125737667,1.1262786388397217,-0.058642029762268,-0.1804241091012954,-0.1656854003667831,0.0247169062495231,0.0,0.0,-0.5279107093811035,0.2788609266281128
-0.0345232002437114,1.1220710277557373,-0.0590821392834186,-0.1868928521871566,-0.1647105515003204,0.0194972585886716,0.0,0.0,-0.5678529739379883,0.4776828289031982
-0.0351113304495811,1.1177186965942385,-0.0595290176570415,-0.1933615356683731,-0.1639966964721679,0.0142770810052752,0.0,0.0,-0.5519079566001892,-0.4654898643493652
-0.0357067100703716,1.113221287727356,-0.0599822327494621,-0.1998301446437835,-0.1635436117649078,0.0090616922825574,0.0,0.0,-0.8418766260147095,-0.6129457354545593
-0.0363663658499717,1.10860013961792,-0.0676579922437667,-0.2051958739757537,-0.1618568897247314,0.0337346643209457,0.0,0.0,-0.4937869310379028,-0.4184727072715759
-0.0370332710444927,1.1038342714309692,-0.0681225582957267,-0.211664617061615,-0.1604296267032623,0.0285453461110591,0.0,0.0,-0.8071566820144653,0.207606554031372
-0.0377075187861919,1.0989234447479248,-0.0685920417308807,-0.2181332409381866,-0.1592607498168945,0.0233775097876787,0.0,0.0,-0.6482908725738525,-0.1977384090423584
-0.0383890159428119,1.0938677787780762,-0.069065973162651,-0.2246017605066299,-0.1583489030599594,0.0182369388639926,0.0,0.0,-0.5723881125450134,0.3220999240875244
-0.0390778556466102,1.0886671543121338,-0.0695438534021377,-0.2310702204704284,-0.1576924324035644,0.0131294755265116,0.0,0.0,-0.5921445488929749,0.0141421556472778
-0.0397741310298442,1.083321452140808,-0.0700251907110214,-0.2375385910272598,-0.157289370894432,0.0080611575394868,0.0,0.0,-0.3811591863632202,0.378154993057251
-0.0404776558279991,1.0778310298919678,-0.0705094709992408,-0.2440069019794464,-0.1571374833583831,0.0030381027609109,0.0,0.0,-0.2511279582977295,-0.1202296018600463
-0.0411885268986225,1.072195529937744,-0.0709961950778961,-0.2504751682281494,-0.1572341620922088,-0.0019334411481395,0.0,0.0,-0.5147013068199158,0.0848561525344848
-0.0419068336486816,1.0664150714874268,-0.0714848488569259,-0.25694340467453,-0.1575765162706375,-0.0068469964899122,0.0,0.0,-0.9119820594787598,-0.4172239303588867
-0.0426323898136615,1.0604897737503052,-0.0719748884439468,-0.2634116113185882,-0.15816131234169,-0.0116959754377603,0.0,0.0,0.0297548770904541,-0.0462120771408081
-0.0433711037039756,1.054965615272522,-0.0727594345808029,-0.2456324845552444,-0.1592771559953689,-0.0223169587552547,0.0,0.0,-0.3007076978683471,0.2574331760406494
-0.0441171638667583,1.0492966175079346,-0.0732506662607193,-0.2521007359027862,-0.1606279909610748,-0.0270165000110864,0.0,0.0,-0.8014761805534363,-0.57063889503479
-0.0449153892695903,1.0434966087341309,-0.0794158801436424,-0.2578249871730804,-0.1610428094863891,-0.0082963276654481,0.0,0.0,-0.6447448134422302,-0.0632264614105224
-0.0457209572196006,1.0375515222549438,-0.0799060240387916,-0.2642930448055267,-0.1616837233304977,-0.0128181967884302,0.0,0.0,-0.9191976189613342,-0.5769766569137573
-0.0465773567557334,1.0314666032791138,-0.0858880281448364,-0.2704198658466339,-0.161439299583435,0.0048886025324463,0.0,0.0,-0.2291958928108215,0.2607579231262207
-0.0474408157169818,1.0252366065979004,-0.0863747969269752,-0.2768878042697906,-0.1614105850458145,0.0005741582717746,0.0,0.0,-0.4210716485977173,0.6029255390167236
-0.0482526794075965,1.018846869468689,-0.0795066580176353,-0.2841610908508301,-0.1630940288305282,-0.0336687974631786,0.0,0.0,-0.7516555190086365,-0.5233571529388428
-0.0491032600402832,1.0123162269592283,-0.0839721709489822,-0.2903728485107422,-0.164178267121315,-0.0216845236718654,0.0,0.0,-0.8227596282958984,0.4990994930267334
-0.0499605163931846,1.0056405067443848,-0.0844493731856346,-0.296840637922287,-0.1654597520828247,-0.0256295837461948,0.0,0.0,-0.8045526146888733,-0.1140329837799072
-0.0508245453238487,0.9988197684288024,-0.0849221423268318,-0.3033084273338318,-0.1669314950704574,-0.0294352676719427,0.0,0.0,-0.8797544240951538,0.5793445110321045
-0.0516401305794715,0.9918424487113952,-0.0785186290740966,-0.3104499578475952,-0.1699853539466858,-0.0610772259533405,0.0,0.0,-0.9842872619628906,-0.2042081356048584
-0.0524621978402137,0.9847200512886048,-0.0789806991815567,-0.3169182240962982,-0.1732143014669418,-0.0645790249109268,0.0,0.0,-0.811721920967102,0.7876412868499756
-0.0532347671687603,0.9774360060691832,-0.0724288076162338,-0.3243054449558258,-0.1780523359775543,-0.0967610031366348,0.0,0.0,-0.9190815687179564,-0.6507246494293213
-0.054055880755186,0.9700265526771544,-0.0782526805996894,-0.3297786116600036,-0.1819223761558532,-0.0774004980921745,0.0,0.0,-0.7795875072479248,0.3815009593963623
-0.0548829063773155,0.962472140789032,-0.0786934942007064,-0.3362470865249634,-0.185941457748413,-0.0803819522261619,0.0,0.0,-0.999093532562256,-0.8406592011451721
-0.055793285369873,0.954802632331848,-0.0889322310686111,-0.341138482093811,-0.1880597621202469,-0.0423659496009349,0.0,0.0,-0.7630970478057861,-0.2688689231872558
-0.0567091926932334,0.9469878673553468,-0.0893549397587776,-0.3476058840751648,-0.1903076022863388,-0.0449569225311279,0.0,0.0,-0.8579193353652954,0.1115567684173584
-0.0576304420828819,0.9390279650688172,-0.0897675976157188,-0.3540731966495514,-0.1926745772361755,-0.0473394580185413,0.0,0.0,-0.9197947978973388,-0.1057761907577514
-0.0585567466914653,0.9309231042861938,-0.0901694372296333,-0.3605404198169708,-0.1951498240232467,-0.049504991620779,0.0,0.0,-0.9858828186988832,-0.1269538402557373
-0.0594879165291786,0.9226730465888976,-0.090559646487236,-0.3670074641704559,-0.1977220475673675,-0.0514449998736381,0.0,0.0,-0.9749452471733092,-0.1983377933502197
-0.0604236610233783,0.914277970790863,-0.0909374356269836,-0.3734744191169739,-0.2003796249628067,-0.0531511306762695,0.0,0.0,-0.972524344921112,0.3238656520843506
-0.0613637939095497,0.9057375192642212,-0.0913019776344299,-0.3799411952495575,-0.20311039686203,-0.0546152889728546,0.0,0.0,-0.96929532289505,-0.871954083442688
-0.0623628608882427,0.8970741629600525,-0.0985735729336738,-0.3852236866950989,-0.2044539600610733,-0.0268712155520916,0.0,0.0,-0.9760639667510986,-0.6915525794029236
-0.0634145736694336,0.8882743716239929,-0.1050305142998695,-0.3911177217960357,-0.2046012282371521,-0.0029449420981109,0.0,0.0,-0.9839850664138794,-0.384587287902832
-0.0644699111580848,0.8793293833732605,-0.1053500548005104,-0.3975833356380462,-0.2047831118106842,-0.0036375508643686,0.0,0.0,-0.7992463707923889,-0.4928207397460937
-0.0655284896492958,0.8702390789985657,-0.1056529432535171,-0.4040487110614776,-0.2049860507249832,-0.0040591112338006,0.0,0.0,-0.9939693808555604,-0.4407364130020141
-0.0665899291634559,0.8610031008720398,-0.1059382781386375,-0.4105138182640075,-0.2051962316036224,-0.0042034611105918,0.0,0.0,-0.9811384081840516,-0.1089786887168884
-0.067653939127922,0.8516218066215515,-0.1062052100896835,-0.4169787466526031,-0.2053994834423065,-0.0040651513263583,0.0,0.0,-0.9959684014320374,-0.3669165968894958
-0.068720243871212,0.842094898223877,-0.1064528599381446,-0.4234433770179748,-0.2055814564228058,-0.0036390840541571,0.0,0.0,-0.9875980019569396,-0.3198963403701782
-0.0697884559631347,0.8324223756790161,-0.1066803708672523,-0.4299077987670898,-0.2057275176048278,-0.0029211493674665,0.0,0.0,-0.9966880679130554,0.0743961334228515
-0.070858284831047,0.8226043581962585,-0.1068868488073349,-0.4363719522953033,-0.2058229148387909,-0.0019078897312283,0.0,0.0,-0.9953746199607848,-0.4655652642250061
-0.0719292610883712,0.8126406669616699,-0.1070714592933654,-0.4428358376026153,-0.2058527320623397,-0.0005964849842712,0.0,0.0,-0.9987607598304749,-0.8213659524917603
-0.0730784386396408,0.8025532960891724,-0.1169503778219223,-0.448044866323471,-0.2038002163171768,0.0410502739250659,0.0,0.0,-0.9984033107757568,-0.3345786333084106
-0.0742280036211013,0.7923202514648438,-0.1170888543128967,-0.4545086324214935,-0.2016520500183105,0.0429630428552627,0.0,0.0,-0.999929904937744,0.1820368766784668
-0.0753776580095291,0.7819414734840393,-0.1172030344605445,-0.4609721601009369,-0.1993931829929351,0.0451773405075073,0.0,0.0,-0.9967594146728516,-0.0481925010681152
-0.0765269249677658,0.7714172005653381,-0.1172921508550643,-0.4674354791641235,-0.1970085352659225,0.0476925894618034,0.0,0.0,-0.9996358752250672,-0.698296070098877
-0.0777202621102333,0.7607635855674744,-0.1230154484510421,-0.4730046093463897,-0.193305417895317,0.0740622580051422,0.0,0.0,-0.9999703764915466,-0.6265389919281006
-0.0789581313729286,0.7499841451644897,-0.1288284361362457,-0.4784420728683471,-0.1882369667291641,0.1013692766427993,0.0,0.0,-0.9997961521148682,-0.4297236800193786
