x_pos,y_pos,x_vel,y_vel,angle,ang_vel,leg_1,leg_2,main_booster,lat_booster
-0.0015297889476642,1.4034546613693235,-0.1548838764429092,-0.331793338060379,0.0017064941348508,0.0336580015718936,0.0,0.0,-0.2031450271606445,0.7503747940063477
-0.0030020712874829,1.3958393335342407,-0.1472128480672836,-0.3384618163108825,0.0016831954708322,-0.0004651048220694,0.0,0.0,-0.0357164144515991,0.8730735778808594
-0.0043972968123853,1.3880475759506226,-0.1372857540845871,-0.3462981283664703,-0.000528831675183,-0.0442447885870933,0.0,0.0,-0.4005751609802246,-0.2269425392150879
-0.0057994844391942,1.380086064338684,-0.1378878504037857,-0.3538443744182586,-0.0028256000950932,-0.0459397584199905,0.0,0.0,-0.1614617705345153,-0.3003156185150146
-0.0072088241577148,1.3719550371170044,-0.1385122835636139,-0.3613881170749664,-0.0052130441181361,-0.0477532967925071,0.0,0.0,-0.1097717881202697,0.2846304178237915
-0.0086255073547363,1.363654375076294,-0.1391579806804657,-0.368931233882904,-0.0076952502131462,-0.0496486350893974,0.0,0.0,-0.1000139117240905,0.4645683765411377
-0.0100500108674168,1.3551840782165527,-0.1398243606090545,-0.3764744102954864,-0.0102764945477247,-0.0516298301517963,0.0,0.0,-0.1132199764251709,0.2856631278991699
-0.0114822387695312,1.3465441465377808,-0.1405107676982879,-0.384017676115036,-0.012960810214281,-0.0536917634308338,0.0,0.0,-0.0831826329231262,0.4313671588897705
-0.0129226688295602,1.3377346992492676,-0.1412165313959121,-0.3915610909461975,-0.0157520398497581,-0.0558295547962188,0.0,0.0,-0.4087502956390381,0.261425256729126
-0.0143713951110839,1.328755497932434,-0.1419409811496734,-0.3991045951843261,-0.0186536889523267,-0.0580383464694023,0.0,0.0,-0.1689910292625427,0.5793033838272095
-0.0157765392214059,1.3196059465408323,-0.1361391842365265,-0.4067113697528839,-0.0229811128228902,-0.0865562260150909,0.0,0.0,-0.3556856513023376,0.2341818809509277
-0.0171903613954782,1.3102868795394895,-0.1368945240974426,-0.4142557978630066,-0.0274246409535408,-0.0888782292604446,0.0,0.0,0.108174443244934,0.8243906497955322
-0.0184338577091693,1.301499366760254,-0.1181398034095764,-0.3906799256801605,-0.0335622988641262,-0.1227643936872482,0.0,0.0,-0.6166908144950867,0.3587402105331421
-0.0196863170713186,1.2925426959991455,-0.1189231127500534,-0.3982319235801697,-0.0398214347660541,-0.1251939237117767,0.0,0.0,-0.6714274883270264,0.5118061304092407
-0.0208980552852153,1.2834192514419556,-0.1134620085358619,-0.4057064652442932,-0.0474577471613884,-0.1527399569749832,0.0,0.0,-0.8055044412612915,0.0641579627990722
-0.0221192352473735,1.2741272449493408,-0.1142704486846923,-0.4132549166679382,-0.0552201345562934,-0.1552620381116867,0.0,0.0,-0.7498803734779358,0.1920404434204101
-0.0233498569577932,1.264665961265564,-0.1150924786925315,-0.4208036065101623,-0.0631115511059761,-0.1578425019979477,0.0,0.0,-0.9148392677307128,-0.4011101722717285
-0.0245901104062795,1.2550361156463623,-0.1159271970391273,-0.4283527135848999,-0.0711337402462959,-0.1604584902524948,0.0,0.0,-0.7551671862602234,-0.3090496659278869
-0.0258401874452829,1.2452373504638672,-0.1167732626199722,-0.435902327299118,-0.0792885273694992,-0.1631106287240982,0.0,0.0,-0.9123008847236632,-0.1802961230278015
-0.0270999912172555,1.2352701425552368,-0.1176299080252647,-0.4434524476528168,-0.0875776335597038,-0.1657968610525131,0.0,0.0,-0.7486454248428345,-0.5655015110969543
-0.0284047126770019,1.2251428365707395,-0.1228748708963394,-0.4505626261234283,-0.0951140746474266,-0.1507421880960464,0.0,0.0,-0.7025993466377258,-0.141839325428009
-0.0297194477170705,1.2148466110229492,-0.1237527281045913,-0.458112895488739,-0.1027882993221283,-0.1534985452890396,0.0,0.0,-0.5576948523521423,-0.3677922487258911
-0.0310443881899118,1.2043817043304443,-0.1246381253004074,-0.465663343667984,-0.1106011420488357,-0.1562707126140594,0.0,0.0,-0.6194728016853333,-0.7834616303443909
-0.0324347503483295,1.1937482357025146,-0.1324250251054763,,-0.1171762272715568,-0.131513774394989,0.0,0.0,-0.802993893623352,0.0900043249130249
-0.0338354110717773,1.1829458475112915,-0.1333267390727996,-0.4806431829929352,-0.1238931715488433,-0.1343508660793304,0.0,0.0,-0.4389573335647583,-0.066421091556549
-0.0352484695613384,1.1719534397125244,-0.1344088912010193,-0.4891396760940552,-0.1307527124881744,-0.1371905505657196,0.0,0.0,-0.8257218599319458,0.0434015989303588
-0.0366721153259277,1.1607922315597534,-0.1353376805782318,-0.4966863095760345,-0.1377565264701843,-0.1400762796401977,0.0,0.0,0.4814157485961914,-0.685929000377655
-0.0381856933236122,1.150606632232666,-0.1453145146369934,-0.4532716572284698,-0.1437759101390838,-0.1203876733779907,0.0,0.0,-0.7970401644706726,0.4173939228057861
-0.0397098548710346,1.1402519941329956,-0.1462481915950775,-0.4608174860477447,-0.1499413698911667,-0.1233090758323669,0.0,0.0,-0.25888192653656,0.4635419845581054
-0.0412448868155479,1.1297284364700315,-0.1471828073263168,-0.4683636128902435,-0.1562536656856537,-0.1262457519769668,0.0,0.0,-0.6097057461738586,-0.2779271602630615
-0.042790699750185,1.119036078453064,-0.148117259144783,-0.4759099781513214,-0.1627134680747985,-0.1291960775852203,0.0,0.0,-0.1065807938575744,0.5286356210708618
-0.0443116202950477,1.1081629991531372,-0.1445720046758651,-0.4840855896472931,-0.1702449768781662,-0.1506302058696746,0.0,0.0,-0.7408366203308105,-0.1647397875785827
-0.0458432212471962,1.0971215963363647,-0.1455030143260955,-0.4916334450244903,-0.1779251843690872,-0.1536038815975189,0.0,0.0,-0.1752791404724121,-0.2946913242340088
-0.0473855026066303,1.085911512374878,-0.1464304625988006,-0.4991816580295563,-0.1857545375823974,-0.1565873324871063,0.0,0.0,-0.2757923603057861,0.2079689502716064
-0.0489383712410926,1.074532985687256,-0.1473531574010849,-0.5067301392555237,-0.1937335133552551,-0.1595793962478637,0.0,0.0,0.4512300491333008,-0.5416315793991089
-0.0503984466195106,1.0639750957489014,-0.1390505582094192,-0.4701653122901916,-0.2007310688495636,-0.1399512141942978,0.0,0.0,-0.3839805126190185,0.1671855449676513
-0.051869012415409,1.0532485246658323,-0.1399596631526947,-0.4777129590511322,-0.207878902554512,-0.1429569721221923,0.0,0.0,-0.8442919850349426,-0.0060346126556396
-0.0533498749136924,1.0423533916473389,-0.1408602893352508,-0.4852608740329742,-0.2151772826910019,-0.1459677517414093,0.0,0.0,-0.4251900911331177,-0.4723855853080749
-0.0548410415649414,1.03128981590271,-0.141751155257225,-0.4928090274333954,-0.2226263880729675,-0.1489824503660202,0.0,0.0,-0.0716966390609741,-0.3039696216583252
-0.0563424117863178,1.0200577974319458,-0.1426309496164322,-0.5003575086593628,-0.2302263975143432,-0.1520000845193863,0.0,0.0,-0.6763512492179871,0.0429742336273193
-0.0578537955880165,1.0086572170257568,-0.1434983015060424,-0.5079061985015869,-0.2379773706197738,-0.1550195068120956,0.0,0.0,-0.4772558212280273,-0.7105434536933899
-0.0594186782836914,0.9971022605895996,-0.1498301029205322,-0.5146428346633911,-0.2447408586740493,-0.1352697759866714,0.0,0.0,-0.731773853302002,-0.7122573852539062
-0.0610403046011924,0.9853882193565368,-0.1565511524677276,-0.5215719938278198,-0.250455766916275,-0.114298939704895,0.0,0.0,-0.6345256567001343,-0.684546947479248
-0.0627155303955078,0.9735206961631776,-0.1628964692354202,-0.5282410383224487,-0.2551676630973816,-0.0942376255989074,0.0,0.0,0.4523983001708984,-0.2581651210784912
-0.064369298517704,0.9618736505508424,-0.1604588031768798,-0.5185137391090393,-0.2601957023143768,-0.1005604714155197,0.0,0.0,0.7335984706878662,-0.5663867592811584
-0.0659365653991699,0.9505577087402344,-0.152900293469429,-0.5036166906356812,-0.2640980780124664,-0.0780473798513412,0.0,0.0,0.3621821403503418,-0.2819578051567077
-0.0673680305480957,0.939586579799652,-0.1394142806529998,-0.4882846176624298,-0.2679182887077331,-0.076404184103012,0.0,0.0,-0.741490364074707,-0.3571965098381042
-0.0688083618879318,0.9284464716911316,-0.1401527673006057,-0.4958302676677704,-0.2718887031078338,-0.0794085711240768,0.0,0.0,-0.8802115321159363,-0.4655121564865112
-0.0702571868896484,0.9171373844146729,-0.1408669352531433,-0.5033760070800781,-0.2760090231895447,-0.0824066773056984,0.0,0.0,-0.5544367432594299,-0.6410373449325562
-0.0717650428414344,0.905679166316986,-0.1479311287403106,-0.5098034143447876,-0.2789352536201477,-0.0585244372487068,0.0,0.0,-0.813687264919281,-0.6790791153907776
-0.0733201056718826,0.8940682411193848,-0.1535355001688003,-0.516413152217865,-0.2809615135192871,-0.0405243746936321,0.0,0.0,-0.3871133327484131,-0.4263908863067627
-0.0748829841613769,0.88228839635849,-0.1541666686534881,-0.5239580869674683,-0.2831363976001739,-0.0434973910450935,0.0,0.0,0.257035493850708,-0.8471384048461914
-0.076332189142704,0.8708101511001587,-0.1444049477577209,-0.5102459192276001,-0.283672034740448,-0.0107128750532865,0.0,0.0,-0.6346536874771118,-0.5816779136657715
-0.0778313651680946,0.8591869473457336,-0.1503912657499313,-0.5164889097213745,-0.2831756472587585,0.0099276807159185,0.0,0.0,-0.4815917611122131,-0.7019750475883484
-0.0793776512145996,0.8474096655845642,-0.1560128629207611,-0.5231688618659973,-0.2817566096782684,0.0283815767616033,0.0,0.0,-0.5994399189949036,-0.8821638822555542
-0.081008531153202,0.835493266582489,-0.1663368493318557,-0.5289991497993469,-0.2784134447574615,0.0668629631400108,0.0,0.0,-0.7947185635566711,-0.3800023794174194
-0.0826453194022178,0.8234077095985413,-0.1667972654104232,-0.5365445017814636,-0.2752156853675842,0.0639549940824508,0.0,0.0,-0.703127384185791,-0.6399980187416077
-0.0843246430158615,0.8111715316772461,-0.1718878746032714,-0.5430906414985657,-0.2711599767208099,0.0811141803860664,0.0,0.0,-0.834571897983551,-0.5459251999855042
-0.0860444083809852,0.7987870573997498,-0.1767451614141464,-0.5495471358299255,-0.2662738561630249,0.0977222025394439,0.0,0.0,-0.7965084910392761,-0.372763991355896
-0.0877688378095626,0.7862337231636047,-0.1770833283662796,-0.5570933222770691,-0.2615305483341217,0.0948660746216774,0.0,0.0,-0.9713909029960632,-0.411319375038147
-0.0894975662231445,0.7735114693641663,-0.1773772835731506,-0.5646392703056335,-0.2569290399551391,0.092030182480812,0.0,0.0,-0.7349641919136047,-0.6794285774230957
-0.0912899002432823,0.7606475949287415,-0.1851805448532104,-0.5706996917724609,-0.2508622109889984,0.1213368326425552,0.0,0.0,-0.7771587371826172,-0.5613158345222473
-0.0931198149919509,0.7476266622543335,-0.1896987408399582,-0.5775744318962097,-0.2440344989299774,0.1365544497966766,0.0,0.0,-0.7452335357666016,-0.0887839794158935
-0.0949524864554405,0.7344371676445007,-0.1898518353700637,-0.5851221084594727,-0.2373451590538025,0.1337868869304657,0.0,0.0,-0.912715494632721,-0.6023455858230591
-0.0968337059020996,0.7210912108421326,-0.1957640349864959,-0.5919367074966431,-0.2295971065759658,0.1549613326787948,0.0,0.0,-0.392106294631958,0.1778993606567382
-0.0987167358398437,0.7075769305229187,-0.1958160251379013,-0.5994853377342224,-0.2219847440719604,0.1522468775510788,0.0,0.0,-0.3996976613998413,-0.1016983985900878
-0.1006009131669998,0.69389408826828,-0.1958153545856475,-0.6070337295532227,-0.2145066857337951,0.149561196565628,0.0,0.0,-0.5546382069587708,-0.3850213289260864
-0.102485753595829,0.6800426840782166,-0.195760890841484,-0.6145818829536438,-0.2071613669395446,0.1469059586524963,0.0,0.0,-0.7125949263572693,-0.570133626461029
-0.1044117957353591,0.6660424470901489,-0.2008544504642486,-0.6211011409759521,-0.1988475173711776,0.1662769913673401,0.0,0.0,0.4036983251571655,0.6360876560211182
-0.1062952056527137,0.6524733304977417,-0.1950257718563079,-0.6021860837936401,-0.1921132504940033,0.1346853673458099,0.0,0.0,-0.6372259259223938,-0.3329169750213623
-0.1081774681806564,0.6387354135513306,-0.1948044449090957,-0.6097328662872314,-0.1855067014694214,0.1321310549974441,0.0,0.0,-0.2159099578857422,-0.0283670425415039
-0.1100582107901573,0.6248286962509155,-0.1945261359214782,-0.6172796487808228,-0.1790259927511215,0.1296137273311615,0.0,0.0,-0.2749820351600647,0.2564995288848877
-0.1119366660714149,0.6107531785964966,-0.1941903829574585,-0.6248261332511902,-0.1726692467927932,0.1271351426839828,0.0,0.0,0.5563759803771973,0.5778217315673828
-0.1136002540588378,0.5972816348075867,-0.1716057360172271,-0.5981382727622986,-0.167413517832756,0.1051143556833267,0.0,0.0,-0.2943580150604248,0.0957661867141723
-0.1152605041861534,0.5836408734321594,-0.1711540967226028,-0.605683445930481,-0.1622776091098785,0.1027182191610336,0.0,0.0,-0.276839017868042,0.7685083150863647
-0.1168510466814041,0.5698066353797913,-0.1623488962650299,-0.6144998669624329,-0.1589765548706054,0.0660209953784942,0.0,0.0,-0.3096891045570373,0.2489562034606933
-0.1184370070695877,0.5558030009269714,-0.1617813408374786,-0.6220434904098511,-0.1557908505201339,0.063714288175106,0.0,0.0,-0.0154372453689575,0.7359647750854492
-0.1199604049324989,0.5416232943534851,-0.1539675742387771,-0.6300404071807861,-0.1541668325662613,0.0324803926050663,0.0,0.0,-0.1974955201148986,0.3307576179504394
-0.1214780807495117,0.5272741913795471,-0.1532854735851287,-0.6375831365585327,-0.1526533216238021,0.0302698165178298,0.0,0.0,0.0945209264755249,0.6676002740859985
-0.1229373961687088,0.5135721564292908,-0.1459154486656189,-0.6089812517166138,-0.152674913406372,-0.0004319559375289,0.0,0.0,-0.683673620223999,-0.0093584656715393
-0.1243899315595626,0.4997006356716156,-0.1451213508844375,-0.6165237426757812,-0.1528019160032272,-0.002539740409702,0.0,0.0,-0.2039920091629028,0.668604850769043
-0.1257784813642501,0.4856527149677276,-0.137209877371788,-0.6245229840278625,-0.1544557213783264,-0.0330760851502418,0.0,0.0,0.3788070678710937,0.5322043895721436
-0.12713423371315,0.4721587002277374,-0.1325376331806183,-0.6000532507896423,-0.1574864387512207,-0.0606145933270454,0.0,0.0,-0.7271551489830017,0.5251232385635376
-0.1284439116716385,0.4584885835647583,-0.126877874135971,-0.6079952120780945,-0.1615684330463409,-0.0816398411989212,0.0,0.0,0.1290562152862548,0.0559445619583129
-0.1296754777431488,0.4453587830066681,-0.1189517751336097,-0.5840122103691101,-0.1657824516296386,-0.0842805579304695,0.0,0.0,-0.2093284726142883,-0.4054040908813476
-0.1308974325656891,0.4320597648620605,-0.1178956627845764,-0.591556191444397,-0.1700877249240875,-0.08610550314188,0.0,0.0,-0.3756861686706543,-0.3589663505554199
-0.1321091651916504,0.4185914099216461,-0.1167910099029541,-0.5991001129150391,-0.1744812428951263,-0.087870106101036,0.0,0.0,-0.3124583959579468,-0.5828056335449219
-0.1333490312099456,0.4049597978591919,-0.120510421693325,-0.6062643527984619,-0.1779743731021881,-0.0698623731732368,0.0,0.0,-0.4009889960289001,-0.8492424488067627
-0.1346277296543121,0.3911720216274261,-0.1255884766578674,-0.6130656003952026,-0.1802629828453064,-0.0457725077867507,0.0,0.0,0.2473337650299072,-0.0790196061134338
-0.1357378959655761,0.3776259422302246,-0.1091385930776596,-0.6022785305976868,-0.1821436733007431,-0.0376139283180236,0.0,0.0,0.5784499645233154,-0.460020899772644
-0.1367112100124359,0.3649706840515136,-0.0953587368130683,-0.562700092792511,-0.184125155210495,-0.0396295972168445,0.0,0.0,0.2888286113739013,0.1891052722930908
-0.1375399529933929,0.3530119657516479,-0.0809365138411521,-0.5317408442497253,-0.186067521572113,-0.0388472042977809,0.0,0.0,0.6037372350692749,-0.8501630425453186
-0.1381690055131912,0.3418225944042206,-0.0628105551004409,-0.4973159432411194,-0.1861648559570312,-0.0019467516103759,0.0,0.0,0.8556225299835205,0.3272290229797363
-0.1386055052280426,0.3309727311134338,-0.0440120063722133,-0.4821699857711792,-0.1858043074607849,0.0072111026383936,0.0,0.0,0.7145555019378662,-0.3441433906555176
-0.1389842927455902,0.3207474946975708,-0.0379191115498542,-0.4544467628002167,-0.1857588440179824,0.0009092595428228,0.0,0.0,0.5224059820175171,-0.3289147019386291
-0.1391253471374511,0.3115032613277435,-0.0144566688686609,-0.4108138978481293,-0.1854122728109359,0.0069313375279307,0.0,0.0,-0.6212397217750549,0.1330312490463256
-0.1392519921064376,0.3020894229412079,-0.0129540339112281,-0.4183559417724609,-0.1851221472024917,0.0058029498904943,0.0,0.0,0.2684724330902099,-0.3577147722244262
-0.1393452584743499,0.2934330403804779,-0.009127277880907,-0.3847581446170807,-0.1853272020816803,-0.0041010254062712,0.0,0.0,-0.7140653729438782,-0.3209265470504761
-0.1394234597682953,0.2846069931983948,-0.0075648576021194,-0.3923000395298004,-0.1855823248624801,-0.0051024435088038,0.0,0.0,-0.344191312789917,0.063017725944519
-0.1394863128662109,0.2756113708019256,-0.005974874831736,-0.3998418748378753,-0.1858843713998794,-0.0060413004830479,0.0,0.0,-0.7177249193191528,-0.4483107924461365
-0.1395333260297775,0.2664462327957153,-0.0043588280677795,-0.4073837101459503,-0.1862302869558334,-0.0069184498861432,0.0,0.0,-0.457779049873352,-0.6557644009590149
-0.1396176367998123,0.2571243047714233,-0.0094094406813383,-0.4141838252544403,-0.18524831533432,0.0196392573416233,0.0,0.0,-0.3162490129470825,-0.7359482645988464
-0.1397538185119629,0.2476527988910675,-0.0163123253732919,-0.4206220209598541,-0.1825411319732666,0.0541439577937126,0.0,0.0,0.3585033416748047,-0.0422989726066589
-0.1399168968200683,0.2386807799339294,-0.0184051897376775,-0.3985031247138977,-0.1804412603378296,0.0419973842799663,0.0,0.0,-0.4176647663116455,0.31316077709198
-0.1400632858276367,0.2295390963554382,-0.0166989471763372,-0.4060450792312622,-0.1783734858036041,0.0413554459810256,0.0,0.0,-0.3344068527221679,0.1080387830734252
-0.1401927024126052,0.2202279716730117,-0.0149733601137995,-0.4135870039463043,-0.1763350516557693,0.0407689101994037,0.0,0.0,-0.0963812470436096,0.6444697380065918
-0.1402420997619629,0.2107355147600174,-0.0053520160727202,-0.4218384921550751,-0.1759233474731445,0.0082339644432067,0.0,0.0,-0.1149407625198364,-0.3638417720794678
-0.1402741372585296,0.2010734230279922,-0.0035911612212657,-0.4293799698352813,-0.1755356639623642,0.0077534331940114,0.0,0.0,-0.0700597763061523,-0.8514285683631897
-0.1403379440307617,0.1912648975849151,-0.0080529088154435,-0.4357376992702484,-0.1738610714673996,0.0334918536245822,0.0,0.0,0.8230528831481934,-0.1475189924240112
-0.1401904076337814,0.1822099089622497,0.0127077680081129,-0.4022094309329986,-0.1718161404132843,0.0408986844122409,0.0,0.0,-0.1408922672271728,-0.8872391581535339
-0.1400938928127288,0.1730122864246368,0.0058285547420382,-0.4083457291126251,-0.1679833680391311,0.076655313372612,0.0,0.0,0.4369605779647827,0.1667608022689819
-0.1398126631975174,0.1646450161933899,0.0240603387355804,-0.3714253604412079,-0.163921058177948,0.0812461897730827,0.0,0.0,-0.1332616806030273,-0.4935414791107178
-0.139513298869133,0.1561083644628524,0.0258907917886972,-0.3789680302143097,-0.1598711609840393,0.0809982493519783,0.0,0.0,0.5959339141845703,-0.6297169923782349
-0.1392760276794433,0.1483303159475326,0.0187078081071376,-0.3451593518257141,-0.1548609584569931,0.1002039462327957,0.0,0.0,0.0059871673583984,-0.2769070267677307
-0.1390492469072342,0.1408655494451522,0.0180347226560115,-0.3312907814979553,-0.1502207815647125,0.0928034037351608,0.0,0.0,0.4630630016326904,-0.0934227108955383
-0.1387479752302169,0.1339760571718216,0.0255719870328903,-0.3057465553283691,-0.1456755250692367,0.0909050926566124,0.0,0.0,0.2831494808197021,-0.4958103895187378
-0.1383479088544845,0.1275276690721511,0.0353603698313236,-0.2861475944519043,-0.1410419791936874,0.0926713198423385,0.0,0.0,-0.3268844485282898,-0.424899697303772
-0.1379290521144867,0.1209099143743515,0.0372397303581237,-0.2936905324459076,-0.1364118009805679,0.0926034376025199,0.0,0.0,0.4454543590545654,0.0678637027740478
-0.1373254805803299,0.114994466304779,0.0553165301680564,-0.2624586224555969,-0.1313891261816024,0.1004534214735031,0.0,0.0,-0.1032087802886962,-0.0728378295898437
-0.1367029249668121,0.1089095696806907,0.0572106838226318,-0.2700018882751465,-0.1263670325279235,0.1004418730735778,0.0,0.0,-0.1061176657676696,-0.6333367824554443
