x_pos,y_pos,x_vel,y_vel,angle,ang_vel,leg_1,leg_2,main_booster,lat_booster
-0.0015228271950036,1.4033559560775757,-0.1543038785457611,-0.336181104183197,0.001815780531615,0.0358216390013694,0.0,0.0,-0.5674991011619568,0.5631484985351562
-0.0029960633255541,1.395543932914734,-0.1479294598102569,-0.3471991717815399,0.0024223080836236,0.0121321538463234,0.0,0.0,0.1173546314239502,0.8778746128082275
-0.0042925835587084,1.387867093086243,-0.1286167651414871,-0.3411908149719238,0.0013900694902986,-0.020646471530199,0.0,0.0,-0.2057745456695556,0.4744349718093872
-0.0055856704711914,1.3799216747283936,-0.1283093988895416,-0.353128433227539,0.0004075002507306,-0.019653158262372,0.0,0.0,-0.4107250571250915,0.4878550767898559
-0.0068741799332201,1.3717079162597656,-0.1279091238975525,-0.3650580048561096,-0.0005246032960712,-0.0186438895761966,0.0,0.0,-0.4721119403839111,0.6741988658905029
-0.0080921174958348,1.3632246255874634,-0.1192440539598465,-0.3770345747470855,-0.0030420827679336,-0.0503546111285686,0.0,0.0,-0.0087198019027709,0.4353760480880737
-0.0093034747987985,1.354473114013672,-0.1186383515596389,-0.3889655470848083,-0.0055051646195352,-0.0492660142481327,0.0,0.0,-0.3161079883575439,0.1213067770004272
-0.0105071067810058,1.345453143119812,-0.1179264634847641,-0.4008965492248535,-0.0079137329012155,-0.0481756068766117,0.0,0.0,0.0397045612335205,0.0820313692092895
-0.0117053035646677,1.3369547128677368,-0.1174095720052719,-0.3777165114879608,-0.0103025585412979,-0.0477813072502613,0.0,0.0,-0.4739043116569519,0.5392735004425049
-0.0128511432558298,1.3281906843185425,-0.1111481934785842,-0.3895411193370819,-0.013701350428164,-0.067981943488121,0.0,0.0,-0.3829800486564636,0.5227005481719971
-0.0139388088136911,1.3191577196121216,-0.1041843444108963,-0.4015071988105774,-0.0182256642729043,-0.090494617819786,0.0,0.0,-0.2245708703994751,-0.4452532529830932
-0.0150138856843113,1.30985689163208,-0.1030000895261764,-0.4134392738342285,-0.0226910300552845,-0.0893152579665184,0.0,0.0,-0.3575973510742187,0.838700532913208
-0.015994930639863,1.3002893924713137,-0.0915993228554725,-0.4253335297107696,-0.0291192065924406,-0.1285753846168518,0.0,0.0,-0.8400824666023254,-0.2423964738845825
-0.0169608108699321,1.2904541492462158,-0.0901554375886917,-0.4372675120830536,-0.0354865044355392,-0.1273574829101562,0.0,0.0,-0.8479454517364502,-0.3642874956130981
-0.0179102905094623,1.280350685119629,-0.088580884039402,-0.4492014944553375,-0.0417938344180583,-0.126158058643341,0.0,0.0,-0.9282112121582032,0.2228050231933593
-0.0188421253114938,1.269979476928711,-0.0868723541498184,-0.4611353576183319,-0.0480405427515506,-0.124945543706417,0.0,0.0,-0.958109974861145,-0.452875018119812
-0.0197549816220998,1.2593402862548828,-0.0850276798009872,-0.4730694890022278,-0.054226491600275,-0.1237302869558334,0.0,0.0,-0.7578334212303162,-0.0733550190925598
-0.0206472389400005,1.2484331130981443,-0.0830448120832443,-0.4850036799907684,-0.0603516586124897,-0.1225144118070602,0.0,0.0,-0.8159427046775818,-0.2499230504035949
-0.0215176586061716,1.2372578382492063,-0.080921933054924,-0.4969379007816314,-0.0664160922169685,-0.1212996989488601,0.0,0.0,-0.6772980093955994,-0.9418964982032776
-0.0224490165710449,1.2258223295211792,-0.0892217308282852,-0.5084241032600403,-0.0702967941761016,-0.0776212364435195,0.0,0.0,-0.855696439743042,-0.7995859384536743
-0.0234052650630474,1.2141295671463013,-0.0930276587605476,-0.5198050737380981,-0.0728633105754852,-0.051335085183382,0.0,0.0,-0.7784950733184814,-0.5230127573013306
-0.0243761055171489,1.20216965675354,-0.0955737382173538,-0.5316212177276611,-0.0743508115410804,-0.0297530237585306,0.0,0.0,-0.2963604927062988,-0.7255269289016724
-0.0253643039613962,1.1899454593658447,-0.0985273271799087,-0.5433173775672913,-0.0746470093727111,-0.0059245051816105,0.0,0.0,-0.2405474781990051,-0.1239821910858154
-0.0263237003237009,1.177452564239502,-0.0957037881016731,-0.5552481412887573,-0.0748851299285888,-0.0047627938911318,0.0,0.0,-0.4279214143753052,0.2070968151092529
-0.0272529609501361,1.1646912097930908,-0.0927354097366333,-0.5671788454055786,-0.0750652477145195,-0.0036026332527399,0.0,0.0,-0.3054167032241821,-0.3937857151031494
-0.028151512145996,1.1516399383544922,-0.0897298529744148,-0.5800607800483704,-0.0751881599426269,-0.0024581882171332,0.0,0.0,-0.7138506174087524,-0.4903587102890014
-0.0290168765932321,1.1383202075958252,-0.0864740759134292,-0.5919893980026245,-0.075254276394844,-0.0013225422007963,0.0,0.0,-0.6155837774276733,-0.5340986847877502
-0.0298986434936523,1.1247433423995972,-0.0894837528467178,-0.6033486723899841,-0.0739681199193,0.0257232971489429,0.0,0.0,-0.7258217334747314,0.2484736442565918
-0.0307445526123046,1.1108981370925903,-0.0859435573220253,-0.6152774095535278,-0.0726260542869567,0.0268413126468658,0.0,0.0,-0.3829124569892883,0.0863325595855712
-0.0315530784428119,1.0967844724655151,-0.0822632163763046,-0.6272061467170715,-0.0712285786867141,0.0279495008289814,0.0,0.0,-0.8257781863212585,0.2220762968063354
-0.0323227867484092,1.0824023485183716,-0.0784444585442543,-0.63913494348526,-0.0697761997580528,0.0290477219969034,0.0,0.0,-0.5780732035636902,-0.0345958471298217
-0.0330525413155555,1.0677518844604492,-0.0744892582297325,-0.6510636806488037,-0.0682694241404533,0.0301353670656681,0.0,0.0,-0.8051328063011169,0.0344060659408569
-0.0337407104671001,1.0528329610824585,-0.0703998282551765,-0.6629924774169922,-0.0667088106274604,0.0312122162431478,0.0,0.0,-0.8644455075263977,0.3005057573318481
-0.0343861579895019,1.037645697593689,-0.0661785677075386,-0.6749213337898254,-0.0650949105620384,0.032278012484312,0.0,0.0,-0.4957977533340454,-0.0617342591285705
-0.0349875465035438,1.0221898555755615,-0.0618281178176403,-0.6868502497673035,-0.0634282827377319,0.0333324931561946,0.0,0.0,-0.3662809729576111,0.4458634853363037
-0.0355437286198139,1.0064657926559448,-0.0573512613773345,-0.6987791061401367,-0.0617094933986663,0.0343755446374416,0.0,0.0,-0.6440365314483643,-0.3094357848167419
-0.0360532775521278,0.9904731512069702,-0.0527509674429893,-0.7107080221176147,-0.0599391460418701,0.035407118499279,0.0,0.0,-0.4922597408294678,0.086844801902771
-0.0365151390433311,0.9742122292518616,-0.0480303429067134,-0.7226370573043823,-0.0581178031861782,0.0364271141588687,0.0,0.0,-0.6734669208526611,0.1072127819061279
-0.0369281768798828,0.957682967185974,-0.0431926324963569,-0.7345659136772156,-0.0562460236251354,0.0374355763196945,0.0,0.0,-0.4069454669952392,-0.3397096395492553
-0.0372911468148231,0.9408851861953736,-0.0382411852478981,-0.7464948296546936,-0.0543243996798992,0.0384325310587883,0.0,0.0,0.2078216075897216,0.1469138860702514
-0.0376500114798545,0.9246780276298524,-0.0375160910189151,-0.7202622294425964,-0.0527146235108375,0.0321954265236854,0.0,0.0,-0.7310470938682556,-0.272249162197113
-0.0379567146301269,0.9082024097442628,-0.0323475897312164,-0.7321911454200745,-0.0510561317205429,0.0331695936620235,0.0,0.0,-0.7840768694877625,-0.2070669531822204
-0.0382102020084857,0.8914584517478943,-0.0270759221166372,-0.7441200613975525,-0.0493495054543018,0.0341325029730796,0.0,0.0,-0.6421522498130798,0.0026142597198486
-0.0384095199406147,0.8744460940361023,-0.0217047315090894,-0.7560490965843201,-0.0475952923297882,0.0350843034684658,0.0,0.0,-0.7050742506980896,0.295179009437561
-0.0385537147521972,0.8571653366088867,-0.0162376891821622,-0.7679780125617981,-0.0457940250635147,0.0360252037644386,0.0,0.0,-0.2824753522872925,-0.1171025037765502
-0.038641832768917,0.8396161198616028,-0.0106784906238317,-0.7799069881439209,-0.0439462810754776,0.0369551666080951,0.0,0.0,-0.4952725172042846,0.4048728942871094
-0.0386730208992958,0.8217986822128296,-0.0050308415666222,-0.7918359637260437,-0.0420525260269641,0.0378746651113033,0.0,0.0,0.0690208673477172,0.6223142147064209
-0.0386561378836631,0.8045299649238586,0.001086205127649,-0.7674800157546997,-0.0414558351039886,0.0119340075179934,0.0,0.0,-0.3895026445388794,0.4628715515136719
-0.0385806076228618,0.7869929075241089,0.0068996744230389,-0.7794088125228882,-0.0408141873776912,0.0128328604623675,0.0,0.0,-0.2928434610366821,0.1107759475708007
-0.0384458526968956,0.769187331199646,0.0127905281260609,-0.7913377285003662,-0.0401281006634235,0.0137216672301292,0.0,0.0,-0.2251189351081848,0.5616099834442139
-0.0381958968937397,0.7511099576950073,0.0256542172282934,-0.8034578561782837,-0.0407815016806125,-0.0130680371075868,0.0,0.0,-0.540198564529419,-0.5713803172111511
-0.0379344932734966,0.7327709197998047,0.0254886113107204,-0.8150485157966614,-0.0401455461978912,0.0127193508669734,0.0,0.0,-0.0620753169059753,0.4817152023315429
-0.0376117713749408,0.7141635417938232,0.0315899066627025,-0.8269773721694946,-0.0394665747880935,0.0135791767388582,0.0,0.0,-0.3676275610923767,-0.0867472290992736
-0.0372269637882709,0.6952876448631287,0.0377542451024055,-0.8389062285423279,-0.0387450940907001,0.0144296828657388,0.0,0.0,-0.5696752071380615,0.0938512086868286
-0.0367795005440712,0.6761434078216553,0.0439781583845615,-0.8508350253105164,-0.0379815399646759,0.0152709065005183,0.0,0.0,-0.2224442362785339,-0.1033009886741638
-0.0362687110900878,0.6567308306694031,0.0502582192420959,-0.8627639412879944,-0.037176389247179,0.0161031056195497,0.0,0.0,0.0933517217636108,0.1457805633544922
-0.0356124863028526,0.6378368735313416,0.0644794106483459,-0.839701771736145,-0.0360422655940055,0.022682499140501,0.0,0.0,-0.2372713088989257,0.2926652431488037
-0.0348919853568077,0.6186744570732117,0.0708616971969604,-0.8516306281089783,-0.0348674319684505,0.023496763780713,0.0,0.0,-0.3827329874038696,-0.4143143892288208
-0.0341068282723426,0.5992438197135925,0.0772901698946952,-0.8635596036911011,-0.0336523130536079,0.0243021808564662,0.0,0.0,0.214927077293396,-0.7099273204803467
-0.0333560928702354,0.5804232358932495,0.0724503323435783,-0.8364143967628479,-0.0310650505125522,0.0517452135682106,0.0,0.0,0.6178122758865356,-0.0879466533660888
-0.0324785225093364,0.5618756413459778,0.0848648622632026,-0.82427978515625,-0.0282065141946077,0.0571707300841808,0.0,0.0,0.5467803478240967,-0.3085616827011108
-0.0316102989017963,0.5440484285354614,0.084322415292263,-0.7922786474227905,-0.0257433503866195,0.0492633245885372,0.0,0.0,-0.398357629776001,-0.5625397562980652
-0.0307113640010356,0.5259527564048767,0.0864630863070488,-0.8041951060295105,-0.0223524719476699,0.0678171440958976,0.0,0.0,0.5654308795928955,-0.2772430181503296
-0.029710579663515,0.5084590911865234,0.0965030118823051,-0.7774477601051331,-0.0188202802091836,0.0706439614295959,0.0,0.0,0.1650727987289428,-0.6781142354011536
-0.028685187920928,0.4911174774169922,0.0975505262613296,-0.7706820964813232,-0.0138942822813987,0.0985197946429252,0.0,0.0,0.2876331806182861,-0.4194945096969604
-0.0276827812194824,0.4742006957530975,0.0956612974405288,-0.751822292804718,-0.0093774776905775,0.0903360322117805,0.0,0.0,0.2032086849212646,-0.0858893394470214
-0.026591682806611,0.4579503536224365,0.1044240444898605,-0.7222133874893188,-0.0047517283819615,0.0925150290131568,0.0,0.0,0.1636407375335693,-0.6623097062110901
-0.0254196170717477,0.4417330026626587,0.1110557541251182,-0.7207635641098022,0.0013149717124179,0.1213342100381851,0.0,0.0,0.4299161434173584,0.4479676485061645
-0.0241576191037893,0.4263560175895691,0.1199117302894592,-0.6834365129470825,0.007525538560003,0.1242114678025245,0.0,0.0,-0.4548200964927673,-0.1472455859184265
-0.0228278152644634,0.4107112884521484,0.1266455352306366,-0.695368766784668,0.0137712778523564,0.12491475045681,0.0,0.0,0.3507925271987915,-0.5681215524673462
-0.0215648654848337,0.3956287801265716,0.1189709082245826,-0.6704167127609253,0.021006217226386,0.1446988880634308,0.0,0.0,-0.2640056610107422,0.1286665201187133
-0.0202340129762887,0.3802785873413086,0.1257221102714538,-0.6823500990867615,0.0282752364873886,0.1453803479671478,0.0,0.0,0.7042056322097778,0.2866395711898803
-0.0189927108585834,0.3659612536430359,0.1173572316765785,-0.6364687085151672,0.0349630042910575,0.1337552964687347,0.0,0.0,-0.3047259449958801,-0.3648849725723266
-0.0176835060119628,0.3513761758804321,0.1241140812635421,-0.6484014987945557,0.0416836626827716,0.1344132125377655,0.0,0.0,0.253959059715271,0.627352237701416
-0.016297435387969,0.3369644284248352,0.1330854296684265,-0.6406844854354858,0.047140710055828,0.1091409772634506,0.0,0.0,0.5355898141860962,-0.014784038066864
-0.0147946355864405,0.3227419257164001,0.1444308906793594,-0.6323068737983704,0.0529217086732387,0.1156200990080833,0.0,0.0,0.643488883972168,-0.2548147439956665
-0.0132733341306447,0.3087547421455383,0.1463967859745025,-0.6218655705451965,0.0585881508886814,0.1133288592100143,0.0,0.0,0.7394528388977051,-0.4901875257492065
-0.0117421150207519,0.2957493960857391,0.1474032253026962,-0.5782512426376343,0.0642438903450965,0.1131146699190139,0.0,0.0,-0.0132597684860229,-0.0844005346298217
-0.0101434709504246,0.2824760377407074,0.1541211307048797,-0.5901831388473511,0.0699289068579673,0.1137004271149635,0.0,0.0,0.4841711521148681,-0.1812255978584289
-0.0086293220520019,0.2700227797031402,0.1461087018251419,-0.5537327527999878,0.0751759633421897,0.1049412116408348,0.0,0.0,0.0731649398803711,-0.1933310627937317
-0.0071480749174952,0.2576139569282532,0.1431851089000702,-0.5517622232437134,0.0800617188215255,0.0977149307727813,0.0,0.0,0.307603120803833,-0.269519567489624
-0.005618286319077,0.2458763271570205,0.1478723585605621,-0.5219545960426331,0.0851216167211532,0.1011981517076492,0.0,0.0,0.0252690315246582,-0.5913923382759094
-0.0041694641113281,0.234389454126358,0.1386574953794479,-0.5108930468559265,0.0912925004959106,0.1234176978468895,0.0,0.0,0.0084980726242065,0.1234399080276489
-0.0027255057357251,0.2232481986284256,0.1383065730333328,-0.4955504238605499,0.0973327979445457,0.1208058595657348,0.0,0.0,-0.2085280418395996,0.0496636629104614
-0.0012157440651208,0.2118390947580337,0.1448668241500854,-0.5074825882911682,0.1033960804343223,0.1212653145194053,0.0,0.0,0.1546213626861572,0.0274549722671508
0.000378131866455,0.2007781565189361,0.1529695689678192,-0.4920530319213867,0.1097628623247146,0.1273356229066848,0.0,0.0,0.3825724124908447,-0.6864120364189148
0.0019738196860998,0.1898646503686905,0.1517290621995926,-0.485642522573471,0.1175596341490745,0.155935138463974,0.0,0.0,0.5150719881057739,0.3985781669616699
0.0036751746665686,0.1792485266923904,0.1618804186582565,-0.4724964201450348,0.1257685273885727,0.1641778498888015,0.0,0.0,0.4517261981964111,-0.1801546812057495
0.005505752749741,0.169136106967926,0.1741882860660553,-0.4502129852771759,0.1345923691987991,0.1764772683382034,0.0,0.0,0.3416249752044678,-0.0819300413131713
0.0074687004089355,0.1592552065849304,0.1869015544652938,-0.4400251507759094,0.1439550668001175,0.1872539669275283,0.0,0.0,0.4029394388198852,-0.1949044466018676
0.0093979835510253,0.1500530838966369,0.1835522055625915,-0.4099151194095611,0.1533087790012359,0.187074139714241,0.0,0.0,-0.318435788154602,-0.6359934210777283
0.0113414768129587,0.140577808022499,0.1837683022022247,-0.4222494661808014,0.1638781875371933,0.2113883942365646,0.0,0.0,0.1993817090988159,-0.4488347768783569
0.0133561138063669,0.1315744519233703,0.1904834061861038,-0.4013985991477966,0.174874946475029,0.2199352979660034,0.0,0.0,0.1914888620376587,-0.4700850248336792
0.0154616357758641,0.1226710155606269,0.1992470324039459,-0.39707812666893,0.1862150132656097,0.2268014699220657,0.0,0.0,0.0731574296951294,-0.4263017177581787
0.017531681805849,0.1139790117740631,0.1958725154399871,-0.3877483606338501,0.1974016577005386,0.2237328737974167,0.0,0.0,0.2945572137832641,-0.5036576986312866
0.0195580478757619,0.1060301661491394,0.1903726756572723,-0.3549659550189972,0.209762305021286,0.2472128123044967,0.0,0.0,0.2272047996520996,-0.3687781691551208
0.0215366370975971,0.0984297096729278,0.1857091039419174,-0.3395706117153168,0.2220420986413955,0.2455958575010299,0.0,0.0,0.056980013847351,-0.4482783675193786
0.0233816150575876,0.0912811607122421,0.172745868563652,-0.3195293545722961,0.233950138092041,0.2381610870361328,0.0,0.0,0.0340073108673095,-0.5713143944740295
0.0251952167600393,0.0845118388533592,0.1684360802173614,-0.3029688894748688,0.2470871210098266,0.2627396881580353,0.0,0.0,-0.2159408330917358,-0.1375967264175415
0.0270624160766601,0.0774762257933616,0.1738428622484207,-0.3149116933345794,0.2602147758007049,0.2625533044338226,0.0,0.0,0.2387729883193969,-0.5226543545722961
0.0287314411252737,0.0709500163793563,0.1531905978918075,-0.2925501763820648,0.2742425203323364,0.2805545926094055,0.0,0.0,-0.0889367461204528,0.0902895927429199
0.0304511077702045,0.0641578063368797,0.1583256274461746,-0.304494708776474,0.2882547378540039,0.2802446484565735,0.0,0.0,0.3673793077468872,0.2933443784713745
0.0319857597351074,0.057774219661951,0.1403389126062393,-0.2863688766956329,0.3018016517162323,0.2709388136863708,0.0,0.0,-0.0327967405319213,0.3713425397872925
0.0335680022835731,0.0511244870722293,0.1451639831066131,-0.2983120083808899,0.3153267800807953,0.2705024778842926,0.0,0.0,0.691138744354248,0.0682376623153686
0.0350708961486816,0.0453080274164676,0.1368345618247985,-0.2614968717098236,0.3293284177780151,0.2800325155258178,0.0,0.0,0.331121563911438,0.0656336545944213
0.0365682616829872,0.0396715253591537,0.1361554563045501,-0.253670871257782,0.3435304760932922,0.28404101729393,0.0,0.0,0.5068660974502563,0.1692231893539428
0.0379978194832801,0.0348188020288944,0.1288803368806839,-0.2191040813922882,0.358313113451004,0.2956525683403015,0.0,1.0,0.9929001331329346,0.99699604511261
0.0391456596553325,0.0318421237170696,0.1128666847944259,-0.1334701180458068,0.358328253030777,-0.002679496537894,0.0,1.0,0.9750665426254272,0.8926831483840942
0.0400519371032714,0.0308374743908643,0.1064183264970779,-0.0408410765230655,0.3416071534156799,-0.3345876038074493,0.0,1.0,0.4156312942504883,-0.0707444548606872
0.0407234206795692,0.0306113809347152,0.09235730022192,-0.0043371473439037,0.3152231872081756,-0.527816653251648,0.0,1.0,0.2131170034408569,-0.3487073183059692
0.0412076003849506,0.0309726577252149,0.0736506134271621,0.0213136430829763,0.2890889644622803,-0.522731363773346,0.0,1.0,0.2338024377822876,-0.7667834758758545
0.0415315628051757,0.0319050662219524,0.0553898029029369,0.045819517225027,0.2654707729816437,-0.4723826050758362,0.0,1.0,-0.344703197479248,-0.0330426096916198
0.0418545715510845,0.0325764752924442,0.0554382130503654,0.0338544398546218,0.2418588101863861,-0.4722576141357422,0.0,0.0,-0.9999369382858276,0.0145093202590942
0.0422249808907508,0.0329786650836467,0.0599605925381183,0.0214729066938161,0.2186119109392166,-0.4649378657341003,0.0,0.0,-0.9998955726623536,0.2156774997711181
0.0426326766610145,0.0331193543970584,0.0638406798243522,0.0095004420727491,0.1953274011611938,-0.4656902849674225,0.0,0.0,-0.9997100234031676,-0.1106887459754943
0.0430753715336322,0.0329985469579696,0.0674957707524299,-0.002472422318533,0.1720021963119506,-0.4665039479732513,0.0,0.0,-0.99933922290802,-0.153411328792572
0.0435508713126182,0.0326164588332176,0.0709146037697792,-0.0144456988200545,0.1486334055662155,-0.4673753678798675,0.0,0.0,-0.9987456798553468,-0.1770253777503967
0.0440567955374717,0.0319730155169963,0.0740859508514404,-0.0264193788170814,0.1252184361219406,-0.4682992994785309,0.0,0.0,-0.996985137462616,0.1007715463638305
0.0445907600224018,0.0310682877898216,0.0769986808300018,-0.0383934639394283,0.1017549112439155,-0.4692706167697906,0.0,0.0,-0.9932193756103516,-0.5246267914772034
0.045110035687685,0.0299011319875717,0.0746407061815261,-0.0504834540188312,0.0792413651943206,-0.450270801782608,0.0,0.0,-0.9578438401222228,-0.4035401344299316
0.0456519126892089,0.0284723378717899,0.0770031809806823,-0.0624544955790042,0.0566750206053257,-0.4513271450996399,0.0,0.0,-0.8986136317253113,-0.6044690012931824
