x_pos,y_pos,x_vel,y_vel,angle,ang_vel,leg_1,leg_2,main_booster,lat_booster
-0.0014679909218102,1.403111219406128,-0.1493957936763763,-0.3470687866210937,0.0023264272604137,0.045932937413454,0.0,0.0,-0.4474852445733823,0.6193886388876151
-0.0028270720504224,1.3948092460632324,-0.1374759674072265,-0.3689837753772735,0.0038669079076498,0.0308133158832788,0.0,0.0,0.57639395722123,-0.8066538021267808
-0.0040535926818847,1.386566162109375,-0.1266952455043792,-0.3663728535175323,0.0078741973266005,0.0801533758640289,0.0,0.0,0.4711631359622241,-0.6612015030653182
-0.0053957938216626,1.3784730434417725,-0.1399707496166229,-0.3597315549850464,0.0135598378255963,0.1137233823537826,0.0,0.0,0.9966856862176516,0.8452660448191753
-0.0064561842009425,1.3710565567016602,-0.1111330986022949,-0.3296771347522735,0.0185942277312278,0.1006969586014747,0.0,0.0,-0.6773506859477152,-0.9757672838163411
-0.0075201033614575,1.363124132156372,-0.1136406287550926,-0.3526598513126373,0.0257628113031387,0.1433848291635513,0.0,0.0,0.6337839999446251,-0.719670635896901
-0.0086242677643895,1.3555327653884888,-0.1197093576192855,-0.3375829756259918,0.0349514111876487,0.1837891638278961,0.0,0.0,0.8910027294154388,0.8032747751781947
-0.0094493869692087,1.3485547304153442,-0.0912842601537704,-0.3103651106357574,0.0436261855065822,0.1735116690397262,0.0,0.0,-0.5003192308140143,0.6942293354281603
-0.0101663591340184,1.341075420379639,-0.0797728598117828,-0.3326666057109833,0.0516160987317562,0.1598127782344818,0.0,0.0,-0.7266724860145926,-0.5677522887579811
-0.010873794555664,1.3330844640731812,-0.0806197375059127,-0.3555243611335754,0.061403464525938,0.1957651674747467,0.0,0.0,0.8084008284858186,0.6698088796225004
-0.0114128114655613,1.3255707025527954,-0.0633705705404281,-0.3343571424484253,0.0707953423261642,0.1878547668457031,0.0,0.0,-0.3841393696194382,-0.5373403727847347
-0.011935424990952,1.317540407180786,-0.06337271630764,-0.3574649691581726,0.0818115100264549,0.2203436344861984,0.0,0.0,0.45467786391495,-0.7344156874875089
-0.0123865129426121,1.3099324703216553,-0.0586040988564491,-0.3389211595058441,0.0951986163854599,0.2677664458751678,0.0,0.0,0.6504358228018774,-0.578457386875949
-0.0127903940156102,1.302343249320984,-0.0559058114886283,-0.3383654057979584,0.1106217131018638,0.308490127325058,0.0,0.0,-0.2621533221555194,0.8004155550535801
-0.0130660058930516,1.2942655086517334,-0.0417809970676898,-0.3601251542568207,0.1247711479663848,0.2830145061016083,0.0,0.0,-0.1472633850988149,0.7358869771759469
-0.0132220266386866,1.285682201385498,-0.0287632588297128,-0.3826329112052917,0.1378926783800125,0.2624546885490417,0.0,0.0,0.0281804145884829,0.6791542822189551
-0.013251781463623,1.2774189710617063,-0.0155435679480433,-0.3684657514095306,0.1504525989294052,0.2512209415435791,0.0,0.0,-0.229610644951997,-0.5503472920971211
-0.0132642742246389,1.2686339616775513,-0.0153588782995939,-0.3919359743595123,0.1645612269639969,0.2821985781192779,0.0,0.0,0.4269717820755645,-0.8309675418147078
-0.0133144380524754,1.260380744934082,-0.0215634424239397,-0.3687195479869842,0.1811608970165252,0.3320238292217254,0.0,0.0,0.3266472133777545,0.5865266669783453
-0.0134233478456735,1.252282738685608,-0.0267853252589702,-0.3619295358657837,0.1971520632505417,0.3198519647121429,0.0,0.0,0.4609919831686593,0.9298724121990956
-0.0134191513061523,1.2447201013565063,-0.0144064892083406,-0.3381590247154236,0.2121201157569885,0.2993879914283752,0.0,0.0,0.7172282930381189,-0.7637153999146009
-0.0135113717988133,1.2373045682907104,-0.0262567587196826,-0.3321128785610199,0.229371428489685,0.3450568318367004,0.0,0.0,-0.2566740060300188,-0.5350132440842338
-0.0135914804413914,1.2293699979782104,-0.0265056639909744,-0.3556407988071441,0.2481876909732818,0.3763593435287475,0.0,0.0,0.2374749261958584,0.5887978480386923
-0.013583755120635,1.2213006019592283,-0.0172915384173393,-0.3617953062057495,0.2666470110416412,0.3692196011543274,0.0,0.0,-0.8422743209536987,-0.9433463344298552
-0.0136231426149606,1.2126915454864502,-0.0249125435948371,-0.3865910768508911,0.2881885468959808,0.4308689534664154,0.0,0.0,0.2310530974501174,-0.6276498221090987
-0.0139306066557765,1.2042425870895386,-0.0533463954925537,-0.3801422417163849,0.3115338087081909,0.4669055044651031,0.0,0.0,-0.4097105445102575,-0.5826367212779986
-0.0142424581572413,1.1952733993530271,-0.0554595366120338,-0.4040428698062897,0.3367848396301269,0.5050207376480103,0.0,0.0,0.8537237833204525,0.9111851651776772
-0.0149098392575979,1.1870765686035156,-0.0894326418638229,-0.3697848916053772,0.3606184720993042,0.4766729772090912,0.0,0.0,-0.4948124411900845,-0.6838083115782985
-0.0156028745695948,1.1783485412597656,-0.0940854847431182,-0.3943780362606048,0.3868875801563263,0.5253816843032837,0.0,0.0,0.5105680798883905,-0.8444650376393805
-0.0165094379335641,1.1696865558624268,-0.1174569725990295,-0.3925245702266693,0.4156095683574676,0.5744403600692749,0.0,0.0,0.0053869524615388,-0.964333645130683
-0.0176504142582416,1.1612056493759155,-0.1430540978908538,-0.3857713043689728,0.447043240070343,0.6286737322807312,0.0,0.0,-0.910413384437561,0.9960548877716064
-0.0186969749629497,1.152266025543213,-0.1322212517261505,-0.4064378440380096,0.4774112701416015,0.6073610186576843,0.0,0.0,-0.8343905210494995,0.9944784641265868
-0.0196568481624126,1.1428823471069336,-0.1221576705574989,-0.4263690710067749,0.5067012906074524,0.5858005285263062,0.0,0.0,-0.7378470301628113,0.9959542751312256
-0.0205238349735736,1.133042573928833,-0.1114764958620071,-0.4467660784721374,0.534862756729126,0.5632292032241821,0.0,0.0,-0.7832715511322021,0.99985671043396
-0.0212950706481933,1.1227660179138184,-0.1002375930547714,-0.4661213159561157,0.5615782141685486,0.5343090295791626,0.0,0.0,-0.6815193295478821,0.999525785446167
-0.0219746585935354,1.1120589971542358,-0.0894366130232811,-0.4851029813289642,0.5868205428123474,0.5048477053642273,0.0,0.0,-0.8056173920631409,0.9998698234558104
-0.022564698010683,1.1009085178375244,-0.0790583491325378,-0.5046762824058533,0.6107566356658936,0.4787220358848572,0.0,0.0,-0.9231866598129272,0.9987144470214844
-0.0230660438537597,1.089333176612854,-0.0685552880167961,-0.5232476592063904,0.6331257820129395,0.4473829269409179,0.0,0.0,-0.6615642309188843,0.996959924697876
-0.0234902389347553,1.0773282051086426,-0.0595033951103687,-0.5420790910720825,0.6541928648948669,0.4213399291038513,0.0,0.0,-0.3918034434318542,0.9995216131210328
-0.0238284114748239,1.0648953914642334,-0.0494070500135421,-0.5606926679611206,0.6737144589424133,0.3904315233230591,0.0,0.0,-0.7717753052711487,0.9981727600097656
-0.0240994449704885,1.0520247220993042,-0.0416127741336822,-0.5798798203468323,0.6921612620353699,0.3689367175102234,0.0,0.0,-0.5066756010055542,0.9987826347351074
-0.0242777820676565,1.0387375354766846,-0.0306646134704351,-0.5977374315261841,0.7087017893791199,0.3308110535144806,0.0,0.0,-0.5929558873176575,0.9980032444000244
-0.0243643764406442,1.0250250101089478,-0.0199258252978324,-0.6159775853157043,0.72343909740448,0.2947471141815185,0.0,0.0,-0.6709806323051453,0.9991574287414552
-0.0243647582828998,1.0108951330184937,-0.0097740590572357,-0.6338021159172058,0.7363364696502686,0.2579478621482849,0.0,0.0,-0.6791349053382874,0.996380090713501
-0.0242896080017089,0.9963233470916748,-0.0011405528057366,-0.6529179215431213,0.7479250431060791,0.2317718565464019,0.0,0.0,-0.4084398746490478,0.995546817779541
-0.0241333004087209,0.9813228845596312,0.0082714511081576,-0.671277642250061,0.757876992225647,0.1990392506122589,0.0,0.0,-0.4872083663940429,0.9976959228515624
-0.0238981246948242,0.96589994430542,0.017480419948697,-0.6893039345741272,0.7661155462265015,0.1647709906101226,0.0,0.0,-0.4434568881988525,0.998985767364502
-0.0236090663820505,0.9500434398651124,0.0237132422626018,-0.7080811262130737,0.773246169090271,0.1426129043102264,0.0,0.0,-0.2149944305419922,0.9856176376342772
-0.0232690814882516,0.9337489008903505,0.0295698456466197,-0.7271009683609009,0.7793661952018738,0.1224010810256004,0.0,0.0,-0.322587251663208,0.9959254264831544
-0.022863483056426,0.9170238375663756,0.0371860228478908,-0.7455682754516602,0.7840589880943298,0.0938549935817718,0.0,0.0,-0.1824342608451843,0.997393012046814
-0.0223798751831054,0.8998925685882568,0.0464757643640041,-0.7626453042030334,0.7866977453231812,0.0527738817036151,0.0,0.0,0.0713593959808349,0.979339361190796
-0.0222061164677143,0.8827981352806091,0.0165258478373289,-0.7603223323822021,0.7878791689872742,0.0236287228763103,0.0,0.0,-0.4785134792327881,0.993337869644165
-0.0219573974609375,0.8652890920639038,0.0253972746431827,-0.7778298258781433,0.7871452569961548,-0.0146777685731649,0.0,0.0,-0.2638018131256103,0.9989933967590332
-0.0216509811580181,0.8473616242408752,0.0322945453226566,-0.7956736087799072,0.7848474979400635,-0.0459557287395,0.0,0.0,-0.5813707113265991,0.9988417625427246
-0.0212681777775287,0.829026460647583,0.0414314977824687,-0.8128028512001038,0.7804624438285828,-0.0877014547586441,0.0,0.0,-0.4068323969841003,0.9989206790924072
-0.0208314899355173,0.8102499842643738,0.0476812198758125,-0.8318758010864258,0.7749019265174866,-0.1112099736928939,0.0,0.0,-0.3745021820068359,0.9974567890167236
-0.0203309059143066,0.791066586971283,0.0554738529026508,-0.8490845561027527,0.7674364447593689,-0.1493090987205505,0.0,0.0,-0.1099663972854614,0.9995888471603394
-0.0197603218257427,0.771477997303009,0.0640302747488021,-0.866149365901947,0.7579054832458496,-0.1906194388866424,0.0,0.0,0.2417758703231811,0.9799761772155762
-0.0195145606994628,0.7522101402282715,0.0327538289129734,-0.8512388467788696,0.7468427419662476,-0.2212543189525604,0.0,0.0,-0.0364599823951721,0.9913794994354248
-0.0192217826843261,0.7325105667114258,0.0384920760989189,-0.869912326335907,0.7345173358917236,-0.2465086281299591,0.0,0.0,0.2711820602416992,0.9787328243255616
-0.0190247539430856,0.7127383351325989,0.0301476661115884,-0.8725566864013672,0.7207056283950806,-0.2762342989444732,0.0,0.0,0.3609371185302734,0.988757848739624
-0.0192250255495309,0.6930969953536987,-0.0082722567021846,-0.8661611080169678,0.7053471207618713,-0.3071703612804413,0.0,0.0,0.3201178312301636,0.9814620018005372
-0.0195478443056345,0.6736055612564087,-0.0191928558051586,-0.8589808940887451,0.6885007619857788,-0.3369267284870147,0.0,0.0,-0.0526999831199646,0.9696495532989502
-0.019812012091279,0.653684675693512,-0.0119182066991925,-0.8775516748428345,0.6700913906097412,-0.3681890964508056,0.0,0.0,0.4174757003784179,0.9666028022766112
-0.0202237125486135,0.6337353587150574,-0.0252900030463933,-0.8784027099609375,0.6502286791801453,-0.3972546756267547,0.0,0.0,0.2978243827819824,0.9549096822738647
-0.020949650555849,0.6138020157814026,-0.0552657172083854,-0.8773155212402344,0.6289005279541016,-0.4265635013580322,0.0,0.0,0.5355484485626221,0.9825751781463624
-0.0220707897096872,0.5944267511367798,-0.0932829231023788,-0.8521800637245178,0.6060667037963867,-0.4566766321659088,0.0,0.0,0.6011005640029907,0.9694380760192872
-0.0232166294008493,0.5750299096107483,-0.0942779257893562,-0.8529142141342163,0.58186274766922,-0.4840796887874603,0.0,0.0,0.7977914810180664,0.9765247106552124
-0.024790097028017,0.5563942790031433,-0.1354627311229705,-0.8188925981521606,0.5561951398849487,-0.5133525133132935,0.0,0.0,0.1858738660812378,0.951014280319214
-0.0265499111264944,0.5376826524734497,-0.1524992287158966,-0.8221582770347595,0.529107928276062,-0.5417438745498657,0.0,0.0,0.0639457702636718,0.9785386323928832
-0.0285307876765728,0.5190428495407104,-0.172949269413948,-0.8189204335212708,0.500568151473999,-0.5707958340644836,0.0,0.0,-0.1693540811538696,0.9697134494781494
-0.0304471012204885,0.4999622702598572,-0.164671778678894,-0.8385051488876343,0.4704506695270538,-0.6023502349853516,0.0,0.0,0.7121925354003906,0.9871540069580078
-0.0328332893550396,0.4815136194229126,-0.2096878737211227,-0.810474693775177,0.4386350214481354,-0.6363130807876587,0.0,0.0,-0.2481846809387207,0.9794881343841552
-0.0351465232670307,0.4626223444938659,-0.2003304958343505,-0.8302935361862183,0.405078649520874,-0.6711278557777405,0.0,0.0,0.883830189704895,0.978196382522583
-0.037606906145811,0.4438629746437073,-0.2131492346525192,-0.8247538805007935,0.369977593421936,-0.7020219564437866,0.0,0.0,0.9131081104278564,0.9776835441589355
-0.0400524139404296,0.4252145290374756,-0.2099202424287796,-0.8202980756759644,0.333534687757492,-0.7288587689399719,0.0,0.0,0.9736545085906982,0.9578981399536132
-0.0426012054085731,0.4066545963287353,-0.2183229625225067,-0.8169084787368774,0.295576274394989,-0.7591686248779297,0.0,0.0,0.984588384628296,0.9678049087524414
-0.0453707687556743,0.3890062868595123,-0.2385111302137375,-0.777057945728302,0.2561103105545044,-0.7893205881118774,0.0,0.0,0.9841210842132568,0.9636502265930176
-0.0482172966003418,0.3723670840263366,-0.2445133924484253,-0.733034074306488,0.2153437584638595,-0.8153318166732788,0.0,0.0,0.9129345417022704,0.8473780155181885
-0.0513435378670692,0.3566089868545532,-0.2705959677696228,-0.6947795152664185,0.1730362176895141,-0.8461517095565796,0.0,0.0,-0.0010254979133605,0.7345807552337646
-0.0544258132576942,0.3403668999671936,-0.2651507258415222,-0.717424213886261,0.1300135403871536,-0.8604545593261719,0.0,0.0,0.7445902824401855,0.1478846073150634
-0.0575744621455669,0.3248859047889709,-0.2721732258796692,-0.6848685145378113,0.0876049399375915,-0.8481727838516235,0.0,0.0,0.2599049806594848,0.2389522790908813
-0.0608378425240516,0.309561550617218,-0.283518373966217,-0.6791213154792786,0.045236300677061,-0.8473736643791199,0.0,0.0,-0.0399123430252075,0.1818190813064575
-0.0640993118286132,0.2937476634979248,-0.2836218476295471,-0.7020899653434753,0.0032447022385895,-0.8398329615592957,0.0,0.0,0.3195071220397949,-0.2340161204338073
-0.0673689842224121,0.2782813310623169,-0.2847424745559692,-0.6878247857093811,-0.0384350940585136,-0.8335967063903809,0.0,0.0,0.0698513984680175,-0.4126771092414856
-0.0705631226301193,0.2628858089447021,-0.2778670489788055,-0.6858262419700623,-0.0795191898941993,-0.8216829299926758,0.0,0.0,0.0928049087524414,-0.9242281317710876
-0.073788546025753,0.2473336607217788,-0.2832807898521423,-0.6937516927719116,-0.1184520944952964,-0.778658390045166,0.0,0.0,0.6656427383422852,-0.6745105385780334
-0.076911449432373,0.2318779081106186,-0.2750678062438965,-0.6902936697006226,-0.1555258184671402,-0.7414749264717102,0.0,0.0,0.8224560022354126,-0.8003596663475037
-0.0798156708478927,0.2168318629264831,-0.2556327879428863,-0.672720730304718,-0.1903719753026962,-0.6969237923622131,0.0,0.0,0.8631010055541992,-0.8258435726165771
-0.0825224891304969,0.2019051164388656,-0.2383329421281814,-0.6678914427757263,-0.2229776978492736,-0.6521152257919312,0.0,0.0,0.9564588069915771,-0.8281095623970032
-0.085092544555664,0.1878087818622589,-0.2267346084117889,-0.6313706636428833,-0.2537055611610412,-0.6145581007003784,0.0,0.0,0.945014715194702,-0.8810428380966187
-0.0874546989798545,0.1745240539312362,-0.2082048654556274,-0.5955359935760498,-0.2823723554611206,-0.5733367204666138,0.0,0.0,0.8972549438476562,-0.9207722544670104
-0.0895087271928787,0.1618060916662216,-0.179865077137947,-0.5704057812690735,-0.3087188005447387,-0.5269283652305603,0.0,0.0,0.9488340616226196,-0.9885339736938475
-0.0913836508989334,0.1490978598594665,-0.1644204258918762,-0.5698989033699036,-0.3326990902423858,-0.4796061515808105,0.0,0.0,0.9816365242004396,-0.9921141862869264
-0.0931855216622352,0.136817917227745,-0.1592592895030975,-0.5507490038871765,-0.3546411395072937,-0.4388411939144134,0.0,0.0,0.9929287433624268,-0.9977478981018066
-0.0945758819580078,0.1254866272211074,-0.1204813942313194,-0.5083182454109192,-0.3742336332798004,-0.3918496966361999,0.0,0.0,0.9950249195098876,-0.9993664622306824
-0.0958011597394943,0.1146651580929756,-0.1060902625322341,-0.4853635132312774,-0.3917382955551147,-0.3500935435295105,0.0,0.0,0.9972923994064332,-0.9999176859855652
-0.0968667045235633,0.1048153042793273,-0.0919468253850936,-0.4418689012527466,-0.4073764681816101,-0.3127627372741699,0.0,0.0,0.965128779411316,-0.9839246273040771
-0.0975493416190147,0.0955799221992492,-0.0558641925454139,-0.4140895903110504,-0.420750081539154,-0.2674722075462341,0.0,0.0,0.9129085540771484,-0.9999182820320128
-0.0979904159903526,0.0871191620826721,-0.0336116030812263,-0.379208505153656,-0.4321255981922149,-0.2275105267763137,0.0,0.0,0.9687209129333496,-0.9723659157752992
-0.0982034653425216,0.0794843062758445,-0.0125548709183931,-0.342043787240982,-0.4416534602642059,-0.1905574649572372,0.0,0.0,0.9192256927490234,-0.9950858950614928
-0.0982478111982345,0.0721891969442367,0.0024492000229656,-0.3264173865318298,-0.4491879940032959,-0.1506913602352142,0.0,0.0,0.7556127309799194,-0.9957111477851868
-0.0981866866350174,0.0653873309493064,0.0112821860238909,-0.3039809465408325,-0.4548620283603668,-0.1134806051850318,0.0,0.0,0.3158595561981201,-0.9923626780509948
-0.0981132537126541,0.0587757192552089,0.0107153225690126,-0.2949524521827698,-0.4585703611373901,-0.0741668492555618,0.0,0.0,0.7398161888122559,-0.996184229850769
-0.0976345092058181,0.0526430457830429,0.0492848567664623,-0.2730298936367035,-0.4601269364356994,-0.031130913645029,0.0,0.0,0.414963960647583,-0.982234537601471
-0.0970052704215049,0.0464256852865219,0.0625467672944068,-0.2762031257152557,-0.4597156941890716,0.0082247089594602,1.0,0.0,0.7269808053970337,-0.3153057098388672
-0.0959042534232139,0.0416305400431156,0.0961369127035141,-0.2090789973735809,-0.4428686797618866,0.3392561078071594,1.0,0.0,0.9006879329681396,-0.1968811750411987
-0.0943705588579177,0.0385270453989505,0.1230707168579101,-0.1287429928779602,-0.4099145531654358,0.65919429063797,1.0,0.0,0.746719241142273,-0.1549476981163025
-0.0922753363847732,0.036726888269186,0.1669029742479324,-0.0683444216847419,-0.3644021153450012,0.9102836847305298,1.0,0.0,0.3598341941833496,-0.6912811398506165
-0.0899730697274208,0.0352551080286502,0.1825391501188278,-0.0540866889059543,-0.3144024908542633,1.000028371810913,1.0,0.0,0.0552890300750732,-0.8663661479949951
-0.0876169204711914,0.0340509749948978,0.1874872297048568,-0.0438659191131591,-0.2647806406021118,0.9924360513687134,1.0,0.0,-0.1604441404342651,-0.7755992412567139
-0.085306741297245,0.0323940850794315,0.1808265000581741,-0.0653800517320633,-0.2137487232685089,1.0206397771835327,0.0,0.0,0.2084391117095947,0.3881326913833618
-0.0828339606523513,0.0307309720665216,0.1963789016008377,-0.0673597902059555,-0.1625823229551315,1.0233302116394043,0.0,0.0,-0.0132157206535339,-0.2863235473632812
-0.0803271308541297,0.0285891387611627,0.1995171755552292,-0.0903964415192604,-0.1115724742412567,1.0201987028121948,0.0,0.0,0.0815184116363525,0.7546517848968506
-0.0777852088212966,0.0264738425612449,0.2044877558946609,-0.0910394117236137,-0.0623100399971008,0.9852503538131714,0.0,0.0,-0.4130784273147583,0.681133508682251
-0.07515649497509,0.0238712411373853,0.2145191431045532,-0.1143506094813346,-0.0145458532497286,0.9552855491638184,0.0,0.0,-0.2703847885131836,0.5018172264099121
-0.0724509209394455,0.0207829810678958,0.2234281748533249,-0.1374527662992477,0.0319709740579128,0.9303380250930786,0.0,0.0,-0.2335917949676513,0.7993137836456299
-0.0696322470903396,0.0172050576657056,0.23699751496315,-0.1605712324380874,0.0763322189450264,0.8872264623641968,0.0,0.0,-0.057105004787445,0.8374390602111816
-0.0666998848319053,0.0131508447229862,0.2506959736347198,-0.1828970462083816,0.1185188814997673,0.8437339663505554,0.0,0.0,0.0591058731079101,0.8402080535888672
-0.0639138221740722,0.0099900225177407,0.2576947212219238,-0.1422853171825409,0.1393022686243057,0.4156171381473541,0.0,1.0,0.9570028781890868,0.9255428314208984
-0.0612631812691688,0.0074429605156183,0.2654222846031189,-0.1131730899214744,0.1389194726943969,-0.0076792477630078,0.0,1.0,-0.1422891020774841,0.1838064193725586
