x_pos,y_pos,x_vel,y_vel,angle,ang_vel,leg_1,leg_2,main_booster,lat_booster
-0.0014753341674804,1.4029605388641355,-0.14967080950737,-0.3537542521953583,0.001908863778226,0.0376651361584663,0.0,0.0,-0.4321603775024414,0.8459821939468384
-0.0028299330733716,1.3943564891815186,-0.1356920599937439,-0.3824024200439453,0.002139598596841,0.0046160463243722,0.0,0.0,0.3166261911392212,0.3927457332611084
-0.0040296553634107,1.3855712413787842,-0.1209366545081138,-0.3904513716697693,0.0030849683098495,0.0189091991633176,0.0,0.0,0.0778110027313232,0.8483138084411621
-0.0052054403349757,1.3766082525253296,-0.1170191019773483,-0.3983573615550995,0.0025292453356087,-0.0111154587939381,0.0,0.0,-0.4825714826583862,0.6890997886657715
-0.0062661170959472,1.3669837713241575,-0.1040650978684425,-0.4277536571025848,0.0005549562047235,-0.0394895635545253,0.0,0.0,-0.2691569328308105,-0.0497475266456604
-0.0072771073319017,1.356695532798767,-0.0993583500385284,-0.4572558104991913,-0.0011695476714521,-0.0344929471611976,0.0,0.0,-0.0979064106941223,0.3553004264831543
-0.0082385065034031,1.3457434177398682,-0.0946528017520904,-0.486759752035141,-0.0026315518189221,-0.0292429290711879,0.0,0.0,0.3057112693786621,0.1832327842712402
-0.0090305330231785,1.3348939418792725,-0.0785719975829124,-0.482196182012558,-0.0032556925434619,-0.0124842524528503,0.0,0.0,-0.7640113234519958,-0.5373263359069824
-0.0098157878965139,1.3233866691589355,-0.0792851373553276,-0.5114350914955139,-0.0025081650819629,0.0149517757818102,0.0,0.0,-0.651200532913208,-0.1555883884429931
-0.0105511667206883,1.3112155199050903,-0.0745910033583641,-0.5409358739852905,-0.0014638866996392,0.0208874493837356,0.0,0.0,-0.7216048240661621,-0.5809131860733032
-0.0112756732851266,1.2983810901641846,-0.0748216956853866,-0.5704167485237122,0.0008740056655369,0.0467620827257633,0.0,0.0,-0.0660677552223205,-0.851211428642273
-0.0120095256716012,1.2848812341690063,-0.0775674432516098,-0.6000038385391235,0.0050163995474576,0.0828551277518272,0.0,0.0,0.0898449420928955,-0.4181736707687378
-0.0126096727326512,1.271410584449768,-0.0649373605847358,-0.5987210869789124,0.0098881712183356,0.0974443405866622,0.0,0.0,-0.5528126358985901,-0.6352970600128174
-0.0132040027529001,1.2572698593139648,-0.0658295005559921,-0.6285324096679688,0.0162067953497171,0.1263838112354278,0.0,0.0,-0.5055572390556335,0.1416524648666381
-0.0137484548613429,1.242465853691101,-0.061168760061264,-0.6580374240875244,0.0228629056364297,0.1331343948841095,0.0,0.0,-0.5761246681213379,-0.1833314895629882
-0.0142427440732717,1.226999044418335,-0.0565137341618537,-0.6875441670417786,0.0298633594065904,0.1400219500064849,0.0,0.0,-0.6944140791893005,0.2651793956756592
-0.0146870613098144,1.210869073867798,-0.051865316927433,-0.7170529961585999,0.0372136570513248,0.1470195353031158,0.0,0.0,0.0869817733764648,0.752399206161499
-0.0149232866242527,1.194448471069336,-0.0299950744956731,-0.7299738526344299,0.0435122027993202,0.1259821653366089,0.0,0.0,-0.5801891684532166,0.8324217796325684
-0.0150335310027003,1.177377462387085,-0.0158113706856966,-0.7588590979576111,0.0482499077916145,0.0947628021240234,0.0,0.0,-0.5625854134559631,0.8172904253005981
-0.0150379184633493,1.1596468687057495,-0.0041672890074551,-0.7881575226783752,0.0519462563097476,0.0739335641264915,0.0,0.0,-0.6096286177635193,0.3364548683166504
-0.014992332085967,1.1412526369094849,0.0004611838958226,-0.8176650404930115,0.0560116060078144,0.0813140645623207,0.0,0.0,-0.4851247072219848,0.8842644691467285
-0.0148252490907907,1.122196078300476,0.0140242623165249,-0.8470609188079834,0.0586574524641037,0.0529216639697551,0.0,0.0,0.0445966720581054,0.3033432960510254
-0.0145467761904001,1.1029987335205078,0.0244276002049446,-0.8533510565757751,0.062061533331871,0.0680877640843391,0.0,0.0,0.6685609817504883,0.9231407642364502
-0.0140855787321925,1.0836138725280762,0.0440295524895191,-0.8616397976875305,0.064123511314392,0.0412432849407196,0.0,0.0,-0.0478525161743164,0.3777723312377929
-0.0135746952146291,1.0635654926300049,0.0486205033957958,-0.8911474347114563,0.0665677860379219,0.0488897487521171,0.0,0.0,0.7411677837371826,0.6901192665100098
-0.0131746288388967,1.0439352989196775,0.0389160141348838,-0.8725020885467529,0.0676430389285087,0.0215052645653486,0.0,0.0,0.8514347076416016,0.4669371843338012
-0.0127757070586085,1.024860382080078,0.0383918285369873,-0.8478399515151978,0.069125011563301,0.0296394471079111,0.0,0.0,0.6186753511428833,0.8754148483276367
-0.0124571798369288,1.0063334703445437,0.0319378748536109,-0.8234135508537292,0.069036915898323,-0.0017619419377297,0.0,0.0,0.7571640014648438,0.0872775316238403
-0.0122846607118844,0.9883615374565125,0.0175974126905202,-0.7987346053123474,0.0686983168125152,-0.0067720576189458,0.0,0.0,-0.1430721879005432,-0.1190719008445739
-0.01206293143332,0.969726264476776,0.0221167914569377,-0.8282391428947449,0.0687533169984817,0.0010998391080647,0.0,0.0,0.6707481145858765,0.6698050498962402
-0.0117779728025197,0.9517238736152648,0.0293441265821456,-0.8000685572624207,0.0679142698645591,-0.0167809519916772,0.0,0.0,0.7978515625,0.600010871887207
-0.0115196229889988,0.9337638020515442,0.0277297049760818,-0.7981394529342651,0.0660413429141044,-0.0374586060643196,0.0,0.0,0.0970312356948852,0.4623060226440429
-0.0113024711608886,0.9159316420555116,0.0234600100666284,-0.7924659252166748,0.0643135160207748,-0.0345563665032386,0.0,0.0,0.5049448013305664,0.5550715923309326
-0.0110766412690281,0.8979210257530212,0.0251966081559658,-0.8003626465797424,0.0617304407060146,-0.0516615286469459,0.0,0.0,0.6526219844818115,-0.0780038237571716
-0.0108251571655273,0.8801878690719604,0.0272793117910623,-0.7880560755729675,0.0596241950988769,-0.0421251580119133,0.0,0.0,0.012599229812622,-0.1287630796432495
-0.0105422977358102,0.8624864220619202,0.0299526844173669,-0.7866688966751099,0.0579723194241523,-0.0330375246703624,0.0,0.0,0.4976233243942261,0.8661439418792725
-0.0101940156891942,0.844738781452179,0.0378700569272041,-0.7886713147163391,0.0549665354192256,-0.0601155944168567,0.0,0.0,0.5149292945861816,-0.0988262891769409
-0.0098020555451512,0.8273759484291077,0.0416665449738502,-0.7715922594070435,0.0525272972881794,-0.0487848035991191,0.0,0.0,-0.0267490148544311,-0.1079117059707641
-0.0093631744384765,0.8093496561050415,0.0459357984364032,-0.8010967969894409,0.0504942163825035,-0.0406614989042282,0.0,0.0,-0.191308319568634,0.3886802196502685
-0.0088780401274561,0.79066002368927,0.0501641705632209,-0.8306010961532593,0.0488682724535465,-0.0325189270079135,0.0,0.0,0.5142490863800049,0.0888829231262207
-0.0084794042631983,0.7723686099052429,0.0415478534996509,-0.812889814376831,0.0471976064145565,-0.033413115888834,0.0,0.0,0.318461537361145,0.3496212959289551
-0.0079566957429051,0.7540467977523804,0.0530918948352336,-0.814278244972229,0.0463914424180984,-0.0161233823746442,0.0,0.0,0.1274878978729248,0.5872483253479004
-0.0072784423828125,0.7353840470314026,0.0692820399999618,-0.8294126391410828,0.0449458174407482,-0.028912354260683,0.0,0.0,0.8024550676345825,-0.1144507527351379
-0.0064735412597656,0.7169291377067566,0.0810351520776748,-0.8201980590820312,0.0444117411971092,-0.0106816478073596,0.0,0.0,-0.0767316818237304,0.7196987867355347
-0.0055713653564453,0.6978059411048889,0.0916857197880745,-0.8498834371566772,0.0429549813270568,-0.0291349943727254,0.0,0.0,0.7373248338699341,0.3619172573089599
-0.0045929909683763,0.6785486936569214,0.0986811369657516,-0.8558517694473267,0.0421336255967617,-0.0164272282272577,0.0,0.0,0.6240795850753784,-0.5118099451065063
-0.0035667419433593,0.6592850089073181,0.1018202304840087,-0.8561869263648987,0.0429177209734916,0.015681866556406,0.0,0.0,0.7759255170822144,-0.0275793671607971
-0.0026580810081213,0.6406928896903992,0.0902299508452415,-0.8263248205184937,0.0435561761260032,0.0127691654488444,0.0,0.0,0.5456727743148804,0.0944015979766845
-0.0018644332885742,0.622534453868866,0.0788780525326728,-0.8070614337921143,0.0440343245863914,0.009562880732119,0.0,0.0,0.1045761108398437,-0.1354416608810424
-0.0010598183143883,0.6042209267616272,0.0796238183975219,-0.813956081867218,0.044861551374197,0.016544472426176,0.0,0.0,0.413752794265747,0.0944225788116455
-0.0001152992263087,0.5859845280647278,0.0926174968481063,-0.8105658888816833,0.0466717146337032,0.0362032130360603,0.0,0.0,0.50486159324646,0.6220613718032837
0.000828075397294,0.5680935382843018,0.0934593826532363,-0.7951810359954834,0.0475348606705665,0.0172630976885557,0.0,0.0,-0.0785470604896545,-0.4188704490661621
0.0018084526527673,0.5495391488075256,0.0967493578791618,-0.8246849179267883,0.0488143824040889,0.0255903415381908,0.0,0.0,0.9602419137954712,-0.7790536880493164
0.002721118973568,0.5317421555519104,0.0879639834165573,-0.7910868525505066,0.0520688779652118,0.0650902390480041,0.0,0.0,0.7361925840377808,0.7439731359481812
0.0038716315757483,0.5140644907951355,0.1124733537435531,-0.7857663035392761,0.054618913680315,0.0510007813572883,0.0,0.0,0.7032203674316406,-0.1053600907325744
0.0049308775924146,0.4964429140090942,0.1033781021833419,-0.783276379108429,0.0571313127875328,0.0502481386065483,0.0,0.0,0.7708766460418701,-0.0003612041473388
0.0060741426423192,0.4794458746910095,0.1108887046575546,-0.7555568814277649,0.0605284534394741,0.0679427981376648,0.0,0.0,0.609929084777832,0.2693676948547363
0.0073426244780421,0.4627819061279297,0.1223647743463516,-0.7408112287521362,0.0649667680263519,0.0887664481997489,0.0,0.0,0.6513147354125977,0.3673444986343384
0.0086616519838571,0.4466938078403473,0.1266352087259292,-0.715263307094574,0.0701701194047927,0.1040671616792678,0.0,0.0,0.5989010334014893,0.1508840322494506
0.0098815914243459,0.4310728311538696,0.1166497245430946,-0.6945253014564514,0.0754525959491729,0.1056496948003768,0.0,0.0,0.3866674900054931,0.549422025680542
0.0111942291259765,0.4152591824531555,0.1265085041522979,-0.7030788064002991,0.0801685228943824,0.0943185985088348,0.0,0.0,0.2220431566238403,0.4926261901855469
0.0124159809201955,0.3995492458343506,0.1173308119177818,-0.6984854936599731,0.084962360560894,0.0958767458796501,0.0,0.0,0.699927568435669,0.7136616706848145
0.0138096809387207,0.3839945793151855,0.135254293680191,-0.6915562748908997,0.0890525728464126,0.0818038508296012,0.0,0.0,0.6347603797912598,-0.0789854526519775
0.0151937482878565,0.36868616938591,0.1337453424930572,-0.6806581020355225,0.0936723425984382,0.0923957377672195,0.0,0.0,0.546759843826294,0.6236200332641602
0.0166192054748535,0.353278636932373,0.1386905163526535,-0.6850256323814392,0.0974904522299766,0.0763624459505081,0.0,0.0,0.8775216341018677,-0.0414839386940002
0.0178564079105854,0.3381901681423187,0.1201064437627792,-0.6708385348320007,0.1010800674557685,0.0717921778559684,0.0,0.0,0.7674705982208252,0.2518098354339599
0.0190394409000873,0.3238084316253662,0.1141531318426132,-0.6394729614257812,0.1051982641220092,0.0823639333248138,0.0,0.0,0.5761661529541016,0.2379628419876098
0.0202843658626079,0.3091923296451568,0.1195568889379501,-0.6499607563018799,0.1101011335849762,0.0980573147535324,0.0,0.0,0.917128086090088,0.7084503173828125
0.0215206146240234,0.2954132258892059,0.1196067333221435,-0.612708330154419,0.1140913665294647,0.0798045992851257,0.0,0.0,0.7273952960968018,0.5396008491516113
0.0226481445133686,0.281695544719696,0.1096803098917007,-0.6099082827568054,0.1171410679817199,0.0609941892325878,0.0,0.0,0.9322575330734252,0.2511733770370483
0.0235838890075683,0.2684758901596069,0.0905765444040298,-0.5877794623374939,0.1201157867908477,0.0594944544136524,0.0,0.0,0.6907401084899902,0.8812899589538574
0.0245525352656841,0.2555620968341827,0.0951625704765319,-0.5740851163864136,0.1218077093362808,0.0338385477662086,0.0,0.0,0.9380632638931274,0.4552807807922363
0.0252542495727539,0.2434326559305191,0.0687512755393982,-0.5392014980316162,0.1232212334871292,0.0282705072313547,0.0,0.0,0.9625012874603271,0.2843954563140869
0.0259597785770893,0.2316774278879165,0.0683032125234603,-0.5226427316665649,0.1254583597183227,0.0447421818971633,0.0,0.0,0.9359676837921144,0.5906240940093994
0.0266124717891216,0.2199374288320541,0.0638978481292724,-0.5218935608863831,0.126820296049118,0.0272383205592632,0.0,0.0,0.9750916957855223,-0.1187525987625122
0.0272942539304494,0.2081279903650283,0.0660133138298988,-0.5250476598739624,0.1289758384227752,0.0431108623743057,0.0,0.0,0.9963902235031128,-0.0507235527038574
0.0278811454772949,0.1962583214044571,0.0562879964709281,-0.5277501940727234,0.1313708275556564,0.0478995256125927,0.0,0.0,0.9190957546234132,0.2480729818344116
0.0283316615968942,0.1850938946008682,0.0422809347510337,-0.4964432418346405,0.1341351121664047,0.0552857592701911,0.0,0.0,0.9883038997650146,0.7961809635162354
0.0288084987550973,0.1747673898935318,0.0458628609776496,-0.4591200947761535,0.1359511315822601,0.0363204292953014,0.0,0.0,0.9962751865386964,0.8983032703399658
0.0290639884769916,0.1652386784553527,0.0254197362810373,-0.4235097467899322,0.1360847800970077,0.0026730354875326,0.0,0.0,0.9933030605316162,-0.0386956930160522
0.0290994644165039,0.1556089669466018,0.0037265676073729,-0.4279668927192688,0.1359035074710846,-0.0036253780126571,0.0,0.0,0.9663598537445068,-0.1478731632232666
0.0290422439575195,0.1467242836952209,-0.006172243040055,-0.394915372133255,0.1363484263420105,0.0088984547182917,0.0,0.0,0.9441261291503906,0.6249967813491821
0.0288012512028217,0.1381669640541076,-0.0233599450439214,-0.3802572190761566,0.1356037110090255,-0.0148940635845065,0.0,0.0,0.8056806325912476,0.9587122201919556
0.0284527782350778,0.1300533860921859,-0.0324768908321857,-0.3603867888450622,0.1332354992628097,-0.0473643168807029,0.0,0.0,0.5889403820037842,0.8636155128479004
0.0280521400272846,0.1222922205924987,-0.0363254770636558,-0.3446146547794342,0.1295135617256164,-0.0744388923048973,0.0,0.0,0.6341646909713745,0.8240172863006592
0.0277179721742868,0.1147553548216819,-0.0285699777305126,-0.3345574140548706,0.1246944144368171,-0.0963828340172767,0.0,0.0,0.4215881824493408,0.8101474046707153
0.0274142269045114,0.1070024818181991,-0.0243198033422231,-0.3440797626972198,0.1186748519539833,-0.1203912049531936,0.0,0.0,0.1001499891281127,0.796694278717041
0.0271915439516305,0.0990043506026268,-0.0150323687121272,-0.3549119234085083,0.1114857718348503,-0.1437815725803375,0.0,0.0,0.4599630832672119,0.682640552520752
0.0270863529294729,0.0911288112401962,-0.0025545198004692,-0.3494523465633392,0.1035747304558754,-0.1582208573818206,0.0,0.0,0.8794393539428711,-0.7087857723236084
0.0270264632999897,0.0832724422216415,-0.0002148168132407,-0.3487844169139862,0.0978500768542289,-0.1144934296607971,0.0,0.0,0.8882929086685181,-0.8649963736534119
0.0267826076596975,0.0760299786925315,-0.0206987746059894,-0.3216488063335418,0.0941910371184349,-0.0731803774833679,0.0,0.0,0.8870549201965332,0.391093373298645
0.0264668464660644,0.0694231614470481,-0.0283992383629083,-0.2934389412403106,0.0910449475049972,-0.0629217997193336,0.0,0.0,0.8026429414749146,0.0620702505111694
0.0261938087642192,0.063258871436119,-0.0251120384782552,-0.2738378643989563,0.088868498802185,-0.0435291901230812,0.0,0.0,0.8506608009338379,-0.0511284470558166
0.0259734150022268,0.0569925159215927,-0.0207088720053434,-0.2784244418144226,0.087546668946743,-0.0264365039765834,0.0,0.0,0.892969012260437,-0.0173302888870239
0.025613784790039,0.0509267896413803,-0.0346801504492759,-0.2695145308971405,0.0862686783075332,-0.0255594439804554,0.0,0.0,0.9147953987121582,0.4992549419403076
0.0252366065979003,0.0457045659422874,-0.0372045673429966,-0.2320664823055267,0.0857565030455589,-0.0102434130385518,0.0,0.0,0.5751579999923706,0.5397007465362549
0.0248017311096191,0.0406321138143539,-0.0421212278306484,-0.225364401936531,0.0844090059399604,-0.026950255036354,0.0,0.0,0.6758978366851807,0.8078744411468506
0.0241926200687885,0.0361001826822757,-0.0579654872417449,-0.2012552171945572,0.0814878121018409,-0.0584236793220043,0.0,0.0,0.6981284618377686,0.8129457235336304
0.0236559864133596,0.0320013388991355,-0.049529667943716,-0.181954488158226,0.0774030089378357,-0.0816961824893951,0.0,0.0,0.3699698448181152,0.4552047252655029
0.0229950901120901,0.0281643494963645,-0.0620242767035961,-0.1703265011310577,0.0733771994709968,-0.0805160850286483,0.0,0.0,0.3622571229934692,0.7676467895507812
0.0222401618957519,0.0245915744453668,-0.0700186640024185,-0.1585334986448288,0.0679665431380271,-0.1082133203744888,0.0,0.0,0.6664688587188721,0.9547133445739746
0.0214653965085744,0.0211090669035911,-0.0702948495745658,-0.1544683277606964,0.0608550384640693,-0.1422301828861236,0.0,0.0,0.6319839954376221,0.479927659034729
0.0205055233091115,0.0178426355123519,-0.0884745270013809,-0.1448900550603866,0.0534325689077377,-0.1484491527080536,0.0,0.0,0.750320315361023,0.7698339223861694
0.0193682666867971,0.0147337056696414,-0.1045211404561996,-0.1378724575042724,0.0443306937813758,-0.1820376813411712,0.0,0.0,0.5255206823348999,0.9104781150817872
0.0183488838374614,0.0119741773232817,-0.09122034907341,-0.1223609000444412,0.0337414629757404,-0.2117845714092254,0.0,0.0,0.4525272846221924,0.3689079284667969
0.0173370353877544,0.0090413782745599,-0.0908874198794364,-0.130143254995346,0.02357685752213,-0.2032921314239502,0.0,0.0,0.3583320379257202,0.5506017208099365
0.0164479259401559,0.0063972924835979,-0.0779659301042556,-0.1173740178346633,0.0127631854265928,-0.2162733525037765,0.0,0.0,0.1595096588134765,0.0239124298095703
0.0154994009062647,0.0039075948297977,-0.0839579924941062,-0.1105933263897895,0.0020169094204902,-0.2149256914854049,0.0,0.0,-0.0403193831443786,-0.0096615552902221
0.0145143512636423,0.0007556414348073,-0.0877508148550987,-0.1401052623987198,-0.008604877628386,-0.2124357968568802,0.0,0.0,0.3906805515289306,0.0122079849243164
0.013560676947236,-0.0023277902510017,-0.0850232318043708,-0.1371274143457412,-0.0188225470483303,-0.2043533325195312,1.0,0.0,0.5049841403961182,0.5415942668914795
0.012702465057373,-0.0045603895559906,-0.0842068046331405,-0.0994920209050178,-0.0193080771714448,-0.0083194551989436,1.0,0.0,0.5200730562210083,0.7001676559448242
0.0120953563600778,-0.0052147055976092,-0.0584085695445537,-0.029130820184946,-0.0215980298817157,-0.0458222553133964,1.0,1.0,-0.6832467317581177,0.9778177738189696
0.0116831781342625,-0.0053945924155414,-0.0369673892855644,-0.0080799646675586,-0.0258239675313234,-0.0845509767532348,1.0,1.0,-0.6368260979652405,0.1305017471313476
0.0114164352416992,-0.0052461051382124,-0.0278357118368148,0.006607745308429,-0.0246943682432174,0.0225658509880304,1.0,1.0,-0.5272202491760254,-0.0121470689773559
0.0112116811797022,-0.0047375583089888,-0.0227599069476127,0.0226318836212158,-0.0224492028355598,0.0448865741491317,1.0,1.0,-0.3666810393333435,0.6260151863098145
0.0111000062897801,-0.00409178994596,-0.0160655304789543,0.0287570096552371,-0.0176209472119808,0.0965454503893852,1.0,1.0,-0.6570935249328613,0.9107139110565186
0.0110905645415186,-0.0033910537604242,-0.0062724561430513,0.0311932396143674,-0.0123786469921469,0.1048287525773048,1.0,1.0,-0.3073623180389404,0.7303459644317627
0.0111377714201807,-0.0026342773344367,0.0022323068697005,0.0336494706571102,-0.0099436892196536,0.0486807152628898,1.0,1.0,-0.3926942348480224,0.4900978803634643
0.0112146381288766,-0.0019882584456354,0.0027405594009906,0.0287335384637117,-0.0050650504417717,0.0975599139928817,1.0,1.0,-0.1050720810890197,0.6302459239959717
0.0113485334441065,-0.0014572882791981,0.0092826429754495,0.0236035492271184,-0.0010157384676858,0.0809760615229606,1.0,1.0,-0.2148209810256958,0.44557785987854
0.0114733697846531,-0.0010290289064869,0.0091295922175049,0.0190289802849292,0.0022878122981637,0.0660632103681564,1.0,1.0,-0.4133089780807495,0.1382126808166504
0.0115420343354344,-0.0010256671812385,0.0068603390827775,0.0001464306842535,0.0022899175528436,3.432189259910956e-05,1.0,1.0,-0.8571077585220337,-0.2402071952819824
