x_pos,y_pos,x_vel,y_vel,angle,ang_vel,leg_1,leg_2,main_booster,lat_booster
-0.0014756203163415,1.4029983282089231,-0.1495713591575622,-0.3520744144916534,0.0018092321697622,0.0356916971504688,0.0,0.0,0.9047421771505096,0.724403339471697
-0.002782154129818,1.395268201828003,-0.1312221735715866,-0.3435570001602173,0.002374195959419,0.0113008832558989,0.0,0.0,-0.6424746885299979,0.9420117262083394
-0.0039498331025242,1.386905074119568,-0.1151079088449478,-0.3716974556446075,0.0007327834609895,-0.0328315906226635,0.0,0.0,0.13971036455106,0.0342909030209425
-0.0051515577360987,1.3784327507019043,-0.1181826367974281,-0.3765473365783691,-0.0012333368649706,-0.0393259823322296,0.0,0.0,-0.7030612078189082,-0.4131565722271968
-0.0063050268217921,1.3693342208862305,-0.1134165301918983,-0.4043756127357483,-0.0031309474725276,-0.0379558913409709,0.0,0.0,-0.9816697077025272,-0.1235173641757771
-0.0074101448990404,1.359609842300415,-0.1086577326059341,-0.4321982264518738,-0.0049601788632571,-0.0365881994366645,0.0,0.0,0.3396546152567024,0.2891710654443278
-0.0084830280393362,1.3499621152877808,-0.1054166927933693,-0.4287998080253601,-0.0068084551021456,-0.0369691327214241,0.0,0.0,-0.1758966843209863,-0.4159674383107851
-0.0095077510923147,1.3396881818771362,-0.1006744503974914,-0.4566295444965362,-0.0085883922874927,-0.0356019511818885,0.0,0.0,0.9311244922029692,-0.0850106243234746
-0.0104902265593409,1.3302555084228516,-0.096443623304367,-0.4192364811897278,-0.0103674810379743,-0.0355853475630283,0.0,0.0,-0.5790862076952126,-0.7393217057286233
-0.0114830015227198,1.320202350616455,-0.0990338027477264,-0.4468173384666443,-0.0106118507683277,-0.0048878672532737,0.0,0.0,-0.520670856596928,0.944223971823738
-0.0123430248349905,1.3095223903656006,-0.0836609899997711,-0.4746811091899872,-0.0129278069362044,-0.0463230237364769,0.0,0.0,-0.5455945305446961,0.0127709491737042
-0.013155460357666,1.298216462135315,-0.078961543738842,-0.5025053024291992,-0.0151748750358819,-0.0449460037052631,0.0,0.0,-0.9419511920647928,-0.6052648170380603
-0.0139576913788914,1.286288499832153,-0.0789669528603553,-0.5301447510719299,-0.0164140854030847,-0.02478645183146,0.0,0.0,-0.0415219167641218,-0.0804569328178022
-0.014712524600327,1.273734450340271,-0.0743010565638542,-0.5579690337181091,-0.0175866708159446,-0.023453626781702,0.0,0.0,0.2173936952337232,0.3905520666370085
-0.0153056140989065,1.261462688446045,-0.0586831495165824,-0.5454176068305969,-0.0182025544345378,-0.0123188104480504,0.0,0.0,-0.1812013795470444,-0.02135866219647
-0.0158516876399517,1.2485647201538086,-0.0540549047291278,-0.5732492804527283,-0.0187523234635591,-0.0109963854774832,0.0,0.0,-0.4976105444075727,-0.5605882563447813
-0.0163850784301757,1.2350484132766724,-0.0537202470004558,-0.6007264256477356,-0.0183769781142473,0.0075076231732964,0.0,0.0,0.1930766381307214,-0.0482466523508225
-0.0167641639709472,1.221308708190918,-0.0388419963419437,-0.6106353402137756,-0.0174538530409336,0.0184641890227794,0.0,0.0,0.0039667329770158,0.9027998896540004
-0.0169466026127338,1.2076793909072876,-0.0174145493656396,-0.6057544350624084,-0.0182701107114553,-0.0163265075534582,0.0,0.0,0.8885330981614799,0.6933538381662715
-0.0171158798038959,1.1943953037261963,-0.0145277129486203,-0.5904390215873718,-0.0206436067819595,-0.0474741831421852,0.0,0.0,0.1495734921666858,-0.6894220223519342
-0.0171826370060443,1.1812732219696045,-0.0058592995628714,-0.5832154750823975,-0.021456841379404,-0.0162660013884305,0.0,0.0,0.5082401167052515,-0.3553127812093137
-0.0171847343444824,1.1681303977966309,0.0004996013012714,-0.584135115146637,-0.022156324237585,-0.0139911975711584,0.0,0.0,-0.8367731526660735,0.5080185572012403
-0.0170929916203022,1.1543591022491455,0.0110603626817464,-0.6120824217796326,-0.0240178816020488,-0.037234578281641,0.0,0.0,-0.8305485136215855,-0.5366683618281183
-0.0169941894710063,1.1399574279785156,0.0107465991750359,-0.6400943398475647,-0.0248713437467813,-0.0170708019286394,0.0,0.0,0.6736330332295719,0.5164227828237702
-0.0169475562870502,1.1259127855300903,0.0069341771304607,-0.6242412328720093,-0.0271125342696905,-0.044827964156866,0.0,0.0,0.8622020797451277,0.2127853149676137
-0.0170001983642578,1.1124173402786257,-0.0022893249988555,-0.599852442741394,-0.030048668384552,-0.0587228760123252,0.0,0.0,0.2058512174966487,0.2238721004223703
-0.0169908516108989,1.099090814590454,0.0038281406741589,-0.5923487544059753,-0.032907485961914,-0.0571765005588531,0.0,0.0,0.0471937499280199,0.1943295972945626
-0.017004394903779,1.08592689037323,0.0018622374627739,-0.5851436853408813,-0.0360848493874073,-0.0635472387075424,0.0,0.0,-0.8481032754854334,0.4103536784406733
-0.0169758796691894,1.0721368789672852,0.0060039707459509,,-0.0391973704099655,-0.0622502453625202,0.0,0.0,-0.5862342824783573,0.1265722325105945
-0.0169058796018362,1.0577210187911987,0.0100798998028039,-0.6407893896102905,-0.0422448180615901,-0.060949184000492,0.0,0.0,-0.393143275209034,0.2054121367349964
-0.016795253381133,1.0426791906356812,0.0140841305255889,-0.6686123013496399,-0.0452270098030567,-0.0596436485648155,0.0,0.0,-0.9859223365783693,-0.9958624243736268
-0.0167337413877248,1.0270118713378906,0.0068385861814022,-0.6963565945625305,-0.0459073632955551,-0.0136069077998399,0.0,0.0,-0.9656237363815308,-0.8750768899917603
-0.0167115218937397,1.0107316970825195,0.0008352066506631,-0.7235115170478821,-0.0445408746600151,0.0273297931998968,0.0,0.0,-0.8095395565032959,-0.5019577145576477
-0.016695212572813,0.9938241243362428,-0.0009352045017294,-0.7513725161552429,-0.0420047529041767,0.0507224388420581,0.0,0.0,-0.7645705342292786,0.1785519123077392
-0.0166417118161916,0.9762906432151794,0.0027143224142491,-0.7791951298713684,-0.0394023582339286,0.0520477704703807,0.0,0.0,-0.5093493461608887,-0.1402564644813537
-0.0165520664304494,0.9581311345100404,0.0062559642829,-0.8070176243782043,-0.0367334224283695,0.0533787719905376,0.0,0.0,-0.149861991405487,-0.2524380683898926
-0.0164276119321584,0.9393457770347596,0.0096811819821596,-0.8348401784896851,-0.0339976325631141,0.0547157898545265,0.0,0.0,0.0668694972991943,0.1201575994491577
-0.0162281040102243,0.920670211315155,0.0169950425624847,-0.8299652934074402,-0.031080974265933,0.0583329275250434,0.0,0.0,-0.1989297866821289,0.5335757732391357
-0.0159567836672067,0.901372730731964,0.0251223538070917,-0.8576273322105408,-0.0290881693363189,0.0398561879992485,0.0,0.0,0.2423384189605713,0.1585259437561035
-0.0156198497861623,0.8821336627006531,0.0314991027116775,-0.8550290465354919,-0.026929261162877,0.043178379535675,0.0,0.0,-0.3586603999137878,0.5549213886260986
-0.0152173992246389,0.8622718453407288,0.0389065891504287,-0.8827250003814697,-0.0256097503006458,0.0263903699815273,0.0,0.0,0.3863158226013183,0.5410211086273193
-0.014620971865952,0.842435359954834,0.0590736269950866,-0.8816055059432983,-0.025039330124855,0.0114082973450422,0.0,0.0,0.2749382257461548,-0.4372808337211609
-0.0139174461364746,0.8223330974578857,0.0693547502160072,-0.8934177756309509,-0.0240532215684652,0.0197222046554088,0.0,0.0,-0.0878515243530273,-0.0074825882911682
-0.013189697638154,0.8016048669815063,0.0717021152377128,-0.921239972114563,-0.0229978878051042,0.0211069025099277,0.0,0.0,0.5769979953765869,0.3448960781097412
-0.0124719617888331,0.7806734442710876,0.0708074420690536,-0.930270493030548,-0.0220524724572896,0.0189085472375154,0.0,0.0,0.3306632041931152,0.1900807619094848
-0.0116910934448242,0.7595183253288269,0.0768811330199241,-0.94020676612854,-0.0208660271018743,0.0237289797514677,0.0,0.0,0.4395090341567993,0.1502996683120727
-0.0108308792114257,0.7383195757865906,0.0845033824443817,-0.9421468377113342,-0.0193635839968919,0.0300489552319049,0.0,0.0,0.8287169933319092,-0.6382116079330444
-0.0101209636777639,0.7178911566734314,0.0684541016817092,-0.9078997373580932,-0.0168597865849733,0.0500760860741138,0.0,0.0,0.2999224662780761,-0.1514573693275451
-0.0094912527129054,0.6977694630622864,0.0608543157577514,-0.8942749500274658,-0.0147683899849653,0.0418278500437736,0.0,0.0,0.4022761583328247,-0.2767162322998047
-0.0088616367429494,0.6776697635650635,0.0608519501984119,-0.8933029770851135,-0.0126895084977149,0.0415777750313282,0.0,0.0,0.6999465227127075,-0.2959977388381958
-0.008067893795669,0.6578225493431091,0.0765014439821243,-0.8820759654045105,-0.0098572913557291,0.0566443130373954,0.0,0.0,0.3546345233917236,-0.2540668249130249
-0.0073087690398097,0.6382560133934021,0.0731952935457229,-0.869601845741272,-0.0071729896590113,0.0536860302090644,0.0,0.0,0.5802499055862427,-0.0307511687278747
-0.0064377784729003,0.6187006831169128,0.0838226154446601,-0.8691245317459106,-0.003934727050364,0.0647652596235275,0.0,0.0,0.8549797534942627,-0.4232537746429443
-0.0055578229948878,0.5998624563217163,0.0846322327852249,-0.83724045753479,-0.0006099827587604,0.0664946809411048,0.0,0.0,0.6615879535675049,0.0186601877212524
-0.0045282365754246,0.5811340808868408,0.0988172963261604,-0.8323786854743958,0.0034773019142448,0.081745907664299,0.0,0.0,0.6642971038818359,-0.7178125381469727
-0.0036653517745435,0.5624879002571106,0.0808513835072517,-0.8287405371665955,0.0088418498635292,0.107291042804718,0.0,0.0,0.7688236236572266,0.3180885314941406
-0.0027147294022142,0.5444974303245544,0.0890854522585868,-0.7996255159378052,0.0147397192195057,0.117957517504692,0.0,0.0,0.2609894275665283,0.579946756362915
-0.0016178131336346,0.5266593098640442,0.104600965976715,-0.7928637862205505,0.019773693755269,0.1006796211004257,0.0,0.0,0.468021035194397,0.0356600284576416
-0.0004788398800883,0.5092946887016296,0.1084140986204147,-0.7718422412872314,0.0251800846308469,0.108127549290657,0.0,0.0,0.098945140838623,-0.0888176560401916
0.0005840301746502,0.4920863807201385,0.1009809821844101,-0.7649137377738953,0.0304158460348844,0.1047154515981674,0.0,0.0,0.2823303937911987,0.260832667350769
0.001663303351961,0.4746851325035095,0.1023867726325988,-0.7735089659690857,0.0358973667025566,0.1096303462982177,0.0,0.0,0.6454117298126221,0.3733420372009277
0.0026013373862951,0.4577001631259918,0.0886557400226593,-0.755020022392273,0.0409767366945743,0.1015873402357101,0.0,0.0,0.733187198638916,0.6108372211456299
0.0036862373817712,0.4409126043319702,0.1041700690984726,-0.7462368011474609,0.04524876922369,0.0854407101869583,0.0,0.0,0.5448338985443115,-0.4221869707107544
0.0047468184493482,0.4243597388267517,0.1015759110450744,-0.7358273267745972,0.0496777296066284,0.0885791033506393,0.0,0.0,0.6138708591461182,0.1949440240859985
0.005773258395493,0.4077682495117187,0.0980780571699142,-0.7375549674034119,0.0541942082345485,0.0903295129537582,0.0,0.0,0.931044578552246,-0.0918749570846557
0.0065937996841967,0.3915740549564361,0.0781144946813583,-0.7198916673660278,0.058090467005968,0.077925257384777,0.0,0.0,0.8290200233459473,0.5195837020874023
0.0073996544815599,0.3761845529079437,0.077575072646141,-0.6840963959693909,0.0610701739788055,0.0595940053462982,0.0,0.0,0.8247116804122925,0.5824623107910156
0.0083017349243164,0.3606590032577514,0.0880511775612831,-0.6901163458824158,0.0631956830620765,0.0425101555883884,0.0,0.0,0.819047212600708,-0.5253879427909851
0.0091053964570164,0.3459197282791137,0.077041745185852,-0.6552229523658752,0.0664949640631675,0.065985769033432,0.0,0.0,0.4949848651885986,0.1752111911773681
0.0097657199949026,0.3311871588230133,0.0630551129579544,-0.6549135446548462,0.0694350600242614,0.0588020794093608,0.0,0.0,0.7811410427093506,0.4623476266860962
0.0102452281862497,0.3169108629226684,0.0454115904867649,-0.6346239447593689,0.0719479322433471,0.0502574332058429,0.0,0.0,0.8360733985900879,0.2639036178588867
0.0106765748932957,0.3030471503734588,0.0404075495898723,-0.6163004636764526,0.0746454894542694,0.0539512746036052,0.0,0.0,0.5809025764465332,0.7829256057739258
0.0109392162412405,0.2897666990756988,0.0253257006406784,-0.5902904868125916,0.0755670517683029,0.018431494012475,0.0,0.0,0.6249306201934814,0.8792779445648193
0.0112740518525242,0.2767268121242523,0.0341835916042327,-0.5795168280601501,0.0748761072754859,-0.0138193145394325,0.0,0.0,0.9302384853363036,0.2643947601318359
0.0114995958283543,0.2637399137020111,0.0234362073242664,-0.5771502256393433,0.0740165710449218,-0.0171910487115383,0.0,0.0,0.8938608169555664,0.8078844547271729
0.0118102077394723,0.2506925761699676,0.0333640649914741,-0.5797710418701172,0.0717386230826377,-0.0455590113997459,0.0,0.0,0.8892529010772705,0.1816757917404174
0.0120195392519235,0.2375960946083068,0.0233951639384031,-0.581948459148407,0.0692984387278556,-0.0488036684691906,0.0,0.0,0.8952633142471313,0.8125054836273193
0.0121809002012014,0.2252483516931533,0.0202619433403015,-0.5486046075820923,0.0652173236012458,-0.0816221758723259,0.0,0.0,0.8031892776489258,-0.2838371992111206
0.0123324394226074,0.2136160731315612,0.0188767779618501,-0.5168352723121643,0.0615367479622364,-0.0736117511987686,0.0,0.0,0.8145227432250977,-0.3263014554977417
0.0122660640627145,0.2026905417442321,-0.0023228381760418,-0.4854087829589844,0.0572783537209034,-0.0851679891347885,0.0,0.0,0.8562145233154297,0.4582509994506836
0.0119931222870945,0.1916840374469757,-0.0222998633980751,-0.4889925718307495,0.0523358434438705,-0.0988499522209167,0.0,0.0,0.8139008283615112,0.2359287738800048
0.0116781238466501,0.1813554614782333,-0.0266891717910766,-0.458888828754425,0.0475827306509017,-0.0950625091791153,0.0,0.0,0.6941403150558472,0.6279666423797607
0.0112312315031886,0.1712810099124908,-0.0383225455880165,-0.4475665092468261,0.0412905365228652,-0.1258439421653747,0.0,0.0,0.7580718994140625,-0.8379378318786621
0.0105820652097463,0.1616573184728622,-0.0600938312709331,-0.4275940060615539,0.0365239977836608,-0.0953308716416359,0.0,0.0,0.5754152536392212,0.3675136566162109
0.0098548885434865,0.1524068415164947,-0.0678159520030021,-0.4110210239887237,0.0316786244511604,-0.0969073846936225,0.0,0.0,0.1064084768295288,0.4167574644088745
0.0091309547424316,0.1431175321340561,-0.0677265524864196,-0.4127657115459442,0.0270741861313581,-0.0920889526605606,0.0,0.0,0.2450037002563476,0.1696126461029052
0.008374786004424,0.1335900425910949,-0.0709979310631752,-0.4233685433864593,0.0225201938301324,-0.0910800993442535,0.0,0.0,0.5087289810180664,0.7945132255554199
0.0077243805862963,0.1239878013730049,-0.0589489415287971,-0.4266863465309143,0.0164999607950449,-0.1204046979546547,0.0,0.0,0.7803126573562622,-0.5437616109848022
0.0071459771133959,0.114685833454132,-0.0532690361142158,-0.4133789837360382,0.0119926175102591,-0.0901468843221664,0.0,0.0,0.8228435516357422,-0.582706093788147
0.0066367150284349,0.1054083183407783,-0.0479367896914482,-0.4123124778270721,0.0090473759919404,-0.0589050874114036,0.0,0.0,0.8692224025726318,0.4134725332260132
0.0060691833496093,0.0967797636985778,-0.0537023469805717,-0.3834761679172516,0.0060300282202661,-0.0603468231856823,0.0,0.0,0.9362919330596924,0.3715975284576416
0.0054879188537597,0.0888591632246971,-0.0551895387470722,-0.3520185351371765,0.0031359340064227,-0.0578816719353199,0.0,0.0,0.7732996940612793,0.5003635883331299
0.0050412178970873,0.0813893899321556,-0.0411058962345123,-0.3319863379001617,-0.000387084466638,-0.0704602599143982,0.0,0.0,0.6244397163391113,-0.35097336769104
0.0046487809158861,0.0737752020359039,-0.0360899530351161,-0.3384143710136413,-0.0034996438771486,-0.0622513219714164,0.0,0.0,0.7354041337966919,-0.7522880434989929
0.0040931701660156,0.0663358271121978,-0.0537497028708457,-0.3306418359279632,-0.0052910638041794,-0.0358284153044223,0.0,0.0,0.7282248735427856,0.5002996921539307
0.0036307335831224,0.0596293061971664,-0.0436436757445335,-0.2980811893939972,-0.007859100587666,-0.051360685378313,0.0,0.0,0.6013383865356445,-0.4018908739089966
0.0031045912764966,0.0531244836747646,-0.0498572327196598,-0.2891181409358978,-0.0105845853686332,-0.0545096769928932,0.0,0.0,0.7680842876434326,-0.1295469999313354
0.0024085999466478,0.0472729057073593,-0.0661529973149299,-0.2600988447666168,-0.0139802983030676,-0.0679142847657203,0.0,0.0,0.5210244655609131,0.6943657398223877
0.0018190384143963,0.0417596437036991,-0.0542397387325763,-0.2450841814279556,-0.0186410471796989,-0.0932148545980453,0.0,0.0,0.3367987871170044,-0.0900443792343139
0.0011516570812091,0.0365324132144451,-0.0617621131241321,-0.232392743229866,-0.023558696731925,-0.0983528345823288,0.0,0.0,0.6598395109176636,-0.2093175053596496
0.0003728866577148,0.0318105779588222,-0.0724438577890396,-0.2099542468786239,-0.0289183501154184,-0.1071930080652237,0.0,0.0,0.375744104385376,0.2545876502990722
-0.0004605293215718,0.0270858146250247,-0.0777607262134552,-0.2101081758737564,-0.0344322696328163,-0.1102786064147949,0.0,0.0,0.445093035697937,0.2231382131576538
-0.0014239310985431,0.0225293487310409,-0.0902187377214431,-0.2026616483926773,-0.0404775403439998,-0.1209053397178649,0.0,0.0,0.7295514345169067,0.1959834098815918
-0.0025686263106763,0.018178878352046,-0.1075562462210655,-0.1935590952634811,-0.0473115928471088,-0.1366811543703079,0.0,0.0,0.7265019416809082,0.7064197063446045
-0.0035475729964673,0.0143200019374489,-0.0897706896066665,-0.1717846244573593,-0.0553465597331523,-0.1606992185115814,0.0,0.0,0.4869604110717773,0.2472807168960571
-0.0044993399642407,0.0103287314996123,-0.0872412770986557,-0.1777014434337616,-0.0631875544786453,-0.1568199098110199,0.0,0.0,0.6193921566009521,0.3817626237869262
-0.0053081512451171,0.0068183280527591,-0.0735579878091812,-0.156345784664154,-0.0704329535365104,-0.1449081003665924,0.0,0.0,0.1170448064804077,0.5544719696044922
-0.0060121538117527,0.0042028878815472,-0.0808337852358818,-0.1157926246523857,-0.060078851878643,0.2071263492107391,1.0,0.0,0.4081425666809082,0.792474627494812
-0.0063688280060887,0.0026418780907988,-0.061189942061901,-0.0685636177659034,-0.0348022431135177,0.5056039094924927,1.0,0.0,-0.03523850440979,0.6735038757324219
-0.0066792489960789,0.0004374957061372,-0.0542574636638164,-0.0975927114486694,-0.0118797179311513,0.4584497809410095,1.0,0.0,0.1848238706588745,0.9179631471633912
-0.0069159506820142,-0.0015001320280134,-0.045041523873806,-0.0860850289463996,0.0092146443203091,0.4218873977661133,1.0,0.0,0.3204724788665771,0.8205208778381348
-0.0071354866959154,-0.0023988152388483,-0.0224361382424831,-0.0399919860064983,0.0095178298652172,0.005838387645781,0.0,1.0,-0.3725496530532837,0.0029433965682983
-0.0072618485428392,-0.0027368450537323,-0.0140234557911753,-0.0151650262996554,0.0104100881144404,0.0172473862767219,1.0,1.0,-0.8928225040435791,0.7226941585540771
-0.0072843553498387,-0.0026070976164191,-0.001210679183714,0.0057755280286073,0.0093894563615322,-0.0204134099185466,1.0,1.0,-0.3969950675964355,0.0626348257064819
-0.0073381424881517,-0.0021379613317549,-0.0017628285568207,0.0208661910146474,0.005809661000967,-0.0716089606285095,1.0,1.0,-0.6271633505821228,-0.2949854135513305
-0.0074135782197117,-0.0014301085611805,-0.0021335009951144,0.0314712785184383,0.0004654246440622,-0.1068945974111557,1.0,1.0,-0.8843708634376526,-0.1881908774375915
-0.0074381828308105,-0.00127017730847,-0.0012154912110418,0.0071070659905672,-0.0007725211908109,-0.0247586518526077,1.0,1.0,-0.777664303779602,-0.0795140862464904
-0.0074421884492039,-0.0012728237779811,-0.0004140577220823,-0.0001180663020932,-0.0007658366230316,0.0001303686149185,1.0,1.0,-0.8757196664810181,0.0734376907348632
-0.00744209298864,-0.0012740397360175,1.3133964785083664e-05,-5.267005326459184e-05,-0.000765735108871,1.963882141353679e-06,1.0,1.0,-0.9242472052574158,0.0665197372436523
-0.0074407579377293,-0.0012740397360175,0.0001428189279977,1.8503182275253494e-07,-0.0007678318652324,-4.0666574932402e-05,1.0,1.0,-0.6604399681091309,-0.0433717370033264
-0.0074398992583155,-0.0012740397360175,8.838831126922742e-05,4.275592004887585e-07,-0.0007690981728956,-2.515037704142742e-05,1.0,1.0,-0.7115859985351562,-0.1216618418693542
