x_pos,y_pos,x_vel,y_vel,angle,ang_vel,leg_1,leg_2,main_booster,lat_booster
-0.001534366630949,1.4030609130859375,-0.1551032066345214,-0.3492945432662964,0.0014836398186162,0.0292457155883312,0.0,0.0,-0.183930149754093,0.9670673683505056
-0.0029977797530591,1.394657015800476,-0.1454064100980758,-0.3735099732875824,0.0005629523657262,-0.0184147506952285,0.0,0.0,0.5934385378739522,-0.7846469150510945
-0.0043922425247728,1.3862677812576294,-0.1400712430477142,-0.3728520572185516,0.001186039764434,0.0124627985060215,0.0,0.0,0.8604476446317941,-0.5854804178176899
-0.005988597869873,1.378156661987305,-0.1607364565134048,-0.3604957461357116,0.0022721735294908,0.0217250660061836,0.0,0.0,0.0824636681811052,0.9322613631138612
-0.0074247359298169,1.370126247406006,-0.1425826251506805,-0.3569021821022033,0.0012520422460511,-0.0204043257981538,0.0,0.0,0.1978632106895612,-0.5387638405714915
-0.0088071823120117,1.3621224164962769,-0.1382531225681305,-0.3557264506816864,0.0012659583007916,0.0002780346840154,0.0,0.0,0.6125661952134673,0.5997296581470846
-0.0101796146482229,1.3544005155563354,-0.1357410252094268,-0.3431927263736725,-0.0002292629069415,-0.0299069620668888,0.0,0.0,0.8335692328480664,0.5645177411195528
-0.0113437650725245,1.347193717956543,-0.1140266805887222,-0.3203038871288299,-0.0025809160433709,-0.0470376312732696,0.0,0.0,-0.0095244658228732,0.6332775374696961
-0.0124721527099609,1.3394302129745483,-0.1089650616049766,-0.3450584709644317,-0.0064080548472702,-0.0765499249100685,0.0,0.0,0.1617807775585624,-0.5316598343868502
-0.0136529924347996,1.3318732976913452,-0.1150411367416381,-0.3358768820762634,-0.0094213858246803,-0.0602725148200988,0.0,0.0,0.0763740699065871,0.7807437421814807
-0.0147171970456838,1.3243327140808103,-0.1016266345977783,-0.3351732790470123,-0.0141687709838151,-0.0949561893939971,0.0,0.0,-0.6007468984908741,-0.9784833944559072
-0.0158631317317485,1.3162285089492798,-0.1113047823309898,-0.360230028629303,-0.0174271203577518,-0.0651726648211479,0.0,0.0,0.9827944272014836,0.8367083863946416
-0.0167716033756732,1.308817982673645,-0.0860451906919479,-0.3294160068035126,-0.0221805591136217,-0.0950773656368255,0.0,0.0,-0.7546203885694931,0.5210868184685991
-0.0176482200622558,1.3008378744125366,-0.0814840272068977,-0.3547731339931488,-0.0282935891300439,-0.1222714781761169,0.0,0.0,0.4648628841914914,-0.8856945456687519
-0.0184463504701852,1.2933969497680664,-0.0753908306360244,-0.3307965993881225,-0.0326698161661624,-0.087532453238964,0.0,0.0,-0.8381256859152904,0.5025270364109159
-0.0192118640989065,1.2853846549987793,-0.0707398951053619,-0.3562422096729278,-0.0384184271097183,-0.1149826869368553,0.0,0.0,-0.2830895272803917,-0.954977534156
-0.0200491901487112,1.2768237590789795,-0.0792237743735313,-0.3806048631668091,-0.0428853146731853,-0.0893458724021911,0.0,0.0,0.6183085044855579,0.973092981601582
-0.0206509586423635,1.2682266235351562,-0.0537279322743415,-0.3822944462299347,-0.0492642968893051,-0.1275910437107086,0.0,0.0,0.4645945505847833,0.9461584989058917
-0.0210588462650775,1.2601288557052612,-0.0323741808533668,-0.360194057226181,-0.0575867258012294,-0.1664639562368393,0.0,0.0,0.3836638156649539,-0.716051497395348
-0.0215848926454782,1.2521891593933103,-0.0453610718250274,-0.353162944316864,-0.0647680088877677,-0.1436386853456497,0.0,0.0,-0.0758984128805746,0.7721731866676517
-0.0220511443912982,1.2436854839324951,-0.0373492427170276,-0.3783643841743469,-0.0739579275250434,-0.1838148385286331,0.0,0.0,-0.1948429779065532,0.9938781573818598
-0.0224518775939941,1.2346055507659912,-0.0286290049552917,-0.4041594564914703,-0.0853039696812629,-0.2269409149885177,0.0,0.0,0.2102730790723515,0.7053194699731212
-0.0226702690124511,1.2255383729934692,-0.0090098194777965,-0.4037643671035766,-0.0980450734496116,-0.25484499335289,0.0,0.0,0.6459280064562993,0.5201282698369023
-0.0227577202022075,1.2163516283035278,0.0050472621805965,-0.4092615842819214,-0.1117432564496994,-0.2739883363246918,0.0,0.0,0.7640322944305933,-0.7357937627528621
-0.0230042450129985,1.207667589187622,-0.0118994992226362,-0.386964350938797,-0.1244420334696769,-0.2539983987808227,0.0,0.0,0.2703280051245269,0.7273086144027494
-0.0232670791447162,1.199223518371582,-0.0117926085367798,-0.3765613436698913,-0.1388632655143737,-0.2884245216846466,0.0,0.0,0.5864259942979355,0.555106675907054
-0.0233997348695993,1.191249132156372,0.0023923746775835,-0.3559575974941253,-0.1544792056083679,-0.3123191893100738,0.0,0.0,-0.5979311670798724,-0.5800430878269622
-0.0236008651554584,1.1827330589294434,-0.0058254692703485,-0.3800377249717712,-0.1687676757574081,-0.2857691645622253,0.0,0.0,-0.3498913954270763,0.5942495139705368
-0.023779297247529,1.173652172088623,-0.0025716442614793,-0.4054006338119507,-0.1840656250715255,-0.3059593141078949,0.0,0.0,-0.5591034206888521,0.7941512774447347
-0.0239123348146677,1.163991928100586,0.0035111655015498,-0.431522935628891,-0.2009746581315994,-0.3381808698177337,0.0,0.0,-0.4794497919059635,0.990519103383821
-0.0239785201847553,1.153759479522705,0.0122272428125143,-0.4574532210826874,-0.2199912816286087,-0.3803326487541199,0.0,0.0,-0.3416695594787597,-0.9326433539390564
-0.0241402629762887,1.1429896354675293,0.000561690016184,-0.4812406003475189,-0.2369464635848999,-0.3391036987304687,0.0,0.0,-0.1626614928245544,-0.9844302535057068
-0.0243999473750591,1.131699800491333,-0.0114844683557748,-0.5041677951812744,-0.2516827583312988,-0.2947255969047546,0.0,0.0,-0.9088600873947144,-0.9869357943534852
-0.0247583389282226,1.1198725700378418,-0.0235162936151027,-0.5278148055076599,-0.2642603814601898,-0.2515525221824646,0.0,0.0,-0.9913524389266968,-0.9821697473526
-0.0252028461545705,1.1075153350830078,-0.034030333161354,-0.5511298775672913,-0.2749334275722503,-0.2134609222412109,0.0,0.0,-0.1847069263458252,-0.9977094531059264
-0.0257332809269428,1.0946340560913086,-0.0445345900952816,-0.5741223096847534,-0.2836623787879944,-0.1745790690183639,0.0,0.0,-0.9998964071273804,-0.996148407459259
-0.0263571739196777,1.0812197923660278,-0.055933229625225,-0.5974619388580322,-0.2903036475181579,-0.1328253895044326,0.0,0.0,-0.9866232872009276,-0.9812766909599304
-0.0270627979189157,1.0672807693481443,-0.0659307837486267,-0.62044358253479,-0.295080304145813,-0.0955333784222602,0.0,0.0,-0.9844936728477478,-0.930659294128418
-0.0278550144284963,1.052822232246399,-0.0765478089451789,-0.6431382298469543,-0.2978346347808838,-0.0550868287682533,0.0,0.0,-0.9870153665542604,-0.9224563837051392
-0.0287269596010446,1.037832260131836,-0.0862680003046989,-0.6664225459098816,-0.2987970113754272,-0.0192477256059646,0.0,0.0,-0.9481847286224364,-0.9217882752418518
-0.0296929366886615,1.0223236083984375,-0.0978147238492965,-0.6890186071395874,-0.2975351512432098,0.0252372976392507,0.0,0.0,-0.917384147644043,-0.9023204445838928
-0.0307271964848041,1.0062744617462158,-0.1060638427734375,-0.7127546668052673,-0.2948016226291656,0.0546708218753337,0.0,0.0,-0.8864948153495789,-0.9882852435112
-0.031839657574892,0.9896800518035888,-0.1155498847365379,-0.7366672158241272,-0.2903737723827362,0.088557630777359,0.0,0.0,-0.7414833307266235,-0.9218785166740416
-0.0330243110656738,0.9725466966629028,-0.1243114322423935,-0.7603310346603394,-0.2843579947948456,0.1203153580427169,0.0,0.0,-0.6454753279685974,-0.7446491122245789
-0.0342844016849994,0.9548682570457458,-0.1334536969661712,-0.784275472164154,-0.2767066359519958,0.1530271470546722,0.0,0.0,-0.3322160243988037,-0.225886583328247
-0.0355579368770122,0.9366270899772644,-0.1348525136709213,-0.8093218207359314,-0.2690200805664062,0.1537313461303711,0.0,0.0,-0.1710225939750671,0.0783206224441528
-0.0368449203670024,0.9178228974342346,-0.1362508833408355,-0.8343680500984192,-0.2612940371036529,0.1545209139585495,0.0,0.0,0.3071868419647217,0.7169337272644043
-0.0380149856209754,0.8994359374046326,-0.1230646148324012,-0.8161351084709167,-0.2551091015338897,0.1236989349126815,0.0,0.0,0.2024240493774414,-0.2583911418914795
-0.0391470901668071,0.8813547492027283,-0.1188891157507896,-0.8026283979415894,-0.2493238896131515,0.1157045811414718,0.0,0.0,-0.1726430058479309,0.1169490814208984
-0.0402926430106163,0.8627104163169861,-0.1202833801507949,-0.8276723027229309,-0.2434885501861572,0.1167064532637596,0.0,0.0,0.5333383083343506,-0.1221853494644165
-0.0411943420767784,0.8442265391349792,-0.0965818837285041,-0.8204658031463623,-0.2369845807552337,0.1300795972347259,0.0,0.0,0.3514376878738403,0.7615787982940674
-0.0419600494205951,0.8260602951049805,-0.0814569741487503,-0.8066079616546631,-0.2320286482572555,0.0991183891892433,0.0,0.0,-0.2234420180320739,0.1098171472549438
-0.0427391044795513,0.8073309063911438,-0.0828447043895721,-0.8316511511802673,-0.2270154953002929,0.1002630591392517,0.0,0.0,0.4243019819259643,-0.1735996603965759
-0.0433737747371196,0.7890422344207764,-0.0684937685728073,-0.8120647668838501,-0.2219307869672775,0.1016940623521804,0.0,0.0,-0.1650682687759399,-0.0418104529380798
-0.0440217033028602,0.7701902389526367,-0.0698755532503128,-0.8371081948280334,-0.216786116361618,0.1028933897614479,0.0,0.0,-0.2122878432273864,-0.498779296875
-0.0446826927363872,0.7507750391960144,-0.0712537616491317,-0.862151563167572,-0.2115807384252548,0.1041077002882957,0.0,0.0,0.1736648082733154,-0.2279673218727111
-0.0451725013554096,0.7316057682037354,-0.0545121319591999,-0.8511832356452942,-0.2060054093599319,0.1115070208907127,0.0,0.0,-0.3900924921035766,0.133779764175415
-0.0456754676997661,0.7118732929229736,-0.0558820180594921,-0.8762271404266357,-0.2003691047430038,0.1127257570624351,0.0,0.0,0.2387698888778686,-0.2794020771980285
-0.0460134521126747,0.6924685835838318,-0.0397250093519687,-0.8616474866867065,-0.194413274526596,0.1191169023513794,0.0,0.0,-0.0211215615272521,0.3267555236816406
-0.0463644973933696,0.672500491142273,-0.0410847254097461,-0.8866918087005615,-0.1883979737758636,0.1203057169914245,0.0,0.0,0.4143898487091064,-0.2596043348312378
-0.0466259941458702,0.6524243950843811,-0.0323967896401882,-0.8914968967437744,-0.1821219325065612,0.1255212724208831,0.0,0.0,0.3466591835021972,-0.5411048531532288
-0.0469258315861225,0.6326670050621033,-0.0371803604066371,-0.8772360682487488,-0.1748999059200287,0.1444405019283294,0.0,0.0,0.3647390604019165,-0.2823689579963684
-0.0470635406672954,0.6129512786865234,-0.0215097963809967,-0.8753640055656433,-0.1671520471572876,0.1549572199583053,0.0,0.0,0.4633446931838989,0.682355523109436
-0.0470477119088172,0.5934575200080872,-0.0048919194377958,-0.8656788468360901,-0.1606762260198593,0.1295165717601776,0.0,0.0,0.6883525848388672,-0.393346905708313
-0.0469712242484092,0.5740053057670593,0.001090214238502,-0.8638478517532349,-0.1541153788566589,0.1312165558338165,0.0,0.0,0.2335556745529174,-0.4063950777053833
-0.0469308868050575,0.5546654462814331,-0.0021558736916631,-0.8589216470718384,-0.1479376852512359,0.1235539317131042,0.0,0.0,0.2433557510375976,-0.2057917118072509
-0.0467922203242778,0.5357145667076111,0.0075561301782727,-0.8416499495506287,-0.1416448950767517,0.125855877995491,0.0,0.0,0.5425995588302612,0.2183486223220825
-0.0465517044067382,0.516589879989624,0.0173474736511707,-0.8493613600730896,-0.134961724281311,0.1336635649204254,0.0,0.0,0.7818511724472046,-0.5899494886398315
-0.0462143905460834,0.4982808530330658,0.0257230810821056,-0.8130315542221069,-0.1269836723804474,0.1595610529184341,0.0,0.0,0.8074405193328857,-0.1671531796455383
-0.0459259040653705,0.4801990985870361,0.0212749056518077,-0.803005039691925,-0.1194563210010528,0.1505471169948578,0.0,0.0,0.8852336406707764,-0.2774922847747803
-0.045661736279726,0.4627241194248199,0.0193078629672527,-0.7761152386665344,-0.1123939082026481,0.1412483006715774,0.0,0.0,0.8018167018890381,-0.6174299716949463
-0.0453463569283485,0.445701390504837,0.0230798739939928,-0.7559511065483093,-0.1039934828877449,0.1680086404085159,0.0,0.0,0.5465985536575317,0.2505571842193603
-0.0450809486210346,0.429314374923706,0.0186234507709741,-0.7277830839157104,-0.0961440876126289,0.1569877713918686,0.0,0.0,0.8145840167999268,0.5588603019714355
-0.0446372032165527,0.4132928848266601,0.0373506285250186,-0.7116331458091736,-0.0891717299818992,0.1394469738006591,0.0,0.0,0.9003864526748657,0.0130250453948974
-0.0442039482295513,0.3973857164382934,0.0364745035767555,-0.7065889239311218,-0.0823866352438926,0.1357019394636154,0.0,0.0,0.551967978477478,-0.3274074792861938
-0.0436939224600791,0.3813644349575043,0.0438718535006046,-0.7116811275482178,-0.0753218680620193,0.1412955224514007,0.0,0.0,0.8501276969909668,0.2420037984848022
-0.0432024002075195,0.3653528690338135,0.0422040000557899,-0.711290180683136,-0.068444900214672,0.1375391036272049,0.0,0.0,0.9408729076385498,0.4013369083404541
-0.042668629437685,0.3501739799976349,0.0464985519647598,-0.6743184328079224,-0.061646282672882,0.1359722912311554,0.0,0.0,0.9114806652069092,0.0287151336669921
-0.0419960021972656,0.3358368277549743,0.0600001700222492,-0.6369249820709229,-0.0544612444937229,0.143700510263443,0.0,0.0,0.806800365447998,0.1747157573699951
-0.0414088256657123,0.3222857415676117,0.0520846843719482,-0.602046012878418,-0.04789524897933,0.1313195973634719,0.0,0.0,0.47608482837677,0.5096968412399292
-0.040902804583311,0.3086157739162445,0.0453684516251087,-0.6073947548866272,-0.0427224189043045,0.1034565418958664,0.0,0.0,0.7743558883666992,0.1044559478759765
-0.0403284057974815,0.2956523299217224,0.0520664229989051,-0.5760104656219482,-0.0374205708503723,0.1060370206832885,0.0,0.0,0.4632159471511841,0.5752791166305542
-0.0397979728877544,0.2828925848007202,0.0491443052887916,-0.5670064687728882,-0.0335675589740276,0.0770601481199264,0.0,0.0,0.6091318130493164,0.1531257629394531
-0.0393096916377544,0.2705620229244232,0.0452719256281852,-0.5479496717453003,-0.0300541054457426,0.0702689960598945,0.0,0.0,0.7339029312133789,-0.3310549259185791
-0.0388226509094238,0.2587690949440002,0.0453078113496303,-0.5240663290023804,-0.0267024263739585,0.0670336186885833,0.0,0.0,0.477419376373291,0.2059948444366455
-0.0382543578743934,0.2471898943185806,0.0531820058822631,-0.5145695209503174,-0.02310511469841,0.0719463303685188,0.0,0.0,0.5585832595825195,-0.5210897922515869
-0.037706471979618,0.235527291893959,0.0501673221588134,-0.5182754397392273,-0.0185358691960573,0.0913847759366035,0.0,0.0,0.8308221101760864,0.0797705650329589
-0.0370576865971088,0.22396782040596,0.0599090680480003,-0.5136997103691101,-0.0136295203119516,0.0981268510222435,0.0,0.0,0.5117781162261963,0.1655342578887939
-0.0362771041691303,0.2126262933015823,0.0726038739085197,-0.5040284991264343,-0.0082508409395813,0.1075734347105026,0.0,0.0,0.4857203960418701,-0.4632784128189087
-0.0353781692683696,0.2012521624565124,0.0840308144688606,-0.5054956078529358,-0.0024548664223402,0.1159193739295005,0.0,0.0,0.544701337814331,-0.6189478039741516
-0.0345416069030761,0.1903734058141708,0.0767185762524604,-0.4835022389888763,0.0043840557336807,0.1367785036563873,0.0,0.0,0.5057330131530762,-0.3211196660995483
-0.0336893089115619,0.1799690872430801,0.0783637315034866,-0.4624521434307098,0.0111661273986101,0.135641410946846,0.0,0.0,0.3537145853042602,0.0305467844009399
-0.032750129699707,0.1698233932256698,0.0867774710059166,-0.4509894549846649,0.0182203594595193,0.1410845071077346,0.0,0.0,0.1545538902282714,-0.2674834728240967
-0.0317533500492572,0.1594589054584503,0.0924152284860611,-0.4607484042644501,0.0253881271928548,0.1433553397655487,0.0,0.0,0.4675215482711792,-0.4446066617965698
-0.0308233257383108,0.1492080837488174,0.0861977040767669,-0.4557238817214966,0.0321149192750453,0.1345357745885849,0.0,0.0,0.768589973449707,-0.6941090822219849
-0.0298879630863666,0.1397895216941833,0.0853466391563415,-0.4188011884689331,0.0402086488902568,0.1618744432926178,0.0,0.0,0.5028696060180664,-0.4550886154174804
-0.0290024764835834,0.1305828839540481,0.0807077139616012,-0.4094158411026001,0.0479538477957248,0.1549040824174881,0.0,0.0,0.716533899307251,0.0214216709136962
-0.0282934196293354,0.1220423802733421,0.0639430731534957,-0.3798181414604187,0.0548380240797996,0.1376837342977523,0.0,0.0,0.5519330501556396,-0.8587104678153992
-0.0276041030883789,0.1139270886778831,0.0603819973766803,-0.3610168099403381,0.0632858350872993,0.168956309556961,0.0,0.0,-0.0197614431381225,0.1095036268234252
-0.0269218441098928,0.1052489578723907,0.0599735490977764,-0.3860635757446289,0.0714456364512443,0.1631958186626434,0.0,0.0,0.8715212345123291,0.9156336784362792
-0.0263382904231548,0.0972801521420478,0.0524402633309364,-0.3544658422470093,0.0772970467805862,0.1170282810926437,0.0,0.0,0.8030943870544434,0.3889096975326538
-0.0258301738649606,0.0895575359463691,0.0453464910387992,-0.3435186743736267,0.0827103406190872,0.1082659587264061,0.0,0.0,0.5934803485870361,0.837857723236084
-0.0254348758608102,0.0821319669485092,0.0362748317420482,-0.3302072286605835,0.0859325155615806,0.064443364739418,0.0,0.0,0.538445234298706,-0.3390713334083557
-0.0252266880124807,0.0748535990715026,0.0185549650341272,-0.3236179947853088,0.088170051574707,0.0447511449456214,0.0,0.0,0.5908339023590088,0.9877750873565674
-0.0248920433223247,0.0680766180157661,0.033419519662857,-0.3012006878852844,0.0882148295640945,0.0008956721867434,0.0,0.0,0.8029766082763672,-0.6964285373687744
-0.0245801918208599,0.0613336898386478,0.0299390815198421,-0.2997598946094513,0.0894579961895942,0.0248631723225116,0.0,0.0,0.850999116897583,0.7758104801177979
-0.0241119377315044,0.0553418509662151,0.047124721109867,-0.2662849128246307,0.0891616940498352,-0.0059261703863739,0.0,0.0,0.526008129119873,0.7241789102554321
-0.0236783027648925,0.0498676411807537,0.0455430671572685,-0.2431708723306656,0.0869956091046333,-0.043321494013071,0.0,0.0,-0.091014564037323,0.8287950754165649
-0.023168658837676,0.0438498370349407,0.0556226000189781,-0.2671950459480285,0.0823913365602493,-0.0920856222510337,0.0,0.0,0.6570467948913574,-0.4901080727577209
-0.0226341243833303,0.0381468869745731,0.0581449493765831,-0.2532119154930115,0.0777381137013435,-0.0930643677711486,0.0,0.0,0.561769962310791,-0.5617513656616211
-0.0222149845212698,0.0330340974032878,0.0459274277091026,-0.2270307838916778,0.0737709999084472,-0.0793423354625701,0.0,0.0,0.3816375732421875,-0.7440662384033203
-0.0218499191105365,0.028349170461297,0.0393592566251754,-0.2080813944339752,0.0709463581442833,-0.056492693722248,0.0,0.0,0.3975684642791748,0.7764284610748291
-0.0213774684816598,0.0236917119473218,0.0519890077412128,-0.2067824900150299,0.0662527158856391,-0.0938730537891388,0.0,0.0,0.2069498300552368,-0.8631726503372192
-0.0211086273193359,0.0191310979425907,0.0304052643477916,-0.202542558312416,0.0627712607383728,-0.0696292296051979,0.0,0.0,0.4931894540786743,0.1471357345581054
-0.0209869388490915,0.0146924350410699,0.0166894905269145,-0.1970910876989364,0.0583027116954326,-0.089370921254158,0.0,0.0,0.7103054523468018,0.2493419647216797
-0.0209234245121479,0.0105622624978423,0.0114440890029072,-0.1833765208721161,0.0532719828188419,-0.1006146520376205,0.0,0.0,0.8062715530395508,0.7936422824859619
-0.0207986831665039,0.0067483400925993,0.0195674337446689,-0.1692700088024139,0.0462579913437366,-0.1402799040079116,0.0,0.0,0.7107168436050415,-0.264799952507019
-0.0205574035644531,0.0029386735986918,0.0310675594955682,-0.1691206842660904,0.0393942631781101,-0.1372744739055633,0.0,0.0,0.7037458419799805,0.103201150894165
-0.0203237533569335,0.0001961326634045,0.0455286912620067,-0.1214724108576774,0.0174561832100152,-0.4388399720191955,0.0,1.0,0.5363997220993042,-0.1883270740509033
-0.0200803764164447,-0.0019782804884016,0.0464412905275821,-0.0965290740132331,-0.0043766219168901,-0.4366670548915863,0.0,1.0,0.3069168329238891,-0.1573789715766906
-0.0197437293827533,-0.0033771418966352,0.0447051189839839,-0.0622637420892715,-0.0152031639590859,-0.2164306640625,1.0,1.0,0.6793683767318726,-0.677803635597229
