x_pos,y_pos,x_vel,y_vel,angle,ang_vel,leg_1,leg_2,main_booster,lat_booster
-0.0015242577064782,1.4029325246810913,-0.1543599665164947,-0.3550103604793548,0.0017335412558168,0.0341933220624923,0.0,0.0,0.1298727095952843,0.8949123874423724
-0.0029384612571448,1.3947449922561646,-0.14129538834095,-0.3638907670974731,0.0016124622197821,-0.0024212051648646,0.0,0.0,-0.8487842795178262,0.8055545155774477
-0.0042769433930516,1.3858590126037598,-0.1316744685173034,-0.3949279189109802,-0.0005342699005268,-0.0429386682808399,0.0,0.0,0.5003237885190179,0.9261734102324762
-0.0056669237092137,1.3769588470458984,-0.1347176134586334,-0.3955744802951813,-0.0047702807933092,-0.0847282856702804,0.0,0.0,0.4055117249530848,-0.9780678128510204
-0.0070075988769531,1.3682012557983398,-0.1317286640405655,-0.3892305195331573,-0.0070775323547422,-0.046149305999279,0.0,0.0,-0.7849556420885284,0.8397356281337535
-0.0082701686769723,1.3587498664855957,-0.1217238530516624,-0.420096755027771,-0.0115641551092267,-0.0897410735487937,0.0,0.0,-0.1583233822979983,0.8319670251491009
-0.0094732288271188,1.3486056327819824,-0.1140051931142807,-0.4509157836437225,-0.0177905429154634,-0.1245389953255653,0.0,0.0,0.1709425588587831,-0.9493082073463828
-0.0106222154572606,1.338458776473999,-0.1103710159659385,-0.4510275423526764,-0.022270193323493,-0.0896014347672462,0.0,0.0,-0.5486957744399317,-0.6001874386297927
-0.0118236541748046,1.327628254890442,-0.1166523545980453,-0.4814156591892242,-0.025727791711688,-0.0691577941179275,0.0,0.0,-0.7800578018705522,-0.9734956265600913
-0.0131066320464015,1.3161147832870483,-0.1265439838171005,-0.5117394328117371,-0.0274592842906713,-0.0346329174935817,0.0,0.0,-0.0968315878535519,0.5968165789327888
-0.0143410684540867,1.3039076328277588,-0.1201060190796852,-0.5426049828529358,-0.0307644512504339,-0.0661094710230827,0.0,0.0,0.6788077249757596,0.9727687007654934
-0.0154070854187011,1.2918041944503784,-0.1011978760361671,-0.5380478501319885,-0.0361188873648643,-0.1070984825491905,0.0,0.0,0.5459928365917426,0.7858813309968948
-0.0162582397460937,1.2799837589263916,-0.0781120210886001,-0.5255383253097534,-0.0430405065417289,-0.138445109128952,0.0,0.0,-0.6667152971339807,-0.6575880588947913
-0.0171615593135356,1.267468810081482,-0.0842414572834968,-0.5564149022102356,-0.049069844186306,-0.1205975413322448,0.0,0.0,0.1411245121929152,-0.7014736037006626
-0.0179882049560546,1.255118489265442,-0.0778451785445213,-0.5490677356719971,-0.0538476519286632,-0.0955649465322494,0.0,0.0,0.50448836368798,-0.526356573971295
-0.0187417026609182,1.2424702644348145,-0.0715747326612472,-0.5622802972793579,-0.0575892366468906,-0.0748383030295372,0.0,0.0,0.7355871506357934,-0.6450380433898262
-0.0193451885133981,1.230474591255188,-0.0579473748803138,-0.5332387685775757,-0.0599594339728355,-0.0474079586565494,0.0,0.0,-0.8169396868792198,0.7791171013935339
-0.0198804847896099,1.2177735567092896,-0.0488946624100208,-0.564684271812439,-0.0645538344979286,-0.091896541416645,0.0,0.0,0.7704405879016465,-0.7354567388444084
-0.0203123092651367,1.2056701183319092,-0.0399715043604373,-0.5380702614784241,-0.067749947309494,-0.0639278814196586,0.0,0.0,0.4732575065674538,0.8616614500172165
-0.0207311622798442,1.1936311721801758,-0.0364872477948665,-0.5353173017501831,-0.073094792664051,-0.1069062948226928,0.0,0.0,0.0800501335129828,0.6592100185633921
-0.0209757797420024,1.1816251277923584,-0.0175295751541852,-0.5339611172676086,-0.0799722597002983,-0.1375616639852523,0.0,0.0,0.394091934710199,-0.8045240848008832
-0.0212515834718942,1.1694875955581665,-0.0219216980040073,-0.5397551655769348,-0.0855782181024551,-0.11212919652462,0.0,0.0,-0.3420373059208945,0.6573434846341422
-0.0214729309082031,1.1566499471664429,-0.0145370382815599,-0.5710147619247437,-0.0931268036365509,-0.1509848684072494,0.0,0.0,0.8688666237140215,-0.7069949163544806
-0.0216412544250488,1.143636703491211,-0.0104898838326334,-0.5787732005119324,-0.0994218960404396,-0.1259129494428634,0.0,0.0,-0.7298917481821736,-0.5823222742807751
-0.0218749996274709,1.1299424171447754,-0.0181169584393501,-0.6090003252029419,-0.1046462059020996,-0.1044955626130104,0.0,0.0,-0.2768439246852743,0.8244256308090314
-0.0220699310302734,1.115532159805298,-0.0126042691990733,-0.6409527659416199,-0.1114844307303428,-0.1367643773555755,0.0,0.0,-0.7895919999050443,0.8152201945398069
-0.0222093574702739,1.1004254817962646,-0.0050349654629826,-0.6720978617668152,-0.1203322038054466,-0.1769555062055587,0.0,0.0,-0.4355853830749754,0.659398585593618
-0.0223171226680278,1.0846281051635742,-0.0004638657846953,-0.7029747366905212,-0.1305870413780212,-0.205096811056137,0.0,0.0,0.2977550076421278,-0.7396870625745607
-0.022526741027832,1.0690854787826538,-0.0116161964833736,-0.691635251045227,-0.1398990005254745,-0.186239093542099,0.0,0.0,-0.3307108308142501,0.604404809137161
-0.0227004997432231,1.0528408288955688,-0.0064895586110651,-0.7230441570281982,-0.1507649272680282,-0.2173185795545578,0.0,0.0,-0.875116106118139,0.9217394416238242
-0.0228086467832326,1.0359001159667969,0.0023497098591178,-0.7543054223060608,-0.1639163494110107,-0.2630283534526825,0.0,0.0,-0.9453089833259584,-0.9993963837623596
-0.0230151172727346,1.0182864665985107,-0.0093727353960275,-0.7841200232505798,-0.1752036809921264,-0.2257465869188308,0.0,0.0,-0.984122097492218,-0.9969192743301392
-0.0233182907104492,1.0000154972076416,-0.0209567565470933,-0.813176691532135,-0.1846073120832443,-0.1880727112293243,0.0,0.0,-0.969707190990448,-0.9702429175376892
-0.0237159729003906,0.9810690879821776,-0.03214867785573,-0.8430296182632446,-0.1922601163387298,-0.1530559211969375,0.0,0.0,-0.5869067311286926,-0.9815328121185304
-0.0241973884403705,0.961455762386322,-0.0420453809201717,-0.8725016713142395,-0.1983912289142608,-0.1226222515106201,0.0,0.0,0.3090052604675293,-0.9884645938873292
-0.0246296878904104,0.9420585036277772,-0.0387380830943584,-0.8627097010612488,-0.2029224932193756,-0.0906250402331352,0.0,0.0,-0.0129386782646179,-0.958133578300476
-0.025150204077363,0.9219895601272584,-0.0491467677056789,-0.8923558592796326,-0.2058455049991607,-0.0584603771567344,0.0,0.0,0.3116941452026367,-0.9905296564102172
-0.0255982391536235,0.9021377563476562,-0.0435077771544456,-0.8824877142906189,-0.2071553319692611,-0.0261965002864599,0.0,0.0,-0.2186393737792968,-0.9683778285980223
-0.0261345859616994,0.881630539894104,-0.0540059097111225,-0.911380171775818,-0.2067798525094986,0.0075095696374773,0.0,0.0,0.7204711437225342,-0.994027853012085
-0.0265952106565237,0.8613767623901367,-0.0480712726712226,-0.8998847603797913,-0.2047582417726516,0.0404323488473892,0.0,0.0,0.2108588218688964,-0.9613552689552308
-0.027112865820527,0.8413292765617371,-0.0552831217646598,-0.8905137777328491,-0.2012117803096771,0.0709296613931655,0.0,0.0,0.5819723606109619,-0.0602410435676574
-0.0274245254695415,0.8212922811508179,-0.0348418615758419,-0.8900372385978699,-0.1975108087062835,0.0740196108818054,0.0,0.0,0.1355147361755371,-0.7137452960014343
-0.0276858322322368,0.8008681535720825,-0.0309161935001611,-0.9071117639541626,-0.1926937848329544,0.0963404029607772,0.0,0.0,-0.1935299038887024,-0.6516175866127014
-0.0279994010925292,0.7797642350196838,-0.0368488803505897,-0.9372464418411256,-0.1871720552444458,0.1104347482323646,0.0,0.0,0.572740912437439,-0.5214280486106873
-0.0283526424318552,0.7583998441696167,-0.0413707792758941,-0.9487772583961488,-0.1811001896858215,0.1214374527335167,0.0,0.0,0.5275454521179199,-0.2408607006072998
-0.0286181457340717,0.7367891073226929,-0.0324272140860557,-0.9597705602645874,-0.1752120107412338,0.1177637130022049,0.0,0.0,0.7618494033813477,-0.8418456315994263
-0.0288057327270507,0.715185821056366,-0.0260644219815731,-0.9593019485473632,-0.1678854376077652,0.1465315371751785,0.0,0.0,0.8493819236755371,0.291692852973938
-0.0289709083735942,0.6943037509918213,-0.022884476929903,-0.9273875951766968,-0.1615126878023147,0.1274547129869461,0.0,0.0,0.685382604598999,-0.3256853818893432
-0.0291498191654682,0.6739538908004761,-0.023274490609765,-0.9038689136505128,-0.1561331450939178,0.1075904965400695,0.0,0.0,0.413183331489563,-0.3581536412239074
-0.0292884819209575,0.6535617709159851,-0.018795508891344,-0.9058037996292114,-0.1511993259191513,0.0986760705709457,0.0,0.0,0.0917162895202636,-0.6206277012825012
-0.0293227192014455,0.6330251097679138,-0.0093990452587604,-0.9121426343917848,-0.145237922668457,0.1192280426621437,0.0,0.0,0.7240943908691406,-0.7350627779960632
-0.0293767936527729,0.6129704713821411,-0.0123729715123772,-0.8906558156013489,-0.1382924169301986,0.1389103233814239,0.0,0.0,0.8261767625808716,0.57938551902771
-0.0291991233825683,0.5929155945777893,0.0119520165026187,-0.8908001184463501,-0.1325022876262664,0.1158024668693542,0.0,0.0,0.3646807670593261,-0.7583764791488647
-0.0289992336183786,0.5731676816940308,0.0129907708615064,-0.8770776391029358,-0.1255278140306472,0.1394893676042556,0.0,0.0,0.4339818954467773,-0.4130874872207641
-0.0286266319453716,0.5533345341682434,0.0299748964607715,-0.8808817267417908,-0.118286408483982,0.1448278427124023,0.0,0.0,0.8479270935058594,-0.2981004118919372
-0.0283064842224121,0.5336142778396606,0.0255442913621664,-0.8759559988975525,-0.1118635907769203,0.128456562757492,0.0,0.0,0.8321335315704346,-0.3010848760604858
-0.0277925487607717,0.5145030617713928,0.0447622574865818,-0.8489073514938354,-0.1052752584218978,0.1317668259143829,0.0,0.0,0.5136384963989258,-0.7707125544548035
-0.0271426197141408,0.4956132173538208,0.0568807423114776,-0.8389992117881775,-0.0972251668572425,0.1610017567873001,0.0,0.0,0.8943307399749756,-0.8143948316574097
-0.026379395276308,0.4774460792541504,0.0666731372475624,-0.8068264126777649,-0.0876549333333969,0.1914043873548507,0.0,0.0,0.7891378402709961,-0.0415441393852233
-0.0256315227597951,0.4598707556724548,0.0657989755272865,-0.7806236743927002,-0.0787590965628624,0.1779170930385589,0.0,0.0,0.7276279926300049,0.1812121868133545
-0.0248074531555175,0.442177414894104,0.0734498649835586,-0.7859227061271667,-0.0698999017477035,0.1771837770938873,0.0,0.0,0.5583784580230713,-0.2673599123954773
-0.0240390785038471,0.4247931838035583,0.0686080008745193,-0.7722690105438232,-0.0617537833750247,0.1629224419593811,0.0,0.0,0.6682158708572388,-0.2108204364776611
-0.0231212619692087,0.4074883460998535,0.0832374691963195,-0.7687759399414062,-0.0532973036170005,0.1691295653581619,0.0,0.0,0.8178553581237793,-0.6186331510543823
-0.022195529192686,0.3905054628849029,0.0829631611704826,-0.7544806599617004,-0.0437951944768428,0.1900419741868972,0.0,0.0,0.9505853652954102,-0.5788756608963013
-0.0212918277829885,0.3735392391681671,0.079802006483078,-0.7537772059440613,-0.0333623401820659,0.2086571753025055,0.0,0.0,0.9698026180267334,0.5506494045257568
-0.0204842574894428,0.3569446802139282,0.0720163658261299,-0.7373639345169067,-0.0247207898646593,0.1728308945894241,0.0,0.0,0.9160027503967284,-0.0950077176094055
-0.0196334831416606,0.3411465287208557,0.0764384716749191,-0.7020224928855896,-0.016192827373743,0.1705593019723892,0.0,0.0,0.8898544311523438,0.2114382982254028
-0.0186895374208688,0.3251567780971527,0.0855369493365287,-0.7105851769447327,-0.007449354045093,0.1748691797256469,0.0,0.0,0.9833182096481324,0.2842665910720825
-0.0177115444093942,0.3100128769874573,0.0890179350972175,-0.6730467081069946,0.0012352999765425,0.1736931204795837,0.0,0.0,0.9354429244995116,0.1853632926940918
-0.0168499946594238,0.2950093150138855,0.0780790746212005,-0.6668514609336853,0.0092111499980092,0.1595169007778167,0.0,0.0,0.944841742515564,0.4919123649597168
-0.0161090847104787,0.2805085778236389,0.0666952952742576,-0.6445415616035461,0.0164982751011848,0.1457426398992538,0.0,0.0,0.9684085845947266,0.7002103328704834
-0.0152908321470022,0.2664320468902588,0.0759384483098983,-0.6257007122039795,0.0223127361387014,0.1162893027067184,0.0,0.0,0.9361307621002196,0.5265688896179199
-0.0146177290007472,0.2531498968601227,0.0631288066506385,-0.5903885960578918,0.0264368746429681,0.0824827700853347,0.0,0.0,0.9428486824035645,0.251834511756897
-0.0138808246701955,0.240197479724884,0.0692640393972396,-0.5757462978363037,0.0308027006685733,0.0873166918754577,0.0,0.0,0.8739321231842041,-0.3467199802398681
-0.0132002830505371,0.2272165119647979,0.0639660730957984,-0.5770218372344971,0.034843873232603,0.0808234065771102,0.0,0.0,0.9220750331878662,0.4414718151092529
-0.0124579425901174,0.2141147404909134,0.0699111446738243,-0.5824095010757446,0.0391134396195411,0.0853910595178604,0.0,0.0,0.9614865779876708,-0.1429406404495239
-0.0117727275937795,0.2009228616952896,0.0645039677619934,-0.5864169597625732,0.0430819988250732,0.0793712586164474,0.0,0.0,0.9660565853118896,0.0243293046951293
-0.0111416820436716,0.1884528696537017,0.0592491552233696,-0.5543345808982849,0.0468870811164379,0.0761017128825187,0.0,0.0,0.971149206161499,-0.4864905476570129
-0.0104642864316701,0.1767560839653015,0.0635533183813095,-0.5199943780899048,0.0510264486074447,0.0827872231602668,0.0,0.0,0.9588931798934937,-0.2947238087654114
-0.0099721904844045,0.1658088713884353,0.0457340478897094,-0.486662894487381,0.0544527135789394,0.0685253739356994,0.0,0.0,0.8844068050384521,-0.4764475226402282
-0.0096510890871286,0.1547235548496246,0.0294343624264001,-0.4927832782268524,0.0571084320545196,0.0531141273677349,0.0,0.0,0.94651460647583,0.3447953462600708
-0.0093381879851222,0.1443449854850769,0.0284597910940647,-0.4613805711269378,0.0599055886268615,0.055943090468645,0.0,0.0,0.9375591278076172,0.6746971607208252
-0.0091423988342285,0.134278118610382,0.0185077730566263,-0.4474563896656036,0.0609669908881187,0.0212281830608844,0.0,0.0,0.9681668281555176,0.8452726602554321
-0.0090025905519723,0.1247313097119331,0.014823111705482,-0.42426797747612,0.0601361356675624,-0.016617327928543,0.0,0.0,0.9308130741119384,0.4914864301681518
-0.0089277271181344,0.1157147958874702,0.008442853577435,-0.4006965458393097,0.0591895245015621,-0.0189322642982006,0.0,0.0,0.831873893737793,0.2178324460983276
-0.008796215057373,0.1069807410240173,0.0137006621807813,-0.3881600797176361,0.0586477220058441,-0.0108359325677156,0.0,0.0,0.90622878074646,-0.1339544653892517
-0.0086619378998875,0.0981483310461044,0.0138751417398452,-0.3925316929817199,0.0581983476877212,-0.0089873159304261,0.0,0.0,0.962405562400818,0.7820765972137451
-0.0083752628415822,0.0893502533435821,0.0304480381309986,-0.3909591138362884,0.0564375109970569,-0.0352167375385761,0.0,0.0,0.95823073387146,-0.859832227230072
-0.0080050472170114,0.0808839201927185,0.0366989597678184,-0.3762941658496856,0.0567582622170448,0.0064150253310799,0.0,0.0,0.9382603168487548,-0.8869230151176453
-0.0075522423721849,0.0724209398031234,0.0428318306803703,-0.3762242496013641,0.0591827034950256,0.0484887324273586,0.0,0.0,0.98316752910614,-0.2753610014915466
-0.0071600913070142,0.064615786075592,0.036790195852518,-0.3469942510128021,0.0615720488131046,0.0477869287133216,0.0,0.0,0.950641393661499,0.1719504594802856
-0.0067872046492993,0.0574628673493862,0.0347060486674308,-0.3180162608623504,0.0641335472464561,0.0512297861278057,0.0,0.0,0.9100887775421144,0.0319451093673706
-0.0063202856108546,0.0507863126695156,0.0434210561215877,-0.2968797087669372,0.0673706158995628,0.0647415667772293,0.0,0.0,0.9282296895980836,0.2387837171554565
-0.0057616233825683,0.0439999662339687,0.0520216599106788,-0.3017937541007995,0.0711677595973014,0.0759428590536117,0.0,0.0,0.9674890041351318,-0.7090783715248108
-0.0053693773224949,0.0374139659106731,0.0341163091361522,-0.2929619550704956,0.076232261955738,0.1012900620698928,0.0,0.0,0.99403977394104,0.5876576900482178
-0.0049017905257642,0.0317184552550315,0.0424887686967849,-0.2533581256866455,0.0804588198661804,0.08453119546175,0.0,0.0,0.742131233215332,-0.1628448367118835
-0.0045065879821777,0.0262254327535629,0.0353307276964187,-0.2443638741970062,0.084602877497673,0.0828813761472702,0.0,0.0,0.896836519241333,-0.56854647397995
-0.0043849945068359,0.0213860124349594,0.0072381808422505,-0.2153735756874084,0.0894868597388267,0.0976796820759773,0.0,0.0,0.7553637027740479,0.8510353565216064
-0.0041604042053222,0.0169894080609083,0.0190181322395801,-0.1956102848052978,0.0928957015275955,0.0681768506765365,0.0,0.0,0.682951807975769,-0.2906733155250549
-0.0040603638626635,0.0130349732935428,0.0067786276340484,-0.1759598553180694,0.0960953533649444,0.0639930516481399,0.0,0.0,0.7934556007385254,0.586074709892273
-0.0040873526595532,0.0095991706475615,-0.0045378236100077,-0.1528198271989822,0.0979163944721221,0.0364208295941352,0.0,0.0,0.4517154693603515,0.925453782081604
-0.0041978834196925,0.0068819858133792,0.0078995106741786,-0.1196613684296608,0.0790462270379066,-0.377527117729187,0.0,1.0,0.5757460594177246,0.2887972593307495
-0.0045515061356127,0.0048678969033062,-0.0017158970003947,-0.0882396697998046,0.045278288424015,-0.6759876012802124,0.0,1.0,0.6278197765350342,0.0956994295120239
-0.0050622941926121,0.0029071306344121,-0.0173217039555311,-0.0864643603563308,0.0119387907907366,-0.6667913794517517,0.0,1.0,0.6496773958206177,0.3615467548370361
-0.0054759024642407,0.0013469791738316,-0.0080912131816148,-0.0694029107689857,-0.0209100283682346,-0.6569769382476807,0.0,0.0,0.0592069625854492,-0.9379441738128662
-0.0058256150223314,0.0001634812360862,-0.0227856896817684,-0.0528160668909549,-0.0329331830143928,-0.2404478788375854,1.0,0.0,-0.0929316878318786,-0.0609314441680908
-0.0060601234436035,-0.0010407232912257,-0.0302696265280246,-0.0533851981163024,-0.0262051951140165,0.1345642507076263,1.0,0.0,-0.0171770453453063,0.5984175205230713
-0.006150817964226,-0.0023541473783552,-0.0311142150312662,-0.0581367760896682,-0.0044284164905548,0.435554176568985,1.0,0.0,0.1318309307098388,0.5393476486206055
-0.0061892508529126,-0.0024318241048604,-0.0183992218226194,-0.0035068176221102,0.0098295863717794,0.2850176393985748,1.0,1.0,0.4766613245010376,0.9976260662078856
-0.0062825204804539,-0.0018339419038966,-0.0047997618094086,0.0265778377652168,0.0053041246719658,-0.0905849039554596,1.0,1.0,-0.9091336727142334,-0.0538671612739563
-0.0063876151107251,-0.0011092447675764,-0.0050126169808208,0.0322046726942062,-0.0001717073319014,-0.1095793694257736,1.0,1.0,-0.7008305788040161,-0.3957471847534179
-0.0064370157197117,-0.000987293664366,-0.0040180962532758,0.0054127927869558,-0.0011151788057759,-0.018902700394392,1.0,1.0,-0.7404340505599976,0.020880103111267
-0.0064502716995775,-0.0009903693571686,-0.0013698458205908,-0.0001471507421229,-0.00109220482409,0.0004210358019918,1.0,1.0,-0.6891931295394897,0.0378559827804565
-0.0064467429183423,-0.0009911560919135,0.0003302477125544,-3.987212403444573e-05,-0.0010958465281873,-9.305383719038218e-05,1.0,1.0,-0.7114985585212708,-0.0403668284416198
-0.0064401626586914,-0.0009910846129059,0.0006591047858819,1.3355764849620757e-06,-0.0011048793094232,-0.0001941861555678,1.0,1.0,-0.7510579824447632,-0.0170075297355651
-0.0064369202591478,-0.000991013017483,0.0003209134447388,6.914124810464273e-07,-0.0011089670006185,-9.442689770366997e-05,1.0,1.0,-0.5796935558319092,0.0562937259674072
-0.0064369202591478,-0.0009909415384754,-5.349570528778713e-06,-6.67824640032677e-09,-0.0011082243872806,1.6590618088230258e-06,1.0,1.0,-0.8422178030014038,-0.0096470117568969
-0.0064377784729003,-0.0009908699430525,-0.0001074276369763,-1.2748243705118514e-07,-0.0011060938704758,3.150281190755777e-05,1.0,1.0,-0.8697014451026917,0.0393207073211669
-0.0064383507706224,-0.0009907984640449,-6.78314027027227e-05,-7.409119007206756e-08,-0.0011046427534893,1.988579606404528e-05,1.0,1.0,-0.7682992219924927,-0.2202901244163513
-0.0064383507706224,-0.0009907269850373,-9.027062333188953e-06,-8.602417445047195e-09,-0.0011041531106457,2.713854655667092e-06,1.0,1.0,-0.8985687494277954,0.085886001586914
