x_pos,y_pos,x_vel,y_vel,angle,ang_vel,leg_1,leg_2,main_booster,lat_booster
-0.0014876365894451,1.403532862663269,-0.1509143114089965,-0.3283158242702484,0.0019283929141238,0.0380513742566108,0.0,0.0,-0.6641080975532532,0.8701180219650269
-0.0028639794327318,1.3960734605789185,-0.137834221124649,-0.3315301537513733,0.002127066720277,0.0039745992980897,0.0,0.0,-0.4371352791786194,0.6901588439941406
-0.0041358945891261,1.3885173797607422,-0.12590853869915,-0.3358299434185028,0.0008532382198609,-0.0254788007587194,0.0,0.0,0.1918803453445434,0.5159029960632324
-0.0054226876236498,1.3814085721969604,-0.1263412982225418,-0.3159461617469787,-0.0014509141910821,-0.0460874326527118,0.0,0.0,0.1015321016311645,0.1917619705200195
-0.0065830228850245,1.3748602867126465,-0.1143308728933334,-0.2910390794277191,-0.0031358676496893,-0.0337024331092834,0.0,0.0,-0.6731593608856201,0.6082065105438232
-0.0076441764831542,1.3682193756103516,-0.1031396389007568,-0.2951620817184448,-0.0060859299264848,-0.0590067915618419,0.0,0.0,-0.6059167385101318,0.0859832763671875
-0.0086644170805811,1.3614871501922607,-0.0992528051137924,-0.2992254197597503,-0.00881680380553,-0.0546222515404224,0.0,0.0,-0.3988457322120666,-0.1064462065696716
-0.009642886929214,1.3546634912490845,-0.0953127145767211,-0.3032907247543335,-0.0113246459513902,-0.0501615181565284,0.0,0.0,-0.614050567150116,-0.0504006743431091
-0.0105792041867971,1.3477483987808228,-0.0913226157426834,-0.3073563873767853,-0.0136046502739191,-0.0456044375896453,0.0,0.0,-0.6722567081451416,-0.4464341402053833
-0.0114728929474949,1.3407418727874756,-0.0872866064310073,-0.3114220798015594,-0.0156527105718851,-0.0409652516245842,0.0,0.0,-0.888053834438324,-0.4599040746688843
-0.0123232845216989,1.3336437940597534,-0.0832083076238632,-0.3154876828193664,-0.0174651220440864,-0.0362516418099403,0.0,0.0,-0.9030156135559082,-0.4698582887649536
-0.0131300929933786,1.3264544010162354,-0.0790911465883255,-0.3195531666278839,-0.019038550555706,-0.0314713045954704,0.0,0.0,-0.939761996269226,-0.0506009459495544
-0.0138930324465036,1.3191733360290527,-0.074938379228115,-0.3236185908317566,-0.0203699991106987,-0.0266316831111907,0.0,0.0,-0.9545891284942628,0.2977132797241211
-0.0146115301176905,1.3118007183074951,-0.0707530751824379,-0.3276839852333069,-0.0214569102972745,-0.0217400938272476,0.0,0.0,-0.9402544498443604,0.3314888477325439
-0.0152853969484567,1.304336667060852,-0.0665381401777267,-0.3317493498325348,-0.0222970154136419,-0.0168036706745624,0.0,0.0,-0.9054511189460754,-0.4449797868728637
-0.0159143451601266,1.296781063079834,-0.062296338379383,-0.3358146846294403,-0.0228884313255548,-0.0118293454870581,0.0,0.0,-0.6836716532707214,-0.2503077387809753
-0.0164980888366699,1.2891337871551514,-0.0580303259193897,-0.3398800194263458,-0.0232295896857976,-0.0068239727988839,0.0,0.0,-0.9493845105171204,-0.1011683940887451
-0.0170364379882812,1.2813950777053833,-0.0537426061928272,-0.3439453244209289,-0.0233192946761846,-0.0017942406702786,0.0,0.0,-0.9313716888427734,0.2871042490005493
-0.0175292007625103,1.2735648155212402,-0.0494356676936149,-0.3480106294155121,-0.023156639188528,0.0032533672638237,0.0,0.0,-0.9363197088241576,-0.0742125511169433
-0.0179760940372943,1.2656428813934326,-0.0451117344200611,-0.35207599401474,-0.0227410588413476,0.008312358520925,0.0,0.0,-0.9106875061988832,0.1842925548553466
-0.0183770172297954,1.257629632949829,-0.0407729968428611,-0.3561413586139679,-0.0220723040401935,0.0133764818310737,0.0,0.0,-0.9619269967079164,0.2456507682800293
-0.0187318809330463,1.249524474143982,-0.0364216081798076,-0.3602067232131958,-0.0211503878235816,0.0184399504214525,0.0,0.0,-0.9570667147636414,-0.1610364913940429
-0.0190405845642089,0.0,-0.0320595987141132,-0.364272266626358,-0.0199756696820259,0.0234964936971664,0.0,0.0,-0.9432610869407654,-0.3686449527740478
-0.0193029399961233,1.2330399751663208,-0.0276889503002166,-0.3683379292488098,-0.0185487698763608,0.028540575876832,0.0,0.0,-0.95987731218338,0.5644543170928955
-0.0194849018007516,1.2246609926223757,-0.0190286263823509,-0.3723872900009155,-0.0177282597869634,0.0164118520915508,0.0,0.0,-0.9791013598442078,-0.0282785892486572
-0.0196207053959369,1.2161691188812256,-0.0146684795618057,-0.377406507730484,-0.0166573207825422,0.0214188657701015,0.0,0.0,-0.9817816019058228,0.5949181318283081
-0.0196627620607614,1.2075883150100708,-0.0043290150351822,-0.3813709616661072,-0.0165276192128658,0.0025938297621905,0.0,0.0,-0.9494342803955078,-0.153943657875061
-0.0196582786738872,1.198915958404541,6.456884148065001e-05,-0.3854343593120575,-0.0161501355469226,0.0075498395599424,0.0,0.0,-0.9841936230659484,-0.6982096433639526
-0.0196744911372661,1.190159559249878,-0.0039689419791102,-0.3891507387161255,-0.0138368299230933,0.0462662354111671,0.0,0.0,-0.9430015683174132,-0.4404359459877014
-0.0196443554013967,1.1813116073608398,0.0004239603003952,-0.3932146728038788,-0.0112792756408452,0.0511510260403156,0.0,0.0,-0.9921473264694214,0.4573628902435303
-0.019567871466279,1.172372579574585,0.0048139309510588,-0.3972787261009216,-0.0084796641021966,0.0559922978281974,0.0,0.0,-0.9673503637313844,0.0201823711395263
-0.0194450374692678,1.1633418798446655,0.0091992588713765,-0.4013429284095764,-0.0054404335096478,0.0607847869396209,0.0,0.0,-0.96824312210083,-0.2254705429077148
-0.0192760471254587,1.1542201042175293,0.0135782342404127,-0.4054073691368103,-0.002164271660149,0.0655232593417167,0.0,0.0,-0.9815035462379456,0.0617173910140991
-0.0190609935671091,1.1450070142745972,0.0179491527378559,-0.4094719588756561,0.0013458669418469,0.0702027603983879,0.0,0.0,-0.7829471230506897,0.2412929534912109
-0.0188000686466693,1.1357024908065796,0.0223102997988462,-0.4135367572307586,0.0050867851823568,0.0748183727264404,0.0,0.0,-0.9613991975784302,0.303651213645935
-0.0184932705014944,1.1263068914413452,0.0266599506139755,-0.4176017940044403,0.009055052883923,0.0793651863932609,0.0,0.0,-0.9820354580879213,0.3185746669769287
-0.0181408878415823,1.116820216178894,0.0309963710606098,-0.421667069196701,0.0132469870150089,0.0838385224342346,0.0,0.0,-0.8877917528152466,0.7929623126983643
-0.0176762584596872,1.1072494983673096,0.0436834469437599,-0.4253872632980346,0.0159817226231098,0.0546949431300163,0.0,0.0,-0.9802181124687196,0.436253547668457
-0.017166519537568,1.0975877046585083,0.0479880943894386,-0.4294519126415252,0.0189320966601371,0.0590074583888053,0.0,0.0,-0.959445059299469,0.5544686317443848
-0.0165657997131347,1.087836503982544,0.0580363757908344,-0.4334125220775604,0.020939216017723,0.0401425622403621,0.0,0.0,-0.8317002654075623,0.1905329227447509
-0.0159203521907329,1.0779939889907837,0.0623020008206367,-0.4374769926071167,0.0231530349701643,0.0442765429615974,0.0,0.0,-0.881524384021759,-0.2889072299003601
-0.0152303697541356,1.0680601596832275,0.0665453225374221,-0.4415415525436401,0.025568775832653,0.0483149513602256,0.0,0.0,-0.744156002998352,0.411226749420166
-0.0144963264465332,1.058035135269165,0.0707644671201706,-0.4456061720848083,0.0281814653426408,0.0522537752985954,0.0,0.0,-0.9429160356521606,0.1378226280212402
-0.0137183191254735,1.0479189157485962,0.0749574527144432,-0.4496709108352661,0.0309859123080968,0.0560891851782798,0.0,0.0,-0.9065887331962584,0.1090182065963745
-0.0128967287018895,1.0377113819122314,0.079122319817543,-0.4537357985973358,0.0339767895638942,0.0598175339400768,0.0,0.0,-0.743691086769104,0.5542111396789551
-0.0119848251342773,1.0274091958999634,0.0891892984509468,-0.4579176306724548,0.0359627269208431,0.0397187620401382,0.0,0.0,-0.880525529384613,0.1653469800949096
-0.0110300062224268,1.017015814781189,0.0932917445898056,-0.461982250213623,0.0381238684058189,0.0432225801050663,0.0,0.0,-0.91393381357193,0.3591268062591553
-0.0100328447297215,1.0065312385559082,0.0973598286509513,-0.4660468995571136,0.0404543280601501,0.0466093644499778,0.0,0.0,-0.9165170192718506,-0.0581933856010437
-0.0089936256408691,0.9959552884101868,0.1013913974165916,-0.4701116681098938,0.0429481454193592,0.04987633228302,0.0,0.0,-0.9237115383148192,0.1928684711456298
-0.0079130176454782,0.9852879643440248,0.1053842529654502,-0.4741764962673187,0.0455991812050342,0.0530206449329853,0.0,0.0,-0.8959935307502747,0.4774709939956665
-0.0067912102676928,0.974529504776001,0.1093361526727676,-0.4782414138317108,0.0484011657536029,0.0560400001704692,0.0,0.0,-0.9513273239135742,-0.2905100584030151
-0.0056289671920239,0.9636799693107604,0.1132447719573974,-0.4823063910007477,0.0513477697968483,0.0589321739971637,0.0,0.0,-0.8505023121833801,0.0358221530914306
-0.0044266702607274,0.9527389407157898,0.1171078234910965,-0.4863714277744293,0.0544325113296508,0.0616951957345008,0.0,0.0,-0.9029113054275512,-0.4217684268951416
-0.0031847953796386,0.9417068362236024,0.1209229081869125,-0.4904365241527557,0.0576488897204399,0.0643274784088134,0.0,0.0,-0.972245156764984,-0.2608742713928222
-0.0019042014610022,0.930583655834198,0.1246876716613769,-0.4945017397403717,0.060990285128355,0.0668276399374008,0.0,0.0,-0.8694803714752197,-0.5486257672309875
-0.0006353378412313,0.919362246990204,0.1221093386411666,-0.4989319741725921,0.0657158195972442,0.0945107564330101,0.0,0.0,-0.7574872970581055,0.1412984132766723
0.0006712913746014,0.9080497622489928,0.1257662028074264,-0.5029981732368469,0.0705529823899269,0.0967436283826828,0.0,0.0,-0.8417376279830933,0.4766266345977783
0.0020148276817053,0.8966463208198547,0.1293653696775436,-0.5070644617080688,0.0754950791597366,0.0988419726490974,0.0,0.0,-0.9604209065437316,0.5152008533477783
0.0034402846358716,0.8851622939109802,0.1386123597621917,-0.5106064081192017,0.07938052713871,0.0777090266346931,0.0,0.0,-0.9630693197250366,-0.7424494624137878
0.0048349378630518,0.8735857605934143,0.1337763220071792,-0.5148239135742188,0.0850213915109634,0.1128170937299728,0.0,0.0,-0.8782394528388977,-0.4032949209213257
0.0062645911239087,0.8619185090065002,0.1371877044439315,-0.518890917301178,0.0907469913363456,0.114512026309967,0.0,0.0,-0.8829310536384583,-0.4465967416763305
0.0077283857390284,0.8501601219177246,0.1405315399169922,-0.522957980632782,0.0965506806969642,0.1160735860466957,0.0,0.0,-0.8930888175964355,0.1222842931747436
0.0092257503420114,0.8383108973503113,0.1438053846359253,-0.5270251035690308,0.1024258211255073,0.1175028309226036,0.0,0.0,-0.9483572840690612,-0.791843056678772
0.0106956483796238,0.8263630270957947,0.1394833624362945,-0.5315552949905396,0.1098825335502624,0.1491346210241317,0.0,0.0,-0.8598765730857849,0.6603951454162598
0.0122504234313964,0.814328134059906,0.1492490470409393,-0.5353543758392334,0.1160651072859764,0.1236514076590538,0.0,0.0,-0.9359899759292604,0.2614188194274902
0.0138360979035496,0.8022024035453796,0.1522988080978393,-0.539421796798706,0.1222997084259986,0.1246921271085739,0.0,0.0,-0.7680761814117432,0.3687479496002197
0.0154519081115722,0.7899859547615051,0.1552693545818328,-0.5434891581535339,0.1285801380872726,0.1256086826324463,0.0,0.0,-0.7653043866157532,0.8193646669387817
0.0171709060668945,0.7776828408241272,0.1674112677574157,-0.5471975803375244,0.1330452859401703,0.0893028900027275,0.0,0.0,-0.954458475112915,-0.3146395683288574
0.018918227404356,0.7652885913848877,0.1702166646718979,-0.5512633919715881,0.137544110417366,0.0899767577648162,0.0,0.0,-0.872662365436554,-0.0069887042045593
0.020693015307188,0.7528032660484314,0.1729366481304168,-0.5553291440010071,0.1420708298683166,0.0905345827341079,0.0,0.0,-0.8575706481933594,0.2308387756347656
0.0224943161010742,0.7402267456054688,0.1755694448947906,-0.5593947768211365,0.1466197818517685,0.090979129076004,0.0,0.0,-0.9338297247886658,-0.221539556980133
0.0243212692439556,0.7275591492652893,0.1781133115291595,-0.5634604096412659,0.151185467839241,0.0913140550255775,0.0,0.0,-0.9242741465568542,0.5555624961853027
0.0262063033878803,0.714814305305481,0.184792548418045,-0.5668172836303711,0.1548855751752853,0.0740022584795951,0.0,0.0,-0.8094483017921448,0.0083143711090087
0.028114890679717,0.701978325843811,0.1871539801359176,-0.5708822011947632,0.1585920453071594,0.0741297453641891,0.0,0.0,-0.6617375612258911,-0.4981116056442261
0.0300461761653423,0.68905109167099,0.1894222944974899,-0.5749470591545105,0.1623000502586364,0.0741598904132843,0.0,0.0,-0.7491437196731567,-0.1110423803329467
0.0319992080330848,0.6760324239730835,0.1915964782238006,-0.5790117979049683,0.1660049110651016,0.0740972459316253,0.0,0.0,-0.8311058282852173,-0.3656316995620727
0.0339728370308876,0.6629226207733154,0.1936756074428558,-0.583076536655426,0.1697022467851638,0.0739465504884719,0.0,0.0,-0.574160635471344,-0.509219765663147
0.0359253883361816,0.6497157216072083,0.1905539333820343,-0.5875168442726135,0.1744194775819778,0.0943446159362793,0.0,0.0,-0.8786769509315491,0.7584068775177002
0.0379627235233783,0.6364428400993347,0.2007583081722259,-0.5902632474899292,0.1773942112922668,0.0594942793250083,0.0,0.0,-0.4325125217437744,-0.4387322068214416
0.0400177016854286,0.623078465461731,0.202548861503601,,0.1803496927022934,0.0591099075973033,0.0,0.0,-0.3095322251319885,-0.58900386095047
0.0420344360172748,0.609601616859436,0.1973237991333007,-0.5995072722434998,0.1847214847803115,0.0874357968568801,0.0,0.0,-0.7777201533317566,0.2615711688995361
0.0440669059753418,0.5960333943367004,0.1989214867353439,-0.6035721898078918,0.1890676021575927,0.0869224518537521,0.0,0.0,-0.4238941669464111,0.590613603591919
0.046152114868164,0.5823850035667419,0.2052157372236251,-0.6070279479026794,0.1923993229866027,0.0666337683796882,0.0,0.0,-0.6674264669418335,0.1982457637786865
0.0482511520385742,0.5686450600624084,0.2066214382648468,-0.6110920310020447,0.1957000494003296,0.0660145133733749,0.0,0.0,-0.448458194732666,0.715727686882019
0.050416849553585,0.5548334717750549,0.2147198468446731,-0.614093542098999,0.1975560933351516,0.0371208302676677,0.0,0.0,-0.4735349416732788,-0.3787797093391418
0.052594281733036,0.5409303903579712,0.2159364223480224,-0.6181570291519165,0.1993770450353622,0.0364194028079509,0.0,0.0,-0.0652328729629516,-0.2348689436912536
0.0547825805842876,0.526935875415802,0.2170601189136505,-0.6222204566001892,0.2011613547801971,0.0356861129403114,0.0,0.0,-0.1664655208587646,-0.3788588643074035
0.0569808967411518,0.512849748134613,0.2180922478437423,-0.6262838244438171,0.2029077112674713,0.0349271968007087,0.0,0.0,0.0067297220230102,-0.6857384443283081
0.0591658577322959,0.4991980791091919,0.2153545320034027,-0.6071764826774597,0.2060714662075042,0.063275322318077,0.0,0.0,-0.4177274703979492,-0.5510557293891907
0.061326790601015,0.485440582036972,0.2121485769748687,-0.6119980216026306,0.2100501954555511,0.0795742273330688,0.0,0.0,-0.6109051704406738,0.82816481590271
0.063557431101799,0.4716178178787231,0.2208022773265838,-0.6146673560142517,0.2123344242572784,0.0456842705607414,0.0,0.0,-0.0176282525062561,-0.456974983215332
0.0657944679260253,0.4577035903930664,0.2214850485324859,-0.6187308430671692,0.214578777551651,0.0448869690299034,0.0,0.0,-0.2836553454399109,-0.8119421005249023
0.0679870620369911,0.4436846673488617,0.2157926857471466,-0.623569905757904,0.2180772721767425,0.0699697658419609,0.0,0.0,-0.3198401927947998,-0.4529229402542114
0.0701843276619911,0.4295743703842163,0.2163132727146148,-0.6276339888572693,0.2215369045734405,0.0691925212740898,0.0,0.0,-0.0109058618545532,0.5647108554840088
0.0724257454276084,0.4153845012187958,0.2217744886875152,-0.6310181021690369,0.2239218354225158,0.0476988591253757,0.0,0.0,0.3315385580062866,-0.6958522796630859
0.0745350867509841,0.4021352529525757,0.2071290910243988,-0.5894374847412109,0.2277839481830597,0.0772422403097152,0.0,0.0,0.0711836814880371,0.020459771156311
0.0765490531921386,0.3893288075923919,0.1976894438266754,-0.5697536468505859,0.2315412759780883,0.075146198272705,0.0,0.0,-0.1002480387687683,-0.7695435881614685
0.078492447733879,0.3764127194881439,0.1888318508863449,-0.5749247074127197,0.23713219165802,0.1118184551596641,0.0,0.0,0.1927675008773803,0.2908269166946411
0.080379769206047,0.3641622364521026,0.182979941368103,-0.5454043745994568,0.242983341217041,0.1170230507850647,0.0,0.0,-0.1456128358840942,0.1779956817626953
0.0822677612304687,0.3518207967281341,0.1830762773752212,-0.5494703054428101,0.2488066852092743,0.1164669170975685,0.0,0.0,0.6930783987045288,0.2074649333953857
0.0838847160339355,0.3404723405838012,0.156386598944664,-0.5052809715270996,0.2542130351066589,0.1081268414855003,0.0,0.0,0.5686081647872925,0.6603258848190308
0.085408017039299,0.3297269642353058,0.1484205573797226,-0.4782572388648987,0.2582107186317444,0.0799537971615791,0.0,0.0,0.5801756381988525,0.8933258056640625
0.0867304801940918,0.3197042942047119,0.1302775144577026,-0.4457994997501373,0.2602167129516601,0.0401197150349617,0.0,0.0,0.2253721952438354,0.91204035282135
0.0878962501883506,0.3101290464401245,0.1164782643318176,-0.425584614276886,0.2603102922439575,0.0018717243801802,0.0,0.0,0.9238681793212892,0.4427883625030517
0.0889638885855674,0.3017228543758392,0.1061271205544471,-0.3737225234508514,0.2609651386737823,0.0130972191691398,0.0,0.0,0.8467352390289307,0.2765944004058838
0.0899891853332519,0.2938494682312011,0.1015803068876266,-0.3500969707965851,0.2619326412677765,0.0193499587476253,0.0,0.0,0.9522887468338012,0.5060760974884033
0.0909910202026367,0.287280410528183,0.0997139066457748,-0.2920422852039337,0.2624189555644989,0.0097264442592859,0.0,0.0,0.9612536430358888,-0.3215207457542419
0.0917247757315635,0.2819438874721527,0.073017731308937,-0.2372412234544754,0.262785404920578,0.0073291785083711,0.0,0.0,0.4319256544113159,-0.1030411720275878
0.0923824310302734,0.2776370346546173,0.0648282021284103,-0.1915845572948455,0.2637354135513305,0.0190001409500837,0.0,0.0,-0.2417534589767456,-0.3183075189590454
0.0930364578962326,0.2732387185096741,0.0644609108567237,-0.1956487298011779,0.2647029459476471,0.0193503629416227,0.0,0.0,-0.414834976196289,0.098019003868103
0.0936867743730545,0.2687491178512573,0.0640655010938644,-0.1997130513191223,0.265694260597229,0.0198264550417661,0.0,0.0,0.219474196434021,-0.545002818107605
0.0941856354475021,0.2650167047977447,0.0477200970053672,-0.166281595826149,0.2679109275341034,0.0443342141807079,0.0,0.0,0.3964433670043945,-0.5193068981170654
0.094609834253788,0.2617640793323517,0.0390175245702266,-0.14518703520298,0.2713933885097503,0.0696490034461021,0.0,0.0,0.7603766918182373,-0.3849358558654785
0.0947277098894119,0.2593199908733368,0.0089315054938197,-0.109158843755722,0.2743173837661743,0.058479718863964,0.0,0.0,0.0031296014785766,0.694015383720398
0.0947234183549881,0.257220059633255,-0.0019044189248234,-0.0936066284775734,0.275827407836914,0.0302004627883434,0.0,0.0,0.2874209880828857,0.7129524946212769
0.0946311950683593,0.2556779086589813,-0.0093127368018031,-0.0685611814260482,0.2759258449077606,0.0019689579494297,0.0,0.0,-0.5419843196868896,0.8743879795074463
0.0946042090654373,0.254072368144989,-0.0010593840852379,-0.0710496827960014,0.274243950843811,-0.033637385815382,0.0,0.0,-0.1466541290283203,0.1844913959503173
-999.0,0.2523757219314575,-0.0015586188528686,-0.0751153603196144,0.2726378142833709,-0.0321227461099624,0.0,0.0,-0.815669059753418,0.5077102184295654
0.0945818871259689,0.250608891248703,0.0035438234917819,-0.078032337129116,0.269918143749237,-0.0543932430446147,0.0,0.0,-0.694968044757843,0.8725066184997559
0.0946540832519531,0.248787835240364,0.0115981912240386,-0.0801346153020858,0.2654421627521515,-0.0895197167992591,0.0,0.0,-0.6997195482254028,0.6909277439117432
0.0947818756103515,0.2468924075365066,0.0185609571635723,-0.0832046717405319,0.2595279514789581,-0.1182844415307045,0.0,0.0,0.0368643999099731,0.8588383197784424
0.0949417129158973,0.2455237060785293,0.0233715828508138,-0.0595454797148704,0.251987099647522,-0.1508169919252395,0.0,0.0,-0.7943843603134155,0.096834659576416
