x_pos,y_pos,x_vel,y_vel,angle,ang_vel,leg_1,leg_2,main_booster,lat_booster
-0.0016520500648766,1.4029171466827393,-0.1677819341421127,-0.3556866645812988,0.0023096601944416,0.0456010848283767,0.0,0.0,0.2069439888000488,0.6741311550140381
-0.0033364295959472,1.3947327136993408,-0.1699254214763641,-0.3637591302394867,0.0037722643464803,0.0292557291686534,0.0,0.0,0.1612645387649536,0.9575085639953612
-0.0049608228728175,1.3862605094909668,-0.16253162920475,-0.3765498995780945,0.0038709428627043,0.0019737950060516,0.0,0.0,0.4229063987731933,0.7983688116073608
-0.0067610740661621,1.377723217010498,-0.1788684278726577,-0.3794284760951996,0.0027295218314975,-0.0228309463709592,0.0,0.0,0.35243821144104,0.8501483201980591
-0.0084953308105468,1.369282841682434,-0.1712601780891418,-0.3751254975795746,0.0005924138240516,-0.0427461937069892,0.0,0.0,0.3899214267730713,0.9042022228240968
-0.0101432800292968,1.3608193397521973,-0.1615430861711502,-0.3761547207832336,-0.0026306584477424,-0.0644674971699714,0.0,0.0,0.3580793142318725,0.754058837890625
-0.0118646621704101,1.3523606061935425,-0.1679165512323379,-0.3759566843509674,-0.0068034655414521,-0.0834636837244033,0.0,0.0,0.0651783943176269,0.8062546253204346
-0.0135173797607421,1.3438209295272827,-0.1601005047559738,-0.379572182893753,-0.0119171226397156,-0.1022823676466941,0.0,0.0,-0.1042240858078002,0.7196907997131348
-0.0152205470949411,1.3345811367034912,-0.164348155260086,-0.4107198417186737,-0.0178216472268104,-0.1181011572480201,0.0,0.0,-0.5714558959007263,0.5871641635894775
-0.016979694366455,1.324636697769165,-0.1693898737430572,-0.4420613646507263,-0.0242688506841659,-0.1289559453725814,0.0,0.0,0.134831428527832,0.7079243659973145
-0.0187038425356149,1.31459379196167,-0.1651954501867294,-0.4464837312698364,-0.0314084887504577,-0.1428059786558151,0.0,0.0,0.0247433185577392,0.7864868640899658
-0.0203980449587106,1.3043283224105835,-0.1612981855869293,-0.4564367234706878,-0.0394421815872192,-0.1606884151697158,0.0,0.0,0.0308666229248046,0.42196786403656
-0.0220823287963867,1.2940051555633545,-0.1613530963659286,-0.4590075314044952,-0.0464419238269329,-0.1400077491998672,0.0,0.0,0.2747666835784912,0.8513822555541992
-0.0237095840275287,1.2833688259124756,-0.1546683609485626,-0.4730001986026764,-0.0544178672134876,-0.1595334112644195,0.0,0.0,-0.475421667098999,0.5929000377655029
-0.0253569595515728,1.272026777267456,-0.1558834612369537,-0.50443035364151,-0.0631803274154663,-0.175265222787857,0.0,0.0,0.0579993724822998,0.5101292133331299
-0.0269471164792776,1.2602458000183103,-0.1499673873186111,-0.5240017771720886,-0.0721415281295776,-0.1792402118444442,0.0,0.0,0.4574147462844848,0.7866380214691162
-0.0283509250730276,1.2488746643066406,-0.1306706368923187,-0.5058766007423401,-0.0817761197686195,-0.1927098631858825,0.0,0.0,-0.6562599539756775,-0.4777569770812988
-0.029814338311553,1.236796498298645,-0.1373127996921539,-0.5373256802558899,-0.0907327309250831,-0.1791480332612991,0.0,0.0,-0.4049928188323974,-0.4210509657859802
-0.0313304886221885,1.224010944366455,-0.1432834416627884,-0.568761944770813,-0.0990091487765312,-0.1655432283878326,0.0,0.0,-0.7246590256690979,-0.4314848184585571
-0.0328925140202045,1.21051824092865,-0.1485543102025985,-0.6001989245414734,-0.1066034659743309,-0.15189990401268,0.0,0.0,0.6297588348388672,-0.6901354193687439
-0.0343312248587608,1.197415828704834,-0.1386069357395172,-0.5827147960662842,-0.1118419840931892,-0.1047797799110412,0.0,0.0,0.0705947875976562,-0.6466068029403687
-0.0358115211129188,1.1840360164642334,-0.1447600126266479,-0.5949093103408813,-0.1151007711887359,-0.0651812255382537,0.0,0.0,0.1651480197906494,-0.5921889543533325
-0.0372167602181434,1.1705098152160645,-0.139291912317276,-0.6012611389160156,-0.1163255125284195,-0.0244970228523015,0.0,0.0,-0.2090998888015747,-0.6994407773017883
-0.0386867523193359,1.156275987625122,-0.1476846039295196,-0.632562518119812,-0.1156395226716995,0.0137212704867124,0.0,0.0,0.5985674858093262,-0.0519533157348632
-0.0402288436889648,1.1422854661941528,-0.1549464762210846,-0.621744692325592,-0.1149116158485412,0.014559474773705,0.0,0.0,-0.5599779486656189,-0.2506715059280395
-0.0417720787227153,1.1275651454925537,-0.1557333320379257,-0.6541257500648499,-0.1135058626532554,0.0281147956848144,0.0,0.0,-0.5905954837799072,-0.7899591326713562
-0.0433676727116107,1.112152338027954,-0.1632433086633682,-0.6847476363182068,-0.1098571047186851,0.0729751661419868,0.0,0.0,0.6974993944168091,0.9178125858306884
-0.0449297912418842,1.0973175764083862,-0.1584877073764801,-0.6591529250144958,-0.1075872555375099,0.0453970097005367,0.0,0.0,0.006758689880371,0.0850389003753662
-0.0464951507747173,1.0824915170669556,-0.1591289639472961,-0.6587536334991455,-0.1050159782171249,0.0514255538582801,0.0,0.0,-0.8480325937271118,0.3588383197784424
-0.0480276122689247,1.0669572353363037,-0.1565055102109909,-0.6901828050613403,-0.1017784103751182,0.0647510439157486,0.0,0.0,-0.5674864649772644,0.1806594133377075
-0.0495193488895893,1.050715088844299,-0.1530987024307251,-0.7216125130653381,-0.0978777185082435,0.0780137032270431,0.0,0.0,0.1611151695251464,0.3533723354339599
-0.0509868636727333,1.03423273563385,-0.1511039584875106,-0.7322689294815063,-0.093570090830326,0.0861526727676391,0.0,0.0,0.2978396415710449,0.5070643424987793
-0.0523696914315223,1.01799213886261,-0.1421073377132415,-0.7215771079063416,-0.0897764340043068,0.0758732259273529,0.0,0.0,-0.5051729679107666,0.6564360857009888
-0.0536437034606933,1.0010312795639038,-0.1307131946086883,-0.7536202669143677,-0.0865009650588035,0.06550944596529,0.0,0.0,0.206050157546997,0.0243784189224243
-0.0547967925667762,0.9840452671051024,-0.1193193420767784,-0.7547057271003723,-0.082520380616188,0.0796115919947624,0.0,0.0,-0.2555388808250427,0.3412060737609863
-0.0558735840022563,0.9663515686988832,-0.1123566403985023,-0.7861369848251343,-0.0778927057981491,0.0925535932183265,0.0,0.0,0.7078557014465332,0.3805476427078247
-0.056858442723751,0.9486572742462158,-0.1036868840456008,-0.7861527800559998,-0.0727465227246284,0.1029237881302833,0.0,0.0,0.7358076572418213,0.79176926612854
-0.0575903877615928,0.9314460754394532,-0.0775318518280983,-0.7647294998168945,-0.0684490874409675,0.0859486535191536,0.0,0.0,0.1566692590713501,0.8124567270278931
-0.0581552498042583,0.9144158363342284,-0.0598262324929237,-0.7567505240440369,-0.0651506036520004,0.0659697204828262,0.0,0.0,0.4575380086898803,0.436016321182251
-0.0585615150630474,0.8974782824516296,-0.044717326760292,-0.7526100277900696,-0.0611012317240238,0.0809871479868888,0.0,0.0,0.0204815864562988,0.5867609977722168
-0.0588621124625206,0.8805605173110962,-0.0335182808339595,-0.751759946346283,-0.0576838068664073,0.0683485344052314,0.0,0.0,0.1178432703018188,0.3557931184768677
-0.0589507110416889,0.8634584546089172,-0.0133449062705039,-0.7599241137504578,-0.0532495193183422,0.0886858701705932,0.0,0.0,-0.5411726832389832,0.720362663269043
-0.0588610656559467,0.845635712146759,0.005527754779905,-0.792005717754364,-0.0498533099889755,0.0679243355989456,0.0,0.0,-0.2366551756858825,0.5982195138931274
-0.0586000457406044,0.8270999789237976,0.0234311297535896,-0.8237227201461792,-0.0472178496420383,0.0527091808617115,0.0,0.0,-0.2800735235214233,0.8781542778015137
-0.0581547729671001,0.8078417181968689,0.0428789779543876,-0.8558733463287354,-0.0455894768238067,0.0325674228370189,0.0,0.0,-0.109272301197052,0.8272430896759033
-0.0575161948800087,0.7878626585006714,0.0633774548768997,-0.887948751449585,-0.0451118946075439,0.009551796130836,0.0,0.0,-0.4703080654144287,0.0546220541000366
-0.0567512512207031,0.7671758532524109,0.0753773599863052,-0.9193809628486632,-0.0440140441060066,0.0219570565968751,0.0,0.0,-0.2217684984207153,0.4335970878601074
-0.05585727840662,0.745781421661377,0.0876604542136192,-0.9508132338523864,-0.042297676205635,0.0343272536993026,0.0,0.0,0.1732711791992187,0.3669847249984741
-0.0549019798636436,0.724524199962616,0.0935999676585197,-0.9447124004364014,-0.0404003672301769,0.0379461534321308,0.0,0.0,0.3004852533340454,0.3632960319519043
-0.0538132674992084,0.7031604647636414,0.1064139828085899,-0.9494324922561646,-0.0379648990929126,0.0487093329429626,0.0,0.0,0.229278564453125,-0.1332799792289734
-0.0524654388427734,0.6817202568054199,0.1311946958303451,-0.95281720161438,-0.0344220772385597,0.0708565786480903,0.0,0.0,0.6470279693603516,-0.186341643333435
-0.0510114654898643,0.6606764197349548,0.1414581835269928,-0.935193121433258,-0.0305326264351606,0.0777890011668205,0.0,0.0,0.7301411628723145,-0.2409251928329467
-0.0492888465523719,0.6396181583404541,0.1671726703643798,-0.9358264207839966,-0.0255028624087572,0.1005950719118118,0.0,0.0,0.6793222427368164,-0.5261265635490417
-0.0474418625235557,0.6190751791000366,0.1779188811779022,-0.9129262566566468,-0.018807565793395,0.1339057981967926,0.0,0.0,0.945575475692749,-0.4231863021850586
-0.0452653877437114,0.5986815094947815,0.2094284296035766,-0.9063019156455994,-0.010692692361772,0.1622974276542663,0.0,0.0,0.9347970485687256,-0.8604876399040222
-0.0431291572749614,0.5784083604812622,0.2032996118068695,-0.9009795784950256,-0.0005064525175839,0.2037248909473419,0.0,0.0,0.9015328884124756,-0.4664700031280517
-0.040738295763731,0.558805525302887,0.2276373654603958,-0.87127286195755,0.0107853822410106,0.2258370369672775,0.0,0.0,0.9658366441726683,-0.8335375189781189
-0.0380958542227745,0.5397064685821533,0.2501350045204162,-0.8490042090415955,0.0247180461883544,0.2786533534526825,0.0,0.0,0.8735284805297852,-0.404105544090271
-0.0352436080574989,0.5213064551353455,0.2701027989387512,-0.8180978298187256,0.0396448858082294,0.2985369563102722,0.0,0.0,0.7026541233062744,0.1711217164993286
-0.0323530212044715,0.5034115314483643,0.2737168073654175,-0.7958051562309265,0.054809495806694,0.3032922744750976,0.0,0.0,0.842146635055542,0.0692842006683349
-0.0292781833559274,0.4854361414909363,0.2912744879722595,-0.7995773553848267,0.0708376541733741,0.3205629289150238,0.0,0.0,0.7255403995513916,-0.3760288953781128
-0.0262091644108295,0.4678424894809723,0.2906020283699035,-0.7827906012535095,0.0869793891906738,0.322834700345993,0.0,0.0,0.9633071422576904,0.0634255409240722
-0.0228960998356342,0.4504835307598114,0.3137441873550415,-0.7726237773895264,0.1043966263532638,0.3483447432518005,0.0,0.0,0.9745168685913086,0.1461564302444458
-0.0194795615971088,0.4335196018218994,0.3233934938907623,-0.7553312182426453,0.122539184987545,0.3628512024879455,0.0,0.0,0.9779725074768066,0.38614022731781
-0.0159601215273141,0.4165698885917663,0.3330881893634796,-0.7549723386764526,0.1413185447454452,0.3755871057510376,0.0,0.0,0.9955558776855468,0.8571052551269531
-0.0124832149595022,0.399958848953247,0.3303468525409698,-0.7400075197219849,0.1586366444826126,0.3463618159294128,0.0,0.0,0.955059289932251,0.8068045377731323
-0.0089236255735158,0.3841764628887176,0.339620292186737,-0.7032653093338013,0.1749844849109649,0.3269568383693695,0.0,0.0,0.9138474464416504,0.6663446426391602
-0.0051158904097974,0.3682245314121246,0.3649731576442718,-0.7109141945838928,0.1908478587865829,0.31726735830307,0.0,0.0,0.9405226707458496,0.6518728733062744
-0.0012612342834472,0.3530784249305725,0.3703450858592987,-0.6751779913902283,0.2060720920562744,0.304484486579895,0.0,0.0,0.9666438102722168,0.5061922073364258
0.0025563240051269,0.3380306661128998,0.3674564957618713,-0.6708453893661499,0.2205055207014084,0.2886690497398376,0.0,0.0,0.9749487638473512,0.6971851587295532
0.0062894821166992,0.3234467506408691,0.3601735532283783,-0.6501956582069397,0.2338213324546814,0.2663162350654602,0.0,0.0,0.8904403448104858,0.6949093341827393
0.0101027488708496,0.3092321753501892,0.3689514398574829,-0.6337770819664001,0.2464056313037872,0.2516855597496032,0.0,0.0,0.9572442770004272,0.5565586090087891
0.0137118343263864,0.2957322895526886,0.3495594561100006,-0.6019405722618103,0.2579720020294189,0.2313276529312133,0.0,0.0,0.6112372875213623,0.0917036533355712
0.0174020770937204,0.2823732495307922,0.3568235635757446,-0.5959334969520569,0.2704440355300903,0.2494405806064605,0.0,0.0,0.854718804359436,0.3480920791625976
0.0210941322147846,0.268930435180664,0.3566682040691376,-0.5998297929763794,0.2833119630813598,0.2573584020137787,0.0,0.0,0.9445898532867432,0.4309118986129761
0.0249117854982614,0.2553692758083343,0.3683688640594482,-0.6053786873817444,0.2971175611019134,0.276111900806427,0.0,0.0,0.9769501686096193,0.3183093070983886
0.0287302024662494,0.241671547293663,0.3681217432022095,-0.6116544604301453,0.3113119006156921,0.2838864922523498,0.0,0.0,0.9991569519042968,0.6555163860321045
0.0324480049312114,0.2286660522222519,0.3589053750038147,-0.5808423757553101,0.3246951699256897,0.2676651775836944,0.0,0.0,0.9986085891723632,0.7593755722045898
0.0361612327396869,0.2164465487003326,0.3592318594455719,-0.5458523631095886,0.337315946817398,0.2524155378341675,0.0,0.0,0.989309549331665,0.7043228149414062
0.0396182052791118,0.2048790007829666,0.3348581790924072,-0.5166900157928467,0.3486809730529785,0.2272997796535492,0.0,0.0,0.9083752632141112,0.5294390916824341
0.0429921150207519,0.1930825859308242,0.3275420069694519,-0.5267103910446167,0.3590533435344696,0.2074470072984695,0.0,0.0,0.8883321285247803,0.6322803497314453
0.0462963096797466,0.1819089949131012,0.3211996555328369,-0.4989402890205383,0.3687851130962372,0.1946355700492859,0.0,0.0,0.7665568590164185,0.6317838430404663
0.0494724288582801,0.1708563715219497,0.3094066381454468,-0.4933603405952453,0.3774665594100952,0.1736291944980621,0.0,0.0,0.4503824710845947,0.2074781656265258
0.0525406822562217,0.1599031537771225,0.2983637750148773,-0.4890664517879486,0.386449784040451,0.1796642243862152,0.0,0.0,0.4726380109786987,0.5028517246246338
0.0555552467703819,0.1491304039955139,0.2935585379600525,-0.4809529185295105,0.3948797285556793,0.1685996800661087,0.0,0.0,0.5833899974822998,0.0994136333465576
0.0585885047912597,0.138474240899086,0.2946148812770843,-0.4760537445545196,0.4042037427425384,0.1864811480045318,0.0,0.0,0.8236968517303467,-0.2294858694076538
0.0616530403494834,0.1276511251926422,0.2972004115581512,-0.4836970865726471,0.41414675116539,0.1988600641489029,0.0,0.0,0.8283295631408691,0.1185498237609863
0.064787670969963,0.1167984828352928,0.3033778965473175,-0.4853357672691345,0.4250521063804626,0.2181072533130645,0.0,0.0,0.981670379638672,0.5764896869659424
0.0680073723196983,0.1063224896788597,0.3121046125888824,-0.4686168730258941,0.435759425163269,0.2141464948654174,0.0,0.0,0.9734375476837158,0.1151291131973266
0.0713342651724815,0.0958892703056335,0.3217473924160003,-0.4671387076377868,0.4477008283138275,0.238828033208847,0.0,0.0,0.9754910469055176,0.429121732711792
0.0744209289550781,0.0859635174274444,0.2974118888378143,-0.4448012411594391,0.4600614011287689,0.2472113817930221,0.0,0.0,0.8873076438903809,0.8351795673370361
0.0773687362670898,0.0765742883086204,0.2847169041633606,-0.4206662774085998,0.4711751639842987,0.2222751826047897,0.0,0.0,0.971276044845581,0.7018516063690186
0.0803000479936599,0.0676940977573394,0.28374183177948,-0.3979058563709259,0.4816167056560516,0.2088310271501541,0.0,0.0,0.9932899475097656,0.8445839881896973
0.0833822265267372,0.0587641336023807,0.2998324036598205,-0.3998351395130157,0.4909657835960388,0.1869823634624481,0.0,0.0,0.9926598072052002,0.313522458076477
0.0862727165222168,0.0498980395495891,0.2806224524974823,-0.3970794677734375,0.5004071593284607,0.188828095793724,0.0,1.0,0.9999130964279176,0.9996163845062256
0.0888751000165939,0.0430000387132167,0.2675076425075531,-0.3042921125888824,0.4909170567989349,-0.1917781382799148,0.0,1.0,0.999618411064148,0.9160456657409668
0.0911190062761306,0.0374317020177841,0.2506446242332458,-0.238378569483757,0.4619467854499817,-0.5791088938713074,0.0,1.0,0.9999220371246338,-0.8105130195617676
0.0926366820931434,0.0332532487809658,0.193478375673294,-0.1725775897502899,0.4164160490036011,-0.910606563091278,0.0,1.0,0.9964191913604736,-0.9921159148216248
0.0937786102294921,0.0301719289273023,0.1660682260990142,-0.1226858273148536,0.3609664440155029,-1.1090643405914309,0.0,1.0,0.9939714670181274,-0.9791871905326844
0.0944737419486045,0.0276014432311058,0.1196574419736862,-0.1025370731949806,0.3084814548492431,-1.0497454404830933,0.0,0.0,0.6709650754928589,-0.95267516374588
0.0949252098798751,0.0253709182143211,0.0939448848366737,-0.0895865708589553,0.2582409977912903,-1.004848837852478,0.0,0.0,-0.955714464187622,-0.9214116930961608
0.0954527854919433,0.0224344357848167,0.0999575406312942,-0.1229334250092506,0.210293173789978,-0.9589948654174804,0.0,0.0,0.570784330368042,-0.940621256828308
0.0958155617117881,0.0195984467864036,0.0818919911980629,-0.120215930044651,0.1644167453050613,-0.917565941810608,0.0,0.0,0.3852916955947876,-0.8988974094390869
0.0960451140999794,0.0166781991720199,0.0669422224164009,-0.1255266964435577,0.1205090433359146,-0.878189206123352,0.0,0.0,0.5717247724533081,-0.911000430583954
0.0963841453194618,0.0141069265082478,0.0758570432662963,-0.111433245241642,0.0788508653640747,-0.8331971168518066,0.0,0.0,0.8860238790512085,-0.9753000140190125
0.0968421921133995,0.0114723537117242,0.0855633541941642,-0.1154756247997284,0.0395166054368019,-0.7867166996002197,0.0,0.0,0.9520854949951172,-0.9974950551986694
0.0975270271301269,0.009515986777842,0.105740025639534,-0.0863881334662437,0.002711069304496,-0.7361404895782471,0.0,0.0,0.91181480884552,-0.9844711422920228
0.0982528701424598,0.0082244491204619,0.1077221184968948,-0.0577087998390197,-0.031991995871067,-0.6940894722938538,0.0,0.0,0.3218230009078979,-0.9913048148155212
0.0992055907845497,0.0072748041711747,0.1281456351280212,-0.0432339459657669,-0.0644987151026725,-0.6501604914665222,0.0,0.0,-0.3016258478164673,-0.938987135887146
0.1003242507576942,0.0063650701195001,0.1240740194916725,-0.0410066582262516,-0.0765801891684532,-0.2416295558214187,1.0,0.0,0.2576444149017334,-0.8905985951423645
0.1015324592590332,0.0063691474497318,0.1126955151557922,0.0005808682763017,-0.068536140024662,0.1608900874853134,1.0,0.0,-0.9533218145370485,-0.9339152574539183
0.102744773030281,0.0061271763406693,0.0994537472724914,-0.0098894350230693,-0.0469781160354614,0.4311805665493011,1.0,0.0,-0.914297103881836,-0.4164246320724487
0.1039351448416709,0.0051494929939508,0.0985035151243209,-0.0429319143295288,-0.0266835764050483,0.4059120118618011,1.0,0.0,-0.7178989052772522,-0.0477677583694458
0.105125144124031,0.0034697151277214,0.0984687358140945,-0.0744121894240379,-0.0063886200077831,0.4059201180934906,0.0,0.0,-0.7108960747718811,-0.2247561812400818
0.106462575495243,0.0010879135224968,0.1131232604384422,-0.1058894097805023,0.0139829711988568,0.4074527323246002,0.0,0.0,0.0748039484024047,-0.111258864402771
0.1077642440795898,-0.0010155821219086,0.124571107327938,-0.0935513004660606,0.0194945484399795,0.1102139130234718,0.0,1.0,0.2592774629592895,0.0960986614227294
0.1088581085205078,-0.0026937150396406,0.1223050132393837,-0.0744634047150611,0.00672741048038,-0.2553495764732361,1.0,1.0,0.2740803956985473,-0.9976240396499634
0.1098617538809776,-0.003496732795611,0.1117730885744094,-0.0358313918113708,-0.0039631831459701,-0.2130941897630691,1.0,1.0,0.2917497158050537,-0.9973576068878174
0.1108049377799034,-0.0030918263364583,0.1009341925382614,0.0179594941437244,-0.0104788225144147,-0.1302929818630218,1.0,1.0,-0.6929508447647095,-0.9972301125526428
0.1116038337349891,-0.0023135566152632,0.0815560668706893,0.0345749445259571,-0.0121161984279751,-0.0327262692153453,1.0,1.0,-0.9354295134544371,-0.9886981248855592
0.1122306808829307,-0.001423099078238,0.056102979928255,0.0395964011549949,-0.0055723879486322,0.130933865904808,1.0,1.0,-0.9590885043144226,-0.8392164707183838
0.1126564964652061,-0.0004593634512275,0.0352004244923591,0.0428485535085201,0.0017023623222485,0.1454851925373077,1.0,1.0,-0.9416507482528688,-0.380575954914093
