x_pos,y_pos,x_vel,y_vel,angle,ang_vel,leg_1,leg_2,main_booster,lat_booster
-0.0015215873718261,1.4031084775924685,-0.1542727351188659,-0.3471890985965729,0.0018920856527984,0.0373330190777778,0.0,0.0,-0.3591107130050659,0.8907666206359863
-0.0029639243148267,1.3947995901107788,-0.1442735642194748,-0.3692806959152221,0.0019310355419293,0.0007798897568136,0.0,0.0,-0.3490264415740967,0.6109038591384888
-0.0043427469208836,1.385969877243042,-0.1365219801664352,-0.3924303948879242,0.0005877364310435,-0.0268684420734643,0.0,0.0,0.1764302253723144,0.6791031360626221
-0.0057572363875806,1.3771555423736572,-0.1386748403310775,-0.3917535245418548,-0.0021622923668473,-0.0550058372318744,0.0,0.0,0.4157718420028686,0.2976713180541992
-0.0070520401932299,1.3686628341674805,-0.127293586730957,-0.3774574100971222,-0.0043192789889872,-0.0431437268853187,0.0,0.0,0.2936677932739258,0.615708589553833
-0.0081682205200195,1.3602899312973022,-0.1085024699568748,-0.3721407949924469,-0.007410982158035,-0.0618396811187267,0.0,0.0,-0.0260001420974731,0.0812317132949829
-0.0092730522155761,1.3514010906219482,-0.1073885932564735,-0.3950819075107574,-0.0104698296636343,-0.0611825101077556,0.0,0.0,-0.2754787802696228,0.4439399242401123
-0.0103645324707031,1.3419959545135498,-0.1060771122574806,-0.4180192351341247,-0.0135122900828719,-0.060854684561491,0.0,0.0,-0.7913627624511719,0.5570024251937866
-0.0113978385925292,1.332080364227295,-0.0991624817252159,-0.4407381415367126,-0.0176351070404052,-0.0824638828635215,0.0,0.0,-0.2346225380897522,-0.2563458681106567
-0.0124139785766601,1.3216489553451538,-0.0974293500185012,-0.4636781811714172,-0.0217728205025196,-0.0827615559101104,0.0,0.0,-0.4990015029907226,0.1307489871978759
-0.0134107591584324,1.310701608657837,-0.0954768508672714,-0.4866181015968323,-0.0259421039372682,-0.0833929926156997,0.0,0.0,0.7956737279891968,-0.0110268592834472
-0.0142946243286132,1.3000962734222412,-0.0844904109835624,-0.4714213907718658,-0.0297947339713573,-0.0770597010850906,0.0,0.0,-0.1752496361732483,0.5628015995025635
-0.0151009559631347,1.2889753580093384,-0.0753082484006881,-0.4943752884864807,-0.0350674353539943,-0.1054635047912597,0.0,0.0,-0.7662970423698425,-0.7122060656547546
-0.015931511297822,1.277334690093994,-0.0789062604308128,-0.5174623131752014,-0.0391675308346748,-0.0820091590285301,0.0,0.0,-0.027407944202423,-0.7562577128410339
-0.0167794227600097,1.265188694000244,-0.0817227065563201,-0.5399042367935181,-0.0422113724052906,-0.0608822293579578,0.0,0.0,-0.4987523555755615,-0.7879641652107239
-0.0176483150571584,1.2525207996368408,-0.0849875584244728,-0.5630776286125183,-0.0440857298672199,-0.0374906510114669,0.0,0.0,0.1392110586166381,-0.875213623046875
-0.0184164997190237,1.2402281761169434,-0.0766064673662185,-0.5463479161262512,-0.0442952774465084,-0.0041913511231541,0.0,0.0,-0.6035929322242737,-0.2930281162261963
-0.0191496852785348,1.227419376373291,-0.0729686617851257,-0.5692951083183289,-0.0446427948772907,-0.0069506927393376,0.0,0.0,-0.5297430157661438,-0.68159419298172
-0.0198903083801269,1.214103937149048,-0.0747102424502372,-0.591776967048645,-0.0440038554370403,0.012780082412064,0.0,0.0,-0.4836447238922119,-0.3918838500976562
-0.0205910690128803,1.2002723217010498,-0.070552572607994,-0.614716649055481,-0.0435292646288871,0.009492571465671,0.0,0.0,-0.6117349863052368,-0.6505853533744812
-0.0212896354496479,1.1859323978424072,-0.071195587515831,-0.6372975707054138,-0.0422109067440032,0.0263696648180484,0.0,0.0,-0.4308644533157348,-0.3443844318389892
-0.0219432823359966,1.1710762977600098,-0.0665095075964927,-0.6602373719215393,-0.0410814061760902,0.0225922018289566,0.0,0.0,-0.5959049463272095,-0.7555127143859863
-0.022596264258027,1.1557061672210691,-0.0674333274364471,-0.683062732219696,-0.0389733165502548,0.0421656593680381,0.0,0.0,-0.4937670230865478,0.2066702842712402
-0.0231992714107036,1.1398200988769531,-0.0622151009738445,-0.7060026526451111,-0.0370766520500183,0.0379365645349025,0.0,0.0,-0.7733640670776367,0.1068720817565918
-0.02374954149127,1.123417854309082,-0.0567286238074302,-0.7289425134658813,-0.0354010984301567,0.0335143208503723,0.0,0.0,-0.678796112537384,-0.5286344885826111
-0.024297047406435,1.1064839363098145,-0.0575336292386055,-0.7525571584701538,-0.0326502472162246,0.0550170615315437,0.0,0.0,-0.0744588971138,0.6652734279632568
-0.0247337333858013,1.0890355110168457,-0.0448564700782299,-0.7754555940628052,-0.0314707197248935,0.0235904101282358,0.0,0.0,0.0270079374313354,-0.6799188256263733
-0.0252403263002634,1.0718543529510498,-0.0528897456824779,-0.7635604739189148,-0.0292690470814704,0.0440331436693668,0.0,0.0,-0.423652708530426,0.2627515792846679
-0.0256839748471975,1.0541573762893677,-0.0463416427373886,-0.7864983677864075,-0.0273241028189659,0.0388991832733154,0.0,0.0,0.0002293586730957,-0.4872013330459595
-0.0260669700801372,1.03638756275177,-0.0399393923580646,-0.7897421717643738,-0.0257022771984338,0.0324366278946399,0.0,0.0,-0.053883671760559,-0.3373574018478393
-0.0263821594417095,1.018101692199707,-0.0328779593110084,,-0.0243518967181444,0.0270072873681783,0.0,0.0,-0.0758856534957885,0.1358929872512817
-0.026626968756318,0.999299943447113,-0.0255651716142892,-0.8356174826622009,-0.0232797358185052,0.0214432850480079,0.0,0.0,0.1405287981033325,-0.3526719212532043
-0.0268430709838867,0.9808140397071838,-0.0221466124057769,-0.8215882182121277,-0.0227558389306068,0.0104780355468392,0.0,0.0,0.5569077730178833,-0.0810996294021606
-0.0270364768803119,0.9623238444328308,-0.0192935727536678,-0.8217856884002686,-0.0228003449738025,-0.0008900570683181,0.0,0.0,-0.0847665667533874,-0.5744951367378235
-0.0271966941654682,0.943320333957672,-0.0167997684329748,-0.8445855975151062,-0.0220291782170534,0.0154229355975985,0.0,0.0,0.5358810424804688,0.3187164068222046
-0.0272447578608989,0.9248548746109008,-0.0053644087165594,-0.8206834197044373,-0.0214812532067298,0.0109587050974369,0.0,0.0,0.11733078956604,-0.4327398538589477
-0.0272220615297555,0.9063357710838318,0.002107452834025,-0.8230733871459961,-0.021321753039956,0.0031902310438454,0.0,0.0,-0.2093152999877929,0.2848604917526245
-0.027115250006318,0.8873004913330078,0.0108296182006597,-0.8460108041763306,-0.0214731954038143,-0.0030285669490695,0.0,0.0,0.2248754501342773,-0.2503889799118042
-0.0269380565732717,0.868687093257904,0.0183305125683546,-0.8272716999053955,-0.0220749117434024,-0.012034460902214,0.0,0.0,-0.1436558961868286,0.0659601688385009
-0.0266726501286029,0.8495577573776245,0.0274774637073278,-0.8502091765403748,-0.0229959897696971,-0.0184218324720859,0.0,0.0,0.0134840011596679,-0.2267076969146728
-0.0263714790344238,0.8306309580802917,0.031685747206211,-0.8412169814109802,-0.0245433077216148,-0.0309463590383529,0.0,0.0,0.3422620296478271,-0.7457942366600037
-0.0259142871946096,0.8118221163749695,0.0459433794021606,-0.8359442353248596,-0.0247745160013437,-0.0046238168142735,0.0,0.0,-0.2617502212524414,0.2808494567871094
-0.0253632552921772,0.7924976348876953,0.0556794889271259,-0.8588818311691284,-0.0253358259797096,-0.0112262200564146,0.0,0.0,-0.126047670841217,0.4252545833587646
-0.0247162822633981,0.772657036781311,0.06559868901968,-0.8818194270133972,-0.0262303985655307,-0.0178913064301013,0.0,0.0,-0.5452438592910767,-0.085957646369934
-0.0239718444645404,0.7523005604743958,0.0756941959261894,-0.9047570824623108,-0.0274611376225948,-0.0246150009334087,0.0,0.0,-0.409328818321228,-0.539125919342041
-0.023167610168457,0.73142409324646,0.0810063034296035,-0.9278485774993896,-0.0280409008264541,-0.0115952296182513,0.0,0.0,-0.1913631558418274,-0.4070459008216858
-0.0222625732421875,0.7100318074226379,0.0914339870214462,-0.9507863521575928,-0.0289621390402317,-0.0184247437864542,0.0,0.0,0.6897132396697998,-0.7959328889846802
-0.0214199069887399,0.6894189715385437,0.0841801911592483,-0.916126310825348,-0.0288796499371528,0.0016496200114488,0.0,0.0,0.4703469276428222,-0.8982952833175659
-0.0206578262150287,0.6693586707115173,0.0748262703418731,-0.8915436863899231,-0.0275084059685468,0.0274246595799922,0.0,0.0,0.6494643688201904,-0.7208985090255737
-0.0198566429316997,0.6495450735092163,0.0776759684085846,-0.8805599808692932,-0.0250991377979517,0.0481855198740959,0.0,0.0,0.4559733867645263,-0.5640174746513367
-0.0188438408076763,0.629966676235199,0.0977310910820961,-0.87009596824646,-0.0216006580740213,0.0699697807431221,0.0,0.0,0.2386023998260498,-0.5146983861923218
-0.0177990905940532,0.6107071042060852,0.1003588214516639,-0.855930745601654,-0.0175319723784923,0.0813735798001289,0.0,0.0,0.6147017478942871,-0.1084227561950683
-0.0165308006107807,0.5915805101394653,0.1225659400224685,-0.850026547908783,-0.0133225070312619,0.0841894000768661,0.0,0.0,0.4486527442932129,-0.6757599711418152
-0.0151932714506983,0.5729945302009583,0.1284768730401992,-0.8260058760643005,-0.008118100464344,0.1040881276130676,0.0,0.0,-0.0145025253295898,-0.6866025924682617
-0.0137854572385549,0.5538908839225769,0.1348322331905365,-0.849032461643219,-0.0022426014766097,0.1175100803375244,0.0,0.0,0.2098881006240844,-0.8170243501663208
-0.0124094011262059,0.5347861647605896,0.1304313391447067,-0.849105715751648,0.0048340186476707,0.1415325552225113,0.0,0.0,0.7743306159973145,-0.7122485637664795
-0.0108709335327148,0.5164569020271301,0.1453618109226226,-0.814681887626648,0.0132140405476093,0.1676002293825149,0.0,0.0,0.4165719747543335,0.1330246925354004
-0.0091075897216796,0.4984822571277618,0.1676553785800933,-0.7989762425422668,0.0217816941440105,0.1713530421257019,0.0,0.0,0.6115504503250122,-0.3630828261375427
-0.0071739195846021,0.4811991155147552,0.1847173571586609,-0.7682898640632629,0.0303258765488863,0.1708837449550628,0.0,0.0,0.3045974969863891,-0.7442589998245239
-0.0052698133513331,0.4643318057060241,0.1807169169187545,-0.7498802542686462,0.0398972369730472,0.1914271265268325,0.0,0.0,0.1123244762420654,0.1249920129776001
-0.0032248497009277,0.4473252296447754,0.1950213611125946,-0.7561282515525818,0.0492659695446491,0.1873745024204254,0.0,0.0,0.2137470245361328,-0.4876715540885925
-0.0011616706615313,0.4305700957775116,0.197555273771286,-0.744989275932312,0.0579312704503536,0.173306256532669,0.0,0.0,0.5824077129364014,-0.6448132991790771
0.0010683059226721,0.4140465259552002,0.2130155265331268,-0.734796404838562,0.0678012147545814,0.1973988115787506,0.0,0.0,0.6573629379272461,-0.5320160388946533
0.0033579827286303,0.3979271650314331,0.2182331383228302,-0.7169334292411804,0.0784346461296081,0.2126684933900833,0.0,0.0,0.627913236618042,-0.4258989095687866
0.0057433126494288,0.3818844258785248,0.2281238734722137,-0.7135881185531616,0.088740088045597,0.2061090022325515,0.0,0.0,0.8889462947845459,-0.4125615358352661
0.0080470088869333,0.3663172423839569,0.2209971845149994,-0.6924562454223633,0.0980270579457283,0.185739204287529,0.0,0.0,0.5681822299957275,-0.5288965106010437
0.0103704454377293,0.351450651884079,0.2222391068935394,-0.6614336371421814,0.1080591529607772,0.2006415426731109,0.0,0.0,0.642183780670166,-0.0407570004463195
0.0128636360168457,0.3365153968334198,0.2392078340053558,-0.6645504832267761,0.1181050166487693,0.200917512178421,0.0,0.0,0.725592851638794,-0.2343034744262695
0.0154000278562307,0.3223979473114013,0.2437772452831268,-0.6282520890235901,0.1279180347919464,0.1962604820728302,0.0,0.0,0.8503162860870361,-0.5650907754898071
0.0178338047116994,0.308521419763565,0.2330617904663086,-0.6176541447639465,0.1381864100694656,0.2053675204515457,0.0,0.0,0.8484809398651123,0.1131150722503662
0.0201820377260446,0.2952336966991424,0.2253721505403518,-0.591469943523407,0.1476168483495712,0.1886087656021118,0.0,0.0,0.825385570526123,0.0963865518569946
0.0225836746394634,0.2824580073356628,0.2309207469224929,-0.5687493681907654,0.1568423807621002,0.1845107972621917,0.0,0.0,0.5361435413360596,-0.3673217296600342
0.0248651504516601,0.270301878452301,0.2198446691036224,-0.5411703586578369,0.1651523858308792,0.1662000566720962,0.0,0.0,0.5114798545837402,-0.3062679171562195
0.0272471420466899,0.2584280669689178,0.2299460470676422,-0.5286641716957092,0.1734126210212707,0.1652048528194427,0.0,0.0,0.5466656684875488,-0.818433940410614
0.0295891761779785,0.2465471625328064,0.2247468680143356,-0.5291724801063538,0.1829030513763427,0.189808577299118,0.0,0.0,-0.0166708827018737,-0.241126537322998
0.0320520401000976,0.2341504842042923,0.2372002303600311,-0.5521113276481628,0.1920346617698669,0.1826319396495819,0.0,0.0,0.7805085182189941,-0.0397015213966369
0.0345324501395225,0.2217666953802108,0.2394722253084182,-0.5515236258506775,0.200651004910469,0.1723268926143646,0.0,0.0,0.8753548860549927,0.3247586488723755
0.0369445793330669,0.2101874202489853,0.233061283826828,-0.5157607197761536,0.2088668793439865,0.1643180698156356,0.0,0.0,0.6512587070465088,-0.6996756196022034
0.0393382087349891,0.199305310845375,0.2300182878971099,-0.4849970042705536,0.2183126658201217,0.1889155507087707,0.0,0.0,0.4277925491333008,-0.59073406457901
0.041549302637577,0.1888980418443679,0.2111774682998657,-0.4640443027019501,0.2283624857664108,0.2009968310594558,0.0,0.0,0.1685962677001953,0.0365135669708251
0.0437377914786338,0.1782860904932022,0.2096995115280151,-0.4730857014656067,0.2376370579004287,0.1854913830757141,0.0,0.0,0.3862134218215942,0.4072575569152832
0.0459221825003623,0.1681369692087173,0.2094996869564056,-0.4525412321090698,0.2467180639505386,0.1816203743219375,0.0,0.0,0.3420404195785522,0.4368224143981933
0.0480312332510948,0.1581213772296905,0.2027005851268768,-0.4465325474739074,0.2550702095031738,0.1670428216457367,0.0,0.0,0.2942242622375488,-0.1415839195251464
0.0500827804207801,0.1483439058065414,0.1975093781948089,-0.4359026849269867,0.2628776729106903,0.1561492979526519,0.0,0.0,0.3957496881484985,0.1408891677856445
0.0520885474979877,0.1389016658067703,0.1933285295963287,-0.4209729433059692,0.2702946662902832,0.1483397185802459,0.0,0.0,0.7965224981307983,-0.555122971534729
0.0540974624454975,0.1298805028200149,0.1926257163286209,-0.4024874567985534,0.2787706851959228,0.1695197522640228,0.0,0.0,0.2870011329650879,-0.3402546644210815
0.0561667457222938,0.1207351759076118,0.1989248096942901,-0.4080087542533874,0.2869933545589447,0.1644541323184967,0.0,0.0,0.3589082956314087,-0.4924600124359131
0.0583304390311241,0.1115821227431297,0.2083802223205566,-0.4083947241306305,0.2952331304550171,0.1647956669330597,0.0,0.0,0.1859331130981445,-0.1954069137573242
0.0605902671813964,0.1025470122694969,0.2178408652544021,-0.4032312035560608,0.3036285936832428,0.1679090857505798,0.0,0.0,0.4866430759429931,-0.6877156496047974
0.0629379302263259,0.0935360789299011,0.2253824025392532,-0.4024758338928222,0.3133559226989746,0.1945468783378601,0.0,0.0,0.6698275804519653,-0.5735910534858704
0.065113827586174,0.0850728154182434,0.2074334323406219,-0.3783732950687408,0.3239064216613769,0.2110093384981155,0.0,0.0,0.4271911382675171,-0.529222846031189
0.067178726196289,0.0770231783390045,0.1955870985984802,-0.360245406627655,0.3352786898612976,0.2274453192949295,0.0,0.0,0.7406302690505981,-0.2019151449203491
0.0692454352974891,0.0695179998874664,0.1955430954694748,-0.3361954391002655,0.3469394147396087,0.233214259147644,0.0,0.0,0.7043497562408447,-0.3540669083595276
0.0714033097028732,0.0620251260697841,0.204539343714714,-0.3357732892036438,0.3587671518325805,0.2365545481443405,0.0,0.0,0.4145399332046509,-0.1386642456054687
0.0734721198678016,0.0546051375567913,0.196176066994667,-0.332499235868454,0.3700770139694214,0.2261972725391388,0.0,0.0,0.8211209774017334,0.3214263916015625
0.07538852840662,0.0480497442185878,0.180857852101326,-0.2941823005676269,0.381513386964798,0.2287271916866302,0.0,0.0,0.6964794397354126,0.4108086824417114
0.0771677047014236,0.041778527200222,0.1675831377506256,-0.2815264165401459,0.3925390541553497,0.2205135822296142,0.0,0.0,0.7958570718765259,-0.2353127598762512
0.078626349568367,0.0374008044600486,0.1526354253292083,-0.1926664263010025,0.3854491710662842,-0.1415968239307403,0.0,1.0,0.99403977394104,0.9137134552001952
0.0798665061593055,0.0338442660868167,0.1354891955852508,-0.155020385980606,0.3732481598854065,-0.2440292090177536,0.0,1.0,0.991785764694214,0.5076949596405029
0.0807491317391395,0.0314114652574062,0.1058903932571411,-0.1040339022874832,0.3534863591194153,-0.3969228267669678,0.0,1.0,0.9804024696350098,-0.0395464301109313
0.0811793357133865,0.0299275256693363,0.0677434056997299,-0.060121901333332,0.3275010287761688,-0.5198336839675903,0.0,1.0,0.8602159023284912,-0.0888096690177917
0.0813889503479003,0.0287993531674146,0.0477723106741905,-0.0443395413458347,0.2995983362197876,-0.5581551194190979,0.0,1.0,0.8172564506530762,0.209721565246582
0.0812916755676269,0.0280436128377914,0.0173073392361402,-0.0282720644026994,0.2717532217502594,-0.5569254159927368,0.0,1.0,0.2480298280715942,-0.0006353259086608
0.0809775367379188,0.0273078307509422,-0.0036719087511301,-0.0278061833232641,0.243406057357788,-0.5669655799865723,0.0,1.0,0.1862374544143676,0.2892842292785644
0.0806116089224815,0.0268452744930982,-0.0090158227831125,-0.0162405483424663,0.2154157012701034,-0.5598292946815491,0.0,0.0,-0.9992282390594482,0.2627031803131103
0.0803433433175087,0.025876460596919,0.00122136331629,-0.0392217077314853,0.1871369630098343,-0.565597414970398,0.0,0.0,-0.9953413009643556,0.196897268295288
0.0801708251237869,0.0244016740471124,0.0112278591841459,-0.062204223126173,0.1585732400417328,-0.5712975263595581,0.0,0.0,-0.981890082359314,-0.589042067527771
0.0800435990095138,0.0224143359810113,0.0149438381195068,-0.0856148228049278,0.1309518814086914,-0.552449107170105,0.0,0.0,-0.9204754829406738,-0.1813796162605285
0.0800148025155067,0.0199112985283136,0.0247742682695388,-0.1090501025319099,0.1034582257270813,-0.5498734712600708,0.0,0.0,-0.7167419195175171,-0.2167768478393554
0.0800742134451866,0.0169019326567649,0.0339597314596176,-0.1320476830005645,0.0756966024637222,-0.5552329421043396,0.0,0.0,0.5921058654785156,-0.8906194567680359
0.0800815597176551,0.0145627595484256,0.0272708125412464,-0.1028330102562904,0.049433808773756,-0.5252559185028076,0.0,0.0,0.172797679901123,-0.8804153800010681
0.080124095082283,0.0125597575679421,0.0293034166097641,-0.0883805900812149,0.0246898587793111,-0.4948787093162536,0.0,0.0,0.0739232301712036,-0.9268213510513306
0.0802279487252235,0.010490165092051,0.0338334962725639,-0.0917607396841049,0.001538683543913,-0.4630237221717834,0.0,0.0,0.3367772102355957,-0.7507652640342712
0.0802370086312294,0.0086624715477228,0.0232382994145154,-0.0813521668314933,-0.0205125771462917,-0.4410250782966614,0.0,0.0,0.6094083786010742,-0.9334363341331482
0.0801144614815712,0.0070810411125421,0.0086159631609916,-0.0706998258829116,-0.0411202535033226,-0.4121534824371338,0.0,0.0,0.4709482192993164,-0.8675727248191833
0.0799914374947547,0.0057461597025394,0.0070540532469749,-0.0599690563976764,-0.0602504014968872,-0.3826027810573578,0.0,0.0,-0.3859837055206299,-0.7241125702857971
0.079967975616455,0.0046202754601836,-0.002987838583067,-0.0500274151563644,-0.0595653988420963,0.0137580009177327,1.0,0.0,-0.4144812226295471,-0.0908378958702087
0.0800484642386436,0.0036111569497734,-0.0099214063957333,-0.0442428737878799,-0.0417578443884849,0.3562106490135193,1.0,0.0,-0.8305221796035767,0.5714221000671387
0.0801711082458496,0.0020723200868815,-0.0037801400758326,-0.068024955689907,-0.0259136520326137,0.316885381937027,1.0,0.0,-0.4776701927185058,0.5433642864227295
0.0803447738289833,6.667137495242059e-05,0.0012972486438229,-0.0889383852481842,-0.0100471023470163,0.3173316121101379,1.0,0.0,-0.1242337822914123,0.3552312850952148
0.0805345550179481,-0.0023422741796821,-0.0001069413265213,-0.1070432141423225,0.0087909894064068,0.3767619431018829,1.0,1.0,0.6533588171005249,0.853193998336792
