x_pos,y_pos,x_vel,y_vel,angle,ang_vel,leg_1,leg_2,main_booster,lat_booster
-0.0015286445850506,1.4030489921569824,-0.1542021185159683,-0.3498348593711853,0.0011870972812175,0.023374555632472,0.0,0.0,-0.4785345325705996,-0.9928389107159482
-0.0031340599525719,1.394620060920715,-0.1629293262958526,-0.3746136128902435,0.0035508319269865,0.0472798720002174,0.0,0.0,-0.8837261689621188,-0.954848518004229
-0.00480318069458,1.3856079578399658,-0.1701914221048355,-0.4005473852157593,0.0067986827343702,0.0649630054831504,0.0,0.0,0.8625212505677002,0.683976917450336
-0.0065724374726414,1.3768620491027832,-0.1778705269098281,-0.3887182474136352,0.0077308733016252,0.0186456274241209,0.0,0.0,0.9047020418670556,0.9609095159875576
-0.0081122396513819,1.36867356300354,-0.1527201384305954,-0.3639251589775085,0.0064846752211451,-0.024926284328103,0.0,0.0,-0.2466428641204463,0.6213781727241052
-0.0095971105620265,1.3599090576171875,-0.1451118737459182,-0.3895224034786224,0.0031459026504307,-0.0667816847562789,0.0,0.0,-0.2159352730907444,0.9164041847128476
-0.0110176084563136,1.3505696058273315,-0.1363159120082855,-0.4150844812393188,-0.002520979149267,-0.1133481487631797,0.0,0.0,-0.5269914825081365,-0.8185207719571906
-0.0124915121123194,1.3406575918197632,-0.1423051655292511,-0.4405550360679626,-0.0075489995069801,-0.1005699262022972,0.0,0.0,-0.8654939718295145,-0.993112773956222
-0.0140501018613576,1.3301818370819092,-0.1522163152694702,-0.4656116068363189,-0.0111517710611224,-0.0720616206526756,0.0,0.0,0.076245281039379,-0.607432004540398
-0.0156567580997943,1.3198449611663818,-0.1576587706804275,-0.4594401717185974,-0.0141320880502462,-0.0596118867397308,0.0,0.0,-0.963403074263126,0.8032634515844865
-0.0171960834413766,1.308931827545166,-0.1485009640455246,-0.4850917756557464,-0.0195102579891681,-0.1075729355216026,0.0,0.0,0.3279263366268572,-0.530105051305942
-0.0187122337520122,1.2980787754058838,-0.1467974931001663,-0.4824347794055938,-0.0242677871137857,-0.0951591953635215,0.0,0.0,-0.3489002276769533,0.9720326348806
-0.0201399810612201,1.2866520881652832,-0.1350145787000656,-0.5079957246780396,-0.0319453701376915,-0.1535656303167343,0.0,0.0,-0.81420995076139,-0.7001602257584219
-0.0216216091066598,1.274646520614624,-0.1410636454820633,-0.5337429046630859,-0.0389665588736534,-0.1404370665550232,0.0,0.0,0.8036989429416308,0.9627864666435
-0.0228251460939645,1.263411045074463,-0.1110303997993469,-0.4996212124824524,-0.0481915846467018,-0.1845173686742782,0.0,0.0,0.5170252886540794,0.8688150323672572
-0.0238390918821096,1.251987099647522,-0.089919202029705,-0.5081372261047363,-0.0595529600977897,-0.2272483110427856,0.0,0.0,-0.9026718362390916,-0.7824380562167159
-0.0249049179255962,1.240002989768982,-0.0957463830709457,-0.5330916047096252,-0.0702814236283302,-0.2145888358354568,0.0,0.0,0.3485779242412359,-0.7015635711824162
-0.025880241766572,1.2278889417648315,-0.0877702981233596,-0.5388835072517395,-0.0799684524536132,-0.1937579363584518,0.0,0.0,0.8302771089472458,0.947919032292426
-0.0265948288142681,1.2165168523788452,-0.0594292655587196,-0.5061174035072327,-0.0919031500816345,-0.2387158423662185,0.0,0.0,0.4967168530189074,-0.925593966208578
-0.0274221412837505,1.2053580284118652,-0.0719148367643356,-0.4966471791267395,-0.1026512458920478,-0.2149811536073684,0.0,0.0,0.7395146455142938,-0.7513891445879964
-0.0280855186283588,1.1947988271713257,-0.0567752197384834,-0.4699797928333282,-0.1121507212519645,-0.1900065243244171,0.0,0.0,-0.1470046437362349,-0.8059558298284484
-0.0288158413022756,1.1836715936660769,-0.0645055621862411,-0.4952017664909363,-0.1206339225172996,-0.1696793884038925,0.0,0.0,-0.3627494568009499,0.8202974553363552
-0.0294725410640239,1.1719555854797363,-0.0546031594276428,-0.521638810634613,-0.1316605061292648,-0.220551535487175,0.0,0.0,-0.6191307944585462,0.6215709102971658
-0.0300798416137695,1.1596492528915403,-0.0477419197559356,-0.5481492877006531,-0.1446242779493332,-0.2592986822128296,0.0,0.0,-0.9629200985921692,0.6831224829879925
-0.0306503288447856,1.146763563156128,-0.0424958020448684,-0.5741724371910095,-0.1591765284538269,-0.2910710871219635,0.0,0.0,-0.5259895287756695,-0.8383068742464291
-0.0313081741333007,1.1333085298538208,-0.0527831614017486,-0.5994400382041931,-0.172185331583023,-0.2601756751537323,0.0,0.0,-0.3142742346832821,-0.902870540374314
-0.0320396423339843,1.1193050146102903,-0.0614366047084331,-0.6237800121307373,-0.1839328110218048,-0.2349492609500885,0.0,0.0,-0.4004749226797026,0.8840690036442715
-0.0327205657958984,1.1047232151031494,-0.0545066110789775,-0.6498193144798279,-0.1975985467433929,-0.2733146846294403,0.0,0.0,-0.8041522298781814,0.8189328709775361
-0.0333553329110145,1.0895618200302124,-0.0481146350502967,-0.6759650111198425,-0.2130787968635559,-0.309605062007904,0.0,0.0,0.443911796282098,-0.7906351643730423
-0.0339856147766113,1.074477195739746,-0.0487432926893234,-0.6725477576255798,-0.2275251746177673,-0.2889274358749389,0.0,0.0,0.3146021290094163,-0.7863139636696281
-0.0345107093453407,1.059829592704773,-0.0393507331609725,-0.6530954241752625,-0.2408799082040786,-0.2670942544937134,0.0,0.0,-0.7385806441307068,-0.9903663396835328
-0.0351265892386436,1.0446358919143677,-0.0501784160733222,-0.6771859526634216,-0.2524957954883575,-0.2323177605867386,0.0,0.0,-0.9845288395881652,-0.9947661757469176
-0.0358314514160156,1.0289123058319092,-0.0608529262244701,-0.7005166411399841,-0.2623240649700165,-0.1965652108192443,0.0,0.0,-0.9976322650909424,-0.9936694502830504
-0.0366256721317768,1.0126407146453855,-0.071500115096569,-0.724618673324585,-0.2704364657402038,-0.1622475087642669,0.0,0.0,-0.9934019446372986,-0.9743186831474304
-0.0374957099556922,0.9958279728889464,-0.0804895833134651,-0.7484533786773682,-0.2771184742450714,-0.1336403489112854,0.0,0.0,-0.9345535039901732,-0.9520015120506288
-0.0384385101497173,0.9784784317016602,-0.0891331583261489,-0.7720728516578674,-0.2824054062366485,-0.1057386249303817,0.0,0.0,-0.9936708211898804,-0.9766480326652528
-0.0394635200500488,0.9605841636657716,-0.0989017039537429,-0.7960013151168823,-0.2861038744449615,-0.0739694014191627,0.0,0.0,-0.9368479251861572,-0.9725550413131714
-0.0405598655343055,0.9421536326408386,-0.1073978543281555,-0.8195739388465881,-0.2884106338024139,-0.0461352430284023,0.0,0.0,-0.7833671569824219,-0.9508466124534608
-0.0417345985770225,0.9231934547424316,-0.1168007850646972,-0.8428093791007996,-0.2891047596931457,-0.0138826090842485,0.0,0.0,-0.3602654933929443,-0.9748002886772156
-0.0429831519722938,0.9036918878555298,-0.1255795657634735,-0.8665956258773804,-0.2883547246456146,0.0150004178285598,0.0,0.0,0.7372900247573853,-0.924828827381134
-0.0441908836364746,0.8848854899406433,-0.1227338686585426,-0.8354473114013672,-0.2863374054431915,0.0403463914990425,0.0,0.0,0.185572862625122,-0.7646769881248474
-0.0452574715018272,0.8660269379615784,-0.1098091378808021,-0.8375421166419983,-0.2830975949764251,0.0647964254021644,0.0,0.0,0.3407328128814697,-0.9274457097053528
-0.046241570264101,0.8469439148902893,-0.1030530929565429,-0.8472422361373901,-0.2783309817314148,0.0953322052955627,0.0,0.0,0.007615327835083,-0.7166062593460083
-0.0471279136836528,0.8277450203895569,-0.0943499058485031,-0.8522006869316101,-0.2724642753601074,0.1173335313796997,0.0,0.0,0.3174127340316772,-0.7610324621200562
-0.0480487830936908,0.8083419799804688,-0.0989028289914131,-0.861101508140564,-0.2654870152473449,0.1395450234413147,0.0,0.0,0.8563368320465088,0.0506607294082641
-0.0488244071602821,0.7888884544372559,-0.0842690393328666,-0.8634036183357239,-0.2586326003074646,0.1370885819196701,0.0,0.0,0.5015683174133301,-0.0574082136154174
-0.0494454391300678,0.7694286704063416,-0.0687386766076088,-0.8637219071388245,-0.2518666088581085,0.1353197246789932,0.0,0.0,-0.3413543105125427,-0.5966741442680359
-0.0501222610473632,0.7494222521781921,-0.0754134282469749,-0.887870728969574,-0.2439914047718048,0.1575045138597488,0.0,0.0,0.6939756870269775,-0.1853658556938171
-0.0507385246455669,0.7300674319267273,-0.0684422776103019,-0.8590990304946899,-0.2370544075965881,0.1387396156787872,0.0,0.0,-0.1515964269638061,-0.2362902760505676
-0.0513571724295616,0.7101383805274963,-0.0684150755405426,-0.8846912980079651,-0.2304072976112365,0.1329421699047088,0.0,0.0,0.5181677341461182,-0.2444742918014526
-0.051729965955019,0.690356433391571,-0.0441724136471748,-0.878137469291687,-0.2234203815460205,0.1397384107112884,0.0,0.0,0.2535867691040039,-0.3904635310173034
-0.0520235076546669,0.6708322167396545,-0.0358225218951702,-0.8667746782302856,-0.2168848067522049,0.1307116448879242,0.0,0.0,0.6014320850372314,-0.5270461440086365
-0.0521564483642578,0.651339054107666,-0.0208885800093412,-0.8652714490890503,-0.2092209011316299,0.1532783806324005,0.0,0.0,0.0058481693267822,-0.4455341100692749
-0.0521883964538574,0.6319835186004639,-0.0105991056188941,-0.8592179417610168,-0.2017538845539093,0.1493404805660247,0.0,0.0,0.1712065935134887,-0.1460354924201965
-0.0520490631461143,0.6125298738479614,0.0062099816277623,-0.8635781407356262,-0.1939816176891327,0.155445322394371,0.0,0.0,0.5859367847442627,-0.2869110703468323
-0.0519139282405376,0.5931939482688904,0.0063680312596261,-0.8584560751914978,-0.1867939829826355,0.143752783536911,0.0,0.0,0.2735531330108642,-0.5933610200881958
-0.0516326911747455,0.5741851329803467,0.0197620764374732,-0.8438015580177307,-0.1783997118473053,0.1678855568170547,0.0,0.0,0.3054786920547485,-0.4072015285491943
-0.0511505119502544,0.5553596615791321,0.0394619777798652,-0.8356569409370422,-0.1696142554283142,0.1757091283798217,0.0,0.0,-0.1592986583709716,-0.1681253314018249
-0.0506689064204692,0.535959780216217,0.0394721552729606,-0.8612472414970398,-0.1609181314706802,0.1739220768213272,0.0,0.0,0.4825527667999267,-0.6646204590797424
-0.0501999855041503,0.5170660614967346,0.0370734855532646,-0.8386914134025574,-0.1511012464761734,0.196337029337883,0.0,0.0,0.8376095294952393,0.2150971889495849
-0.0496129021048545,0.4981959462165832,0.0486465953290462,-0.837681233882904,-0.1410622298717498,0.2007801234722137,0.0,0.0,0.6220955848693848,-0.4411831498146057
-0.0490263924002647,0.4797950685024261,0.0490453131496906,-0.8169375658035278,-0.1314958781003952,0.191327303647995,0.0,0.0,0.6934242248535156,-0.2734506130218506
-0.0482447631657123,0.461583137512207,0.0679633468389511,-0.808547854423523,-0.1213373094797134,0.2031712532043457,0.0,0.0,0.8795018196105957,-0.0626970529556274
-0.0473515503108501,0.4438304901123047,0.0789439976215362,-0.788200318813324,-0.1110245883464813,0.2062546014785766,0.0,0.0,0.7107255458831787,-0.0207429528236389
-0.0464035980403423,0.4261208474636078,0.0843117237091064,-0.7863477468490601,-0.1006210520863533,0.2080707997083664,0.0,0.0,0.955129861831665,-0.5131367444992065
-0.0455789566040039,0.4089105129241943,0.0713364481925964,-0.7641879320144653,-0.0895854979753494,0.2207111567258834,0.0,0.0,0.92365825176239,-0.0709189176559448
-0.0446391105651855,0.3926114737987518,0.0826253369450569,-0.7237584590911865,-0.0783358663320541,0.2249925881624221,0.0,0.0,0.6635901927947998,0.5693840980529785
-0.0435419082641601,0.376156210899353,0.0991513058543205,-0.7308271527290344,-0.0678743943572044,0.2092294991016388,0.0,0.0,0.7429152727127075,0.5438024997711182
-0.0423084273934364,0.3604730367660522,0.11362786591053,-0.6966162919998169,-0.0582695417106151,0.1920971721410751,0.0,0.0,0.1868213415145874,-0.0898699760437011
-0.0411211028695106,0.3447304666042328,0.1091721057891845,-0.6993251442909241,-0.0488156713545322,0.1890775859355926,0.0,0.0,0.7968041896820068,-0.4131362438201904
-0.0399956703186035,0.3295238316059112,0.1032552570104599,-0.6755693554878235,-0.0396422706544399,0.1834678947925567,0.0,0.0,0.8916594982147217,-0.2121290564537048
-0.038804817944765,0.31480872631073,0.1094305962324142,-0.653779149055481,-0.0301054883748292,0.1907358765602111,0.0,0.0,0.890030026435852,0.2385017871856689
-0.0377299301326274,0.3009742498397827,0.0982956662774086,-0.6147071123123169,-0.0210316684097051,0.1814765632152557,0.0,0.0,0.8376901149749756,0.2996237277984619
-0.0365574844181537,0.2875259518623352,0.107430562376976,-0.5975930690765381,-0.01134361512959,0.1937609314918518,0.0,0.0,0.8406021595001221,0.1418842077255249
-0.0354150757193565,0.2741574048995971,0.1043395176529884,-0.5941112637519836,-0.001576496171765,0.1953421831130981,0.0,0.0,0.5306005477905273,0.6376817226409912
-0.0341504104435443,0.2606591582298279,0.1174323707818985,-0.5999385118484497,0.0073393997736275,0.1783182322978973,0.0,0.0,0.824038028717041,0.5418283939361572
-0.0328800193965435,0.2471430450677871,0.1189271211624145,-0.6007772088050842,0.0153569774702191,0.160351350903511,0.0,0.0,0.8474602699279785,0.2908980846405029
-0.0316294655203819,0.2343823760747909,0.1166697293519973,-0.5672504305839539,0.0236294250935316,0.1654492914676666,0.0,0.0,0.9358620643615724,-0.0028599500656127
-0.0303047187626361,0.2224839478731155,0.1233447641134262,-0.5289918780326843,0.0326474830508232,0.1803611516952514,0.0,0.0,0.7880280017852783,0.099198579788208
-0.0291268341243267,0.2113312631845474,0.1088848561048507,-0.4958948194980621,0.0414283648133277,0.1756171882152557,0.0,0.0,0.2989315986633301,0.3934667110443115
-0.0280583389103412,0.1999880820512771,0.0981141254305839,-0.5044068098068237,0.050075314939022,0.1729392856359481,0.0,0.0,0.5975774526596069,0.2500799894332886
-0.0269855502992868,0.1892186254262924,0.0979990884661674,-0.4789773821830749,0.0592507757246494,0.1835091114044189,0.0,0.0,0.3532719612121582,0.6842062473297119
-0.0259750373661518,0.1785773336887359,0.0929493457078933,-0.4732889831066131,0.0672683417797088,0.1603510677814483,0.0,0.0,0.7888191938400269,-0.0528734922409057
-0.0250693317502737,0.1684540361166,0.0823705345392227,-0.4503169357776642,0.0753801837563514,0.1622367799282074,0.0,0.0,0.7565761804580688,0.167923092842102
-0.0242285728454589,0.1588669568300247,0.0755623430013656,-0.4265441596508026,0.0838114991784095,0.1686262041330337,0.0,0.0,0.2675580978393554,-0.2052886486053466
-0.0233546253293752,0.1493813097476959,0.0781792476773262,-0.422125905752182,0.0929393470287323,0.182557076215744,0.0,0.0,0.4458532333374023,0.5637130737304688
-0.0224374774843454,0.1397729218006134,0.0831948518753051,-0.4275974035263061,0.1013925820589065,0.1690647453069687,0.0,0.0,0.5840768814086914,-0.0630004405975341
-0.0214669220149517,0.1301799863576889,0.0877224132418632,-0.4270123243331909,0.1106602922081947,0.1853540539741516,0.0,0.0,0.6704088449478149,-0.1159719228744506
-0.0204081535339355,0.1208986863493919,0.0954408347606659,-0.4133065640926361,0.1210262849926948,0.2073198109865188,0.0,0.0,0.707672119140625,0.3301105499267578
-0.0192514415830373,0.1116771772503852,0.1041560322046279,-0.4108191132545471,0.1324756443500518,0.2289872914552688,0.0,0.0,0.907400369644165,0.7944861650466919
-0.0181506164371967,0.1031887382268905,0.0997845754027366,-0.3782129287719726,0.1427428275346756,0.2053437232971191,0.0,0.0,0.5283421277999878,0.17393159866333
-0.0171170234680175,0.0951749384403228,0.0925093218684196,-0.3572454452514648,0.1535713225603103,0.2165698260068893,0.0,0.0,0.4871066808700561,0.5945804119110107
-0.016004467383027,0.0875188410282135,0.1009111031889915,-0.3413708508014679,0.1639155596494674,0.2068847417831421,0.0,0.0,0.4674811363220215,0.7629959583282471
-0.0147761348634958,0.0797497332096099,0.1134263128042221,-0.3463579714298248,0.1733340919017791,0.1883707642555236,0.0,0.0,0.8450613021850586,0.6461408138275146
-0.0136531833559274,0.0722424089908599,0.103908821940422,-0.3346593081951141,0.1817439645528793,0.168197676539421,0.0,0.0,0.8212260007858276,0.3274229764938354
-0.0126059530302882,0.065589964389801,0.0954761579632759,-0.2968212962150574,0.191033273935318,0.1857862174510955,0.0,0.0,0.6372455358505249,0.6658898591995239
-0.011634349822998,0.0592022985219955,0.0888615697622299,-0.2849858999252319,0.1993824690580368,0.1669840514659881,0.0,0.0,0.7031604051589966,0.9310147762298584
-0.0108903888612985,0.0534343346953392,0.0677269548177719,-0.2572679817676544,0.2061033546924591,0.1344178617000579,0.0,0.0,0.835173487663269,0.1338932514190673
-0.0102057456970214,0.0482605323195457,0.0608973428606987,-0.231020912528038,0.2137297540903091,0.1525284200906753,0.0,0.0,0.433282732963562,0.8666708469390869
-0.0096401218324899,0.0434783324599266,0.0503568947315216,-0.2134555280208587,0.2200088948011398,0.1255825012922287,0.0,0.0,0.5039188861846924,0.9098236560821532
-0.0092326160520315,0.0391219966113567,0.0360052473843097,-0.1943304538726806,0.2248179763555526,0.0961817502975463,0.0,0.0,0.6735763549804688,0.8568780422210693
-0.0088936807587742,0.0349397510290145,0.0304306838661432,-0.1864086836576461,0.2283237129449844,0.0701147466897964,0.0,0.0,0.7149975299835205,0.8711705207824707
-0.0087553979828953,0.0310741513967514,0.0118563193827867,-0.1721132099628448,0.2303209006786346,0.0399436429142952,0.0,0.0,0.8218092918395996,0.8332161903381348
-0.0088574411347508,0.0274360030889511,-0.0106368269771337,-0.1617622971534729,0.2307618409395218,0.0088186999782919,0.0,0.0,0.8307030200958252,0.9769558906555176
-0.0089350696653127,0.0244634728878736,-0.0069188573397696,-0.1319791674613952,0.2298961728811264,-0.0173132866621017,0.0,0.0,0.475730299949646,0.8170971870422363
-0.0090298652648925,0.0222931001335382,0.0103153036907315,-0.0935475379228591,0.2097374200820922,-0.4033550322055816,0.0,1.0,0.4186279773712158,0.1715023517608642
-0.0091364858672022,0.02055817656219,0.0083170607686042,-0.0747426822781562,0.1901486217975616,-0.3924427032470703,0.0,1.0,0.0223535299301147,0.236738920211792
-0.0093610761687159,0.0189611539244651,-0.0024152402766048,-0.0685406401753425,0.1700109243392944,-0.4027889668941498,0.0,1.0,0.0331878662109375,0.0998479127883911
-0.0095815658569335,0.0175978764891624,-0.0027083968743681,-0.0584913156926631,0.1506624668836593,-0.3869688212871551,0.0,1.0,-0.0188443660736084,0.1423957347869873
-0.0098025323823094,0.0156639665365219,-0.0027009132318198,-0.0841049626469612,0.1313145011663437,-0.3869588971138,0.0,1.0,0.1204043626785278,0.4271292686462402
-0.0101012233644723,0.0139817567542195,-0.0104045737534761,-0.0731638893485069,0.111944779753685,-0.3873943984508514,0.0,0.0,-0.7398244142532349,0.5628869533538818
-0.01034717541188,0.0117429355159401,-0.0043050884269177,-0.0981051549315452,0.0918108448386192,-0.4026787877082824,0.0,0.0,-0.4818004965782165,0.2305368185043335
-0.0105883600190281,0.0089343404397368,-0.004283107817173,-0.1237252056598663,0.0721518173813819,-0.393180787563324,0.0,0.0,0.0945143699645996,-0.0410282015800476
-0.0109353065490722,0.0061597917228937,-0.014916718006134,-0.1224772036075592,0.0525935627520084,-0.3911648690700531,0.0,0.0,-0.0534546375274658,-0.4602124691009521
-0.0112773897126317,0.0028149343561381,-0.0148955266922712,-0.1480939239263534,0.0335110761225223,-0.3816497027873993,0.0,0.0,0.5176011323928833,-0.4658781886100769
-0.0116773601621389,-0.0001441144995624,-0.0161711107939481,-0.1311496347188949,0.0099823279306292,-0.4705789089202881,0.0,1.0,0.736201286315918,0.1183317899703979
-0.0120555879548192,-0.0028302215505391,-0.0141267282888293,-0.1193905025720596,-0.0134191010147333,-0.4680286943912506,1.0,1.0,0.952200174331665,-0.1157332062721252
-0.0122456550598144,-0.0047344113700091,-0.0037887506186962,-0.0851002857089042,-0.0273592621088027,-0.2774281799793243,1.0,1.0,0.8270571231842041,-0.4513595104217529
-0.0122238155454397,-0.0051330234855413,0.0052164644002914,-0.0177792031317949,-0.0303305108100175,-0.059398878365755,1.0,1.0,0.0802060365676879,-0.1392117738723755
-0.0120742795988917,-0.0044769193045794,0.0100053707137703,0.0292502716183662,-0.0254217404872179,0.0981978625059127,1.0,1.0,0.0725488662719726,0.5950973033905029
-0.0117786405608057,-0.003426601877436,0.0217376220971345,0.0467917099595069,-0.0176836252212524,0.1547790467739105,1.0,1.0,-0.4713852405548095,0.6176232099533081
