x_pos,y_pos,x_vel,y_vel,angle,ang_vel,leg_1,leg_2,main_booster,lat_booster
-0.0015489577781409,1.4031420946121216,-0.1559959948062896,-0.3456971943378448,0.0009813006035983,0.0192991457879543,0.0,0.0,0.2756739854812622,0.59930419921875
-0.0030278204940259,1.3954359292984009,-0.1469312608242035,-0.3424940109252929,3.5953275073552504e-05,-0.0189082287251949,0.0,0.0,0.2023515701293945,0.8361597061157227
-0.0043448447249829,1.387681484222412,-0.1283639967441558,-0.3446372151374817,-0.0032683203462511,-0.0660917907953262,0.0,0.0,-0.1433733701705932,-0.137451171875
-0.0056723593734204,1.37944495677948,-0.1285974681377411,-0.3660895228385925,-0.0073797376826405,-0.0822358429431915,0.0,0.0,0.1594057083129882,-0.4818224906921386
-0.0069113732315599,1.3714114427566528,-0.1193641424179077,-0.3570703864097595,-0.0118666915223002,-0.0897470787167549,0.0,0.0,0.083802580833435,-0.0981519222259521
-0.0080562587827444,1.3634285926818848,-0.1095730438828468,-0.3548421263694763,-0.0167333837598562,-0.0973430499434471,0.0,0.0,-0.7817831635475159,-0.4209370613098144
-0.0091962814331054,1.3549635410308838,-0.1082528457045555,-0.3762926757335663,-0.0224111918359994,-0.1135664731264114,0.0,0.0,-0.6093204617500305,-0.6077851057052612
-0.0103618623688817,1.3460198640823364,-0.1109236106276512,-0.3975944817066192,-0.0279949065297842,-0.1116845607757568,0.0,0.0,-0.0802008509635925,0.3582675457000732
-0.011512279510498,1.336594581604004,-0.1085650771856308,-0.4190448820590973,-0.03439187631011,-0.1279511600732803,0.0,0.0,-0.4348151087760925,-0.2526264190673828
-0.0126420017331838,1.326687574386597,-0.1056903824210167,-0.4404963254928589,-0.0416021719574928,-0.1442193239927292,0.0,0.0,0.0126591920852661,0.0638469457626342
-0.0136782648041844,1.3168418407440186,-0.0957637205719947,-0.4378181099891662,-0.0493759736418724,-0.1554904580116272,0.0,0.0,-0.1596605777740478,-0.3329440355300903
-0.0146838184446096,1.3065149784088137,-0.0918800979852676,-0.4592766761779785,-0.0579644031822681,-0.1717841625213623,0.0,0.0,-0.1724073886871338,-0.8008803725242615
-0.0157031062990427,1.2957156896591189,-0.0936892256140708,-0.4803091585636139,-0.0661205202341079,-0.163137212395668,0.0,0.0,-0.3836015462875366,-0.8926716446876526
-0.0167446136474609,1.2844332456588743,-0.0966789498925209,-0.5017896890640259,-0.0735243484377861,-0.1480904817581176,0.0,0.0,-0.435059905052185,-0.538091242313385
-0.0177733413875103,1.2726788520812988,-0.0954082384705543,-0.5227992534637451,-0.0809226110577583,-0.1479787081480026,0.0,0.0,-0.3317492604255676,-0.4807004928588867
-0.0187525749206542,1.2604435682296753,-0.0896466225385665,-0.5442560911178589,-0.0891343802213668,-0.1642505824565887,0.0,0.0,-0.5160732865333557,-0.989269196987152
-0.0197372436523437,1.2477470636367798,-0.0909086018800735,-0.5647562146186829,-0.0966369956731796,-0.150065928697586,0.0,0.0,0.1685763597488403,-0.9723292589187622
-0.0205968860536813,1.234951138496399,-0.0795600563287735,-0.5691385865211487,-0.1030040457844734,-0.1273523122072219,0.0,0.0,-0.6374866366386414,-0.9558162689208984
-0.0214569084346294,1.221692681312561,-0.0803935676813125,-0.5896555185317993,-0.1085811331868171,-0.1115518063306808,0.0,0.0,-0.2423874735832214,-0.8798808455467224
-0.0223294254392385,1.207965850830078,-0.0828389972448349,-0.6104156374931335,-0.1129777431488037,-0.0879403203725814,0.0,0.0,-0.2885051965713501,-0.9378178119659424
-0.0231900215148925,1.1937742233276367,-0.0823231041431427,-0.6310184597969055,-0.1167023479938507,-0.0744986459612846,0.0,0.0,0.23853600025177,-0.9494251012802124
-0.0240039825439453,1.179601788520813,-0.0787498503923416,-0.6300976276397705,-0.1193321198225021,-0.0526001751422882,0.0,0.0,-0.2874897122383117,-0.9441808462142944
-0.0248000137507915,1.1649571657180786,-0.0776431336998939,-0.6510310769081116,-0.1212810575962066,-0.038982268422842,0.0,0.0,-0.716428279876709,-0.9075913429260254
-0.0255805011838674,1.149832844734192,-0.0769069269299507,-0.6722880005836487,-0.1224242225289344,-0.0228650644421577,0.0,0.0,-0.8654056787490845,-0.7515195608139038
-0.0263515468686819,1.1342426538467407,-0.0770324170589447,-0.6929007768630981,-0.1224977001547813,-0.0014695015270262,0.0,0.0,-0.4272666573524475,-0.6889371275901794
-0.0271062850952148,1.1181659698486328,-0.0763326734304428,-0.7144488096237183,-0.12163957208395,0.01716248691082,0.0,0.0,0.2981150150299072,-0.7560962438583374
-0.0277597419917583,1.102472901344299,-0.0669558048248291,-0.6973416805267334,-0.1200355738401413,0.0320801548659801,0.0,0.0,-0.7484130859375,-0.6281006932258606
-0.0283824913203716,1.0863158702850342,-0.0646694526076316,-0.7179003357887268,-0.1176634281873703,0.0474427416920661,0.0,0.0,-0.6516577005386353,-0.8258606791496277
-0.0289913173764944,1.069698452949524,-0.064532957971096,-0.7382708787918091,-0.114032968878746,0.0726088508963584,0.0,0.0,-0.7055200934410095,-0.1423697471618652
-0.0295055396854877,1.0525996685028076,-0.0543339736759662,-0.7597236633300781,-0.1111407577991485,0.0578443519771099,0.0,0.0,-0.6774333715438843,-0.816695511341095
-0.0299845691770315,1.035039305686951,-0.0516842976212501,-0.7801879644393921,-0.1073915362358093,0.0749847963452339,0.0,0.0,-0.6175774931907654,-0.6264902949333191
-0.0304209701716899,1.017002820968628,-0.0481249913573265,-0.8012998700141907,-0.1029436960816383,0.0889570116996765,0.0,0.0,-0.4618412852287292,-0.0488918423652648
-0.0307571403682231,0.9984851479530334,-0.037390224635601,-0.8227521181106567,-0.0991910547018051,0.0750525221228599,0.0,0.0,-0.3655672669410705,-0.5921928286552429
-0.0310430526733398,0.9794883728027344,-0.0330086275935173,-0.8440122008323669,-0.094812735915184,0.0875664129853248,0.0,0.0,-0.0674240589141845,0.0153783559799194
-0.031225299462676,0.9600101113319396,-0.0219794772565364,-0.8654638528823853,-0.0910935625433921,0.074383296072483,0.0,0.0,-0.3867380023002624,0.7282931804656982
-0.0312429424375295,0.9400476217269896,-0.003367165569216,-0.8871248364448547,-0.0895065665245056,0.0317400656640529,0.0,0.0,0.5159679651260376,-0.8249017596244812
-0.0312088020145893,0.9202357530593872,0.0008238395676016,-0.8803748488426208,-0.0869332924485206,0.0514655523002147,0.0,0.0,0.5797971487045288,0.3256410360336303
-0.0309672355651855,0.9010249972343444,0.0219926964491605,-0.8536838293075562,-0.0847840309143066,0.0429853945970535,0.0,0.0,0.1143552064895629,-0.4964357614517212
-0.0305946357548236,0.8821852803230286,0.0357788577675819,-0.8372376561164856,-0.0833241119980812,0.0291986614465713,0.0,0.0,-0.705418050289154,-0.2353206872940063
-0.0301116947084665,0.8628636598587036,0.0473645702004432,-0.8586862683296204,-0.0824030935764312,0.0184204094111919,0.0,0.0,-0.5422148704528809,-0.708540678024292
-0.0295825954526662,0.8430742621421814,0.0508135929703712,-0.8794154524803162,-0.0803279653191566,0.0415023677051067,0.0,0.0,-0.0581698417663574,0.229927659034729
-0.0289408676326274,0.8228029012680054,0.0625632181763649,-0.900863766670227,-0.0787307992577552,0.0319433696568012,0.0,0.0,-0.3466166257858276,-0.1380330920219421
-0.0281853675842285,0.802049458026886,0.0743844881653785,-0.9223116040229796,-0.0775783509016037,0.0230490304529666,0.0,0.0,-0.2231701612472534,0.1484675407409668
-0.0273151397705078,0.7808141112327576,0.0862711519002914,-0.943759024143219,-0.0768356323242187,0.0148545037955045,0.0,0.0,-0.2632376551628113,-0.1785064339637756
-0.0263292305171489,0.7590965032577515,0.0982174053788185,-0.9652060866355896,-0.0764659717679023,0.007393239531666,0.0,0.0,-0.258697509765625,-0.8325690031051636
-0.0252878181636333,0.7368953824043274,0.102560818195343,-0.986640214920044,-0.0749018788337707,0.0312816984951496,0.0,0.0,0.6873360872268677,-0.9183662533760072
-0.0240980144590139,0.7148901224136353,0.1157520562410354,-0.977855145931244,-0.0717025622725486,0.0639863535761833,0.0,0.0,0.8045827150344849,-0.9594449996948242
-0.0229363441467285,0.6937983632087708,0.1114756613969802,-0.9371885061264038,-0.067055843770504,0.0929343625903129,0.0,0.0,0.1843140125274658,-0.806623637676239
-0.0217898376286029,0.6730948686599731,0.1086329817771911,-0.9198989272117616,-0.0611002892255783,0.1191112548112869,0.0,0.0,0.2822380065917969,-0.2044910788536071
-0.0205155368894338,0.6525019407272339,0.1216532215476036,-0.9150158762931824,-0.0553906857967376,0.1141921281814575,0.0,0.0,0.8540588617324829,-0.8782248497009277
-0.0189771652221679,0.6323778033256531,0.1460932940244674,-0.8941382765769958,-0.0477318577468395,0.1531763970851898,0.0,0.0,0.3768882751464844,-0.8146948218345642
-0.0174061767756938,0.6127059459686279,0.1478540897369384,-0.8740352988243103,-0.0386015176773071,0.1826068758964538,0.0,0.0,-0.1396256685256958,-0.5553604364395142
-0.0157490726560354,0.5925517082214355,0.1555960774421692,-0.8955084681510925,-0.0286074019968509,0.1998822391033172,0.0,0.0,0.7977350950241089,-0.8849709630012512
-0.0140101434662938,0.5732291340827942,0.1619752645492553,-0.8585962653160095,-0.0168423429131507,0.2353009432554245,0.0,0.0,0.5922054052352905,0.6255755424499512
-0.0119344713166356,0.5541228652000427,0.1965028643608093,-0.8490766882896423,-0.0059191728942096,0.2184633463621139,0.0,0.0,0.6398643255233765,-0.7915257215499878
-0.0098993303254246,0.5352354645729065,0.1909573823213577,-0.8394371867179871,0.0064767925068736,0.2479194700717926,0.0,0.0,0.620520830154419,0.3019609451293945
-0.0076522827148437,0.5170412063598633,0.2115830928087234,-0.8087418079376221,0.0194282699376344,0.2590297162532806,0.0,0.0,0.6974647045135498,-0.5150348544120789
-0.0051832199096679,0.4994115233421325,0.2321621626615524,-0.7837961316108704,0.0339938104152679,0.2913107275962829,0.0,0.0,0.7967848777770996,-0.3014770746231079
-0.0025374412070959,0.4826489388942718,0.249230146408081,-0.7454235553741455,0.0491425096988678,0.3029738962650299,0.0,0.0,0.5230312347412109,-0.3119794130325317
0.0001287460327148,0.4664870798587799,0.2513686418533325,-0.7188736200332642,0.0642106533050537,0.301363468170166,0.0,0.0,0.4491817951202392,-0.2612696886062622
0.0029453276656568,0.45033660531044,0.2659445106983185,-0.7185453772544861,0.0797662287950515,0.311111718416214,0.0,0.0,0.7047127485275269,-0.4074815511703491
0.0057281493209302,0.4347769320011139,0.2627452611923218,-0.692439615726471,0.0951566770672798,0.3078090250492096,0.0,0.0,0.4973225593566894,-0.201677143573761
0.0087050441652536,0.4194543659687042,0.2813164889812469,-0.6821247935295105,0.111410416662693,0.3250746130943298,0.0,0.0,0.763883113861084,-0.1871280074119568
0.011761856265366,0.4046331942081451,0.2888336777687073,-0.6600605845451355,0.12815622985363,0.3349162936210632,0.0,0.0,0.8189685344696045,-0.2820091843605041
0.0148985860869288,0.3899922668933868,0.296420007944107,-0.6522821187973022,0.1453460603952407,0.3437965214252472,0.0,0.0,0.8163254261016846,0.7821551561355591
0.0179831497371196,0.375819057226181,0.2926919758319855,-0.6315332055091858,0.1610944718122482,0.3149684071540832,0.0,0.0,0.9057339429855348,0.757969856262207
0.0211225505918264,0.3626585602760315,0.2992064952850342,-0.5865710377693176,0.1758366525173187,0.2948438227176666,0.0,0.0,0.4396981000900268,0.2096474170684814
0.0244162566959857,0.3494148850440979,0.313875138759613,-0.5905181169509888,0.1913889348506927,0.3110457360744476,0.0,0.0,0.7151048183441162,0.753878116607666
0.0277575496584177,0.3370322287082672,0.3196290135383606,-0.5522757768630981,0.2059845179319381,0.2919121086597442,0.0,0.0,0.7757740020751953,0.390878677368164
0.0310246460139751,0.3248873353004455,0.3121954500675201,-0.5418596267700195,0.2206332236528396,0.2929741740226745,0.0,0.0,0.6833031177520752,0.4571278095245361
0.0341783538460731,0.3132433295249939,0.300801932811737,-0.5197545289993286,0.2353887856006622,0.2951113581657409,0.0,0.0,-0.1809671521186828,0.3645632266998291
0.0374609008431434,0.3011215329170227,0.3132001757621765,-0.5412278771400452,0.2507010996341705,0.3062463402748108,0.0,0.0,0.4818925857543945,0.2139852046966552
0.040572740137577,0.2895798683166504,0.2961327135562897,-0.515602707862854,0.2660516202449798,0.3070111274719238,0.0,0.0,0.7774829864501953,0.9340789318084716
0.0438060760498046,0.2785235345363617,0.3094978928565979,-0.4939716160297394,0.2802329361438751,0.28362637758255,0.0,0.0,0.3418810367584228,0.6953979730606079
0.0471050255000591,0.2674520015716553,0.3169437646865845,-0.4946066439151764,0.2935618460178375,0.2665789723396301,0.0,0.0,0.6026202440261841,0.3790401220321655
0.0505047813057899,0.2563842833042145,0.3261978030204773,-0.4947452247142792,0.3078092932701111,0.284949243068695,0.0,0.0,0.8885760307312012,0.2835836410522461
0.0538815483450889,0.2453774362802505,0.3235087394714355,-0.4922658801078796,0.3225145041942596,0.2941042184829712,0.0,0.0,0.4776744842529297,0.374600887298584
0.0571551322937011,0.2348993569612503,0.312680184841156,-0.4690378308296203,0.3378205299377441,0.3061204552650451,0.0,0.0,0.9336488246917723,0.3757259845733642
0.0603292472660541,0.2253424674272537,0.3017780482769012,-0.4284914135932922,0.3542050123214721,0.3276900947093963,0.0,0.0,0.8992998600006104,0.3743572235107422
0.0631846413016319,0.2165643572807312,0.2699554562568664,-0.3940668106079101,0.370646983385086,0.328839510679245,0.0,0.0,0.8561426401138306,0.0126796960830688
0.0658978447318077,0.2077515423297882,0.255838930606842,-0.3957745432853699,0.3870790600776672,0.3286414742469787,0.0,0.0,0.8634481430053711,0.2722357511520386
0.0684442520141601,0.1997273713350296,0.2384529560804367,-0.3611267209053039,0.4043918251991272,0.3462556004524231,0.0,0.0,0.89422607421875,0.3797134160995483
0.0707515701651573,0.1920692771673202,0.2145400047302246,-0.3450797498226166,0.4218446314334869,0.3490552604198456,0.0,0.0,0.744103193283081,0.9093961715698242
0.0728983879089355,0.1849227994680404,0.1998037099838256,-0.3221566081047058,0.4379917681217193,0.3229429423809051,0.0,0.0,0.577709436416626,0.8790915012359619
0.0749383941292762,0.1782475262880325,0.1902935653924942,-0.3010344207286834,0.4529749751091003,0.2996648550033569,0.0,0.0,0.6231808662414551,0.8866410255432129
0.0770031958818435,0.1719757467508316,0.1938171982765197,-0.2829238474369049,0.4669293463230133,0.2790873944759369,0.0,0.0,0.6049761772155762,0.6304634809494019
0.0791130065917968,0.1657178997993469,0.1988977789878845,-0.2822465300559997,0.4803274571895599,0.2679619491100311,0.0,0.0,0.3373445272445678,0.253281831741333
0.0812646895647049,0.1594699174165725,0.2022268772125244,-0.2822571098804474,0.4947789013385772,0.2890282869338989,0.0,0.0,0.8059054613113403,0.7821488380432129
0.0834538489580154,0.153738647699356,0.2065992802381515,-0.2592143416404724,0.5086341500282288,0.2771051526069641,0.0,0.0,0.190303087234497,0.6911073923110962
0.0857769027352333,0.148021325469017,0.2206294983625412,-0.2585072815418243,0.5218782424926758,0.264881432056427,0.0,0.0,0.6251530647277832,0.7959785461425781
0.0879023522138595,0.142835795879364,0.2018214911222458,-0.2346322685480117,0.534135103225708,0.2451377213001251,0.0,0.0,0.1640422344207763,0.6023056507110596
0.0899392142891883,0.1379225552082061,0.1934885382652282,-0.2224327176809311,0.5458623766899109,0.2345452755689621,0.0,0.0,0.1120238304138183,0.5062520503997803
0.0919775962829589,0.1332128793001175,0.1938860565423965,-0.2133943289518356,0.5573986768722534,0.2307255566120147,0.0,0.0,0.636104941368103,0.2448233366012573
0.0940518379211425,0.1285182982683181,0.1965372413396835,-0.2132342159748077,0.5701261162757874,0.2545480132102966,0.0,0.0,0.1566824913024902,0.4828662872314453
0.0960241332650184,0.1237688660621643,0.1859340965747833,-0.2159759104251861,0.5834156274795532,0.2657897174358368,0.0,0.0,0.3668255805969238,0.5916433334350586
0.0978228598833084,0.1195448487997055,0.1690308451652526,-0.1925718337297439,0.5963027477264404,0.2577427923679352,0.0,0.0,-0.255012571811676,0.9761960506439208
0.0998014435172081,0.1149064898490905,0.188169926404953,-0.2105794250965118,0.6079066395759583,0.2320777624845504,0.0,0.0,0.3701679706573486,0.9232063293457032
0.1014803871512413,0.1105721071362495,0.1593683362007141,-0.1966267675161361,0.6181773543357849,0.2054144144058227,0.0,0.0,0.184650182723999,0.9506053924560548
0.1031042113900184,0.106505163013935,0.1550237238407135,-0.1842726320028305,0.6271159648895264,0.1787717044353485,0.0,0.0,0.4858019351959228,0.981238603591919
0.1044624298810958,0.1028060764074325,0.1296767890453338,-0.1673933565616607,0.6346254944801331,0.1501901447772979,0.0,0.0,-0.3748753070831299,0.9712352752685548
0.1059847846627235,0.0986942127346992,0.1470054239034652,-0.1853329092264175,0.6410497426986694,0.1284845769405365,0.0,0.0,0.4318099021911621,0.9547923803329468
0.1074031814932823,0.0946667492389679,0.1377085149288177,-0.1810586750507354,0.6461372375488281,0.1017499715089798,0.0,0.0,0.6525028944015503,0.965479850769043
0.1085254698991775,0.0908333361148834,0.1093153730034828,-0.1718436032533645,0.6497388482093811,0.072031669318676,0.0,0.0,0.6773390769958496,0.9970152378082277
0.1093611717224121,0.087070807814598,0.0819386839866638,-0.1680503934621811,0.6517603397369385,0.0404299609363079,0.0,0.0,0.2223751544952392,0.9876967668533324
0.1101134270429611,0.0836237072944641,0.0747462064027786,-0.1534501165151596,0.6523552536964417,0.0118988128378987,0.0,0.0,0.0186281204223632,0.9758167266845704
0.1109328269958496,0.0800749659538269,0.0825897604227066,-0.1573924720287323,0.6515507102012634,-0.0160906389355659,0.0,0.0,0.0514655113220214,0.9673571586608888
0.1117051094770431,0.0768034532666206,0.0790386572480201,-0.1444823145866394,0.6492997407913208,-0.0450198724865913,0.0,0.0,-0.0379078984260559,0.9237074851989746
0.1126293167471885,0.0731240361928939,0.0952099487185478,-0.162127673625946,0.6458578109741211,-0.0688380002975463,0.0,0.0,-0.1443499326705932,0.8761866092681885
0.1137140244245529,0.0690521597862243,0.1125680953264236,-0.1789209395647049,0.6407985091209412,-0.1011861339211463,0.0,0.0,-0.3272599577903747,0.8587186336517334
0.1149532347917556,0.0645714402198791,0.1291262805461883,-0.1965646892786026,0.6343968510627747,-0.1280332058668136,0.0,0.0,0.1882649660110473,0.9681692123413086
0.1159869208931922,0.0603933446109294,0.1097213253378868,-0.1826030910015106,0.6266407370567322,-0.1551228165626526,0.0,1.0,0.8830010890960693,0.999993085861206
0.1166650801897049,0.0585225187242031,0.0874838382005691,-0.0745755955576896,0.601507306098938,-0.5051078200340271,0.0,1.0,0.7907912731170654,0.9999816417694092
0.1171652823686599,0.0576531253755092,0.0816182419657707,-0.0247377175837755,0.5640065670013428,-0.7501837015151978,0.0,1.0,0.4429683685302734,0.6247045993804932
0.1173542961478233,0.0569409467279911,0.0507810041308403,-0.0189386028796434,0.5266073942184448,-0.7488938570022583,0.0,1.0,-0.1455596685409546,0.6241216659545898
0.1175653487443924,0.0557802282273769,0.055144190788269,-0.038917638361454,0.488126665353775,-0.7696163058280945,0.0,0.0,-0.998865008354187,-0.875973105430603
0.1177965179085731,0.0541075319051742,0.0554217919707298,-0.0633432492613792,0.452322393655777,-0.7160860300064087,0.0,0.0,-0.9931817650794984,-0.4987424612045288
0.1181073188781738,0.0519719235599041,0.0632491260766983,-0.0849126353859901,0.4172849357128143,-0.700750470161438,0.0,0.0,-0.9651708602905272,-0.1175152063369751
0.118494413793087,0.0493724681437015,0.0706546232104301,-0.1064775511622428,0.3830154538154602,-0.6853898167610168,0.0,0.0,-0.9676913022994996,-0.9041454792022704
0.1188978180289268,0.0462781302630901,0.0705245584249496,-0.1297487914562225,0.3510732352733612,-0.6388447880744934,0.0,0.0,-0.8359534740447998,-0.928623914718628
0.1193020790815353,0.0426888316869735,0.0684915333986282,-0.1529522836208343,0.321716845035553,-0.5871284604072571,0.0,0.0,-0.2047435045242309,-0.8701480031013489
0.1197150200605392,0.0385920628905296,0.0673269182443618,-0.1765254139900207,0.2947320640087127,-0.5396957993507385,0.0,0.0,0.6913861036300659,-0.9704834818840028
