x_pos,y_pos,x_vel,y_vel,angle,ang_vel,leg_1,leg_2,main_booster,lat_booster
-0.0014645576011389,1.4029842615127563,-0.1481338143348693,-0.3527022302150726,0.0014979224652051,0.0295285433530807,0.0,0.0,0.1145813465118408,0.8862742185592651
-0.0027589797973632,1.3948941230773926,-0.1289264112710952,-0.359559029340744,0.0009900428121909,-0.010158110409975,0.0,0.0,0.0717613697052002,0.02839195728302
-0.0039060593117028,1.386556625366211,-0.1143854856491088,-0.3705604970455169,0.0006670922157354,-0.006459382828325,0.0,0.0,-0.1657112836837768,0.1810694932937622
-0.0049916268326342,1.3775787353515625,-0.1079984903335571,-0.3990170657634735,0.0001137388971983,-0.0110680554062128,0.0,0.0,-0.5563848614692688,0.6783380508422852
-0.0059503554366528,1.3679628372192385,-0.0934278294444084,-0.4273721575736999,-0.0022963059600442,-0.0482057407498359,0.0,0.0,-0.2780594825744629,0.6723934412002563
-0.0067811966873705,1.3577057123184204,-0.0787733048200607,-0.455880343914032,-0.0065647470764815,-0.0853770673274993,0.0,0.0,-0.4225243926048279,-0.4814941883087158
-0.0075486181303858,1.3468087911605835,-0.0722061544656753,-0.4843332469463348,-0.0110564632341265,-0.0898423194885253,0.0,0.0,-0.4221749305725097,-0.7877350449562073
-0.0082987789064645,1.3352750539779663,-0.0714418813586235,-0.5126413702964783,-0.0145961055532097,-0.0707992538809776,0.0,0.0,0.1928849220275879,-0.912847638130188
-0.0090578077360987,1.324019193649292,-0.0739177614450454,-0.5002795457839966,-0.0165521595627069,-0.0391245819628238,0.0,0.0,-0.5534780621528625,-0.7055976390838623
-0.0098075866699218,1.3121289014816284,-0.0741977244615554,-0.5284666419029236,-0.0173254664987325,-0.0154672805219888,0.0,0.0,-0.3234454393386841,-0.6783040165901184
-0.010538101196289,1.2996002435684204,-0.0732112452387809,-0.5568273663520813,-0.0171609707176685,0.003290279302746,0.0,0.0,-0.5458319187164307,-0.8559098243713379
-0.0112626077607274,1.2864313125610352,-0.0739174634218216,-0.5852721929550171,-0.0157103817909955,0.0290145371109247,0.0,0.0,-0.3612064719200134,-0.7106674313545227
-0.0119651798158884,1.272626876831055,-0.0726282745599746,-0.6135053038597107,-0.0133635960519313,0.0469399914145469,0.0,0.0,-0.4124499559402466,-0.82545405626297
-0.0126592637971043,1.25817608833313,-0.073042131960392,-0.6422351598739624,-0.0097727617248892,0.0718232169747352,0.0,0.0,0.2104902267456054,-0.6105043292045593
-0.0132144931703805,1.243996500968933,-0.0603813752532005,-0.6301752328872681,-0.0049689980223774,0.0960842818021774,0.0,0.0,-0.4949049949645996,-0.6702629327774048
-0.0137462615966796,1.2291696071624756,-0.0589411780238151,-0.6589680314064026,0.0007243629661388,0.1138776913285255,0.0,0.0,-0.2946106195449829,0.4244707822799682
-0.0142111778259277,1.213702917098999,-0.0520472414791584,-0.6874185800552368,0.0062238578684628,0.1099995821714401,0.0,0.0,-0.4524430632591247,0.4004256725311279
-0.0146087650209665,1.1975964307785034,-0.0451304540038108,-0.715871274471283,0.0115340715274214,0.1062141209840774,0.0,0.0,-0.7794986367225647,0.5853326320648193
-0.0148852346464991,1.180856466293335,-0.0314628705382347,-0.7440282106399536,0.015309665352106,0.0755185931921005,0.0,0.0,-0.1527462005615234,0.2364084720611572
-0.0150938984006643,1.163476586341858,-0.0245023462921381,-0.7724809646606445,0.0189058557152748,0.0719301402568817,0.0,0.0,-0.3924915790557861,0.7069418430328369
-0.0151668544858694,1.1454635858535769,-0.0090398527681827,-0.8005973100662231,0.0206246469169855,0.0343789532780647,0.0,0.0,0.0122358798980712,0.2108500003814697
-0.0151700023561716,1.1272172927856443,-0.0019164883997291,-0.8109709024429321,0.022208010777831,0.0316701605916023,0.0,0.0,-0.0670574903488159,-0.3888134360313415
-0.0151046756654977,1.1083307266235352,0.0050943354144692,-0.839425802230835,0.023626809939742,0.0283784605562686,0.0,0.0,0.0585594177246093,-0.2385228276252746
-0.0149308200925588,1.089105486869812,0.0159102566540241,-0.8544788360595703,0.0250947773456573,0.0293619595468044,0.0,0.0,0.7654645442962646,-0.3582073450088501
-0.0148571012541651,1.0702656507492063,0.0067566810175776,-0.8373406529426575,0.025706011801958,0.0122255226597189,0.0,0.0,0.3129466772079468,-0.0949504971504211
-0.014844131655991,1.0515985488891602,0.0013644061982631,-0.829647958278656,0.0256349090486764,-0.0014222612371668,0.0,0.0,0.253039002418518,-0.5283845663070679
-0.0148148536682128,1.0331192016601562,0.0020647635683417,-0.8213163018226624,0.0264806654304265,0.0169151909649372,0.0,0.0,-0.2007320523262024,0.1643488407135009
-0.0147164342924952,1.0139997005462646,0.0091220457106828,-0.849765956401825,0.0271926801651716,0.0142404828220605,0.0,0.0,0.7447736263275146,0.280316948890686
-0.0147086139768362,0.9954611659049988,0.0008309133118018,-0.8239385485649109,0.0271402299404144,-0.0010492585133761,0.0,0.0,0.7606127262115479,0.2373226881027221
-0.0146678928285837,0.9770604968070984,0.0043536787852644,-0.8177999258041382,0.0268641281872987,-0.0055215940810739,0.0,0.0,0.3480685949325561,0.0196911096572875
-0.0145607944577932,0.9590562582015992,0.011019772849977,-0.8001857995986938,0.0265455208718776,-0.0063720820471644,0.0,0.0,0.2491668462753296,0.2333619594573974
-0.0144517896696925,0.9409063458442688,0.0116014992818236,-0.8066526651382446,0.025848688557744,-0.0139363016933202,0.0,0.0,0.6445325613021851,0.2480930089950561
-0.0143759725615382,0.9233096241950988,0.0087737813591957,-0.7820594310760498,0.024672633036971,-0.0235210116952657,0.0,0.0,0.4703140258789062,0.2249646186828613
-0.0142951011657714,0.9055519700050354,0.0096375718712806,-0.7892060875892639,0.0231421440839767,-0.0306096039712429,0.0,0.0,-0.0007839202880859,-0.2022854089736938
-0.0141445156186819,0.8871541619300842,0.016693502664566,-0.8176560997962952,0.0215267371386289,-0.0323082394897937,0.0,0.0,0.442538857460022,-0.0886027812957763
-0.013922500424087,0.8691072463989258,0.0238373037427663,-0.8020684719085693,0.019906897097826,-0.0323965810239315,0.0,0.0,0.2091398239135742,-0.5072948932647705
-0.0136985778808593,0.8509153127670288,0.0231357645243406,-0.8085175156593323,0.0191803686320781,-0.0145305451005697,0.0,0.0,-0.0118419528007507,0.4489511251449585
-0.0134048461914062,0.8320833444595337,0.0301700942218303,-0.8369673490524292,0.018389930948615,-0.0158086605370044,0.0,0.0,0.509131669998169,0.0637537240982055
-0.0130914691835641,0.8137645125389099,0.032355859875679,-0.8141565918922424,0.0173761788755655,-0.0202749427407979,0.0,0.0,-0.3436272740364074,0.1687839031219482
-0.012708568945527,0.7948054671287537,0.0393681153655052,-0.8426064848899841,0.0163122061640024,-0.0212794709950685,0.0,0.0,-0.3055499196052551,0.3791931867599487
-0.0122561454772949,0.7752065062522888,0.0463668368756771,-0.8710564374923706,0.0152046950533986,-0.0221501905471086,0.0,0.0,0.6616103649139404,0.2814499139785766
-0.0116180423647165,0.7557598352432251,0.0643814355134964,-0.8642903566360474,0.0146344127133488,-0.0114055713638663,0.0,0.0,0.1867198944091797,0.5169306993484497
-0.0107966419309377,0.7360077500343323,0.0836357325315475,-0.8778550028800964,0.0131628951057791,-0.0294304750859737,0.0,0.0,0.3501172065734863,-0.3781219124794006
-0.0098304748535156,0.7162651419639587,0.0977484434843063,-0.8774405121803284,0.0120424628257751,-0.0224085096269845,0.0,0.0,0.0614622831344604,-0.8113142251968384
-0.0088921543210744,0.6961548328399658,0.0933669954538345,-0.8937942981719971,0.0125058284029364,0.0092671932652592,0.0,0.0,0.5851650238037109,-0.2812378406524658
-0.00784473400563,0.6758862137794495,0.1040704846382141,-0.9008370041847228,0.0131609737873077,0.0131030809134244,0.0,0.0,0.6838482618331909,-0.7324410676956177
-0.0067245485261082,0.655656635761261,0.1097428351640701,-0.8991086483001709,0.0154066169634461,0.0449127443134784,0.0,0.0,0.5666592121124268,-0.7391712069511414
-0.0057241441681981,0.6359769701957703,0.0965018048882484,-0.874696671962738,0.0189024060964584,0.069915659725666,0.0,0.0,-0.1183270812034607,-0.4260600805282593
-0.004655456636101,0.6156570911407471,0.1033186092972755,-0.9031476378440856,0.0224030129611492,0.0700122639536857,0.0,0.0,0.9693200588226318,-0.7258688807487488
-0.0036170959938317,0.5956018567085266,0.0988857224583625,-0.8914300799369812,0.0272915158420801,0.0977700725197792,0.0,0.0,0.89841628074646,-0.5349814891815186
-0.0023965835571289,0.5758960247039795,0.1155023425817489,-0.8759475946426392,0.0337682999670505,0.1295354068279266,0.0,0.0,0.8425730466842651,-0.3582073450088501
-0.0012005806202068,0.5567790269851685,0.1133185401558876,-0.8497956395149231,0.0399681665003299,0.1239973083138465,0.0,0.0,0.7674680948257446,0.2690942287445068
0.0001601219119038,0.5377423763275146,0.1292181760072708,-0.8462700247764587,0.0467339530587196,0.1353159695863723,0.0,0.0,0.9464645385742188,0.4426898956298828
0.0015469550853595,0.5194747447967529,0.1318010091781616,-0.8121278285980225,0.053546667098999,0.1362542808055877,0.0,0.0,0.7407565116882324,0.2406181097030639
0.003129196120426,0.5013497471809387,0.1505546122789383,-0.8058484196662903,0.061119507998228,0.1514569222927093,0.0,0.0,0.8827569484710693,0.3592574596405029
0.0046352385543286,0.4833793640136719,0.143418401479721,-0.7989946007728577,0.0682268142700195,0.1421460956335067,0.0,0.0,0.885063648223877,0.7364065647125244
0.0063179968856275,0.466154932975769,0.1622656285762787,-0.7658168077468872,0.0741757526993751,0.1189788207411766,0.0,0.0,0.8151552677154541,-0.40666264295578
0.0081612588837742,0.4494162201881408,0.1775594651699066,-0.7442921996116638,0.0808722078800201,0.1339291036128997,0.0,0.0,0.4615321159362793,-0.0585708618164062
0.010074901394546,0.4331350028514862,0.1842542588710785,-0.7240089178085327,0.0879243910312652,0.1410433650016784,0.0,0.0,-0.2307146787643432,-0.3185313940048218
0.0120512964203953,0.4162144064903259,0.1904705464839935,-0.7524634003639221,0.0950301066040992,0.1421139687299728,0.0,0.0,0.7316716909408569,-0.0203086733818054
0.0141060827299952,0.3992416858673095,0.1980091035366058,-0.7548350691795349,0.1024409979581832,0.1482183039188385,0.0,0.0,0.8428986072540283,-0.3949966430664062
0.0160305984318256,0.3827799260616302,0.1854394674301147,-0.732128918170929,0.109394833445549,0.139076679944992,0.0,0.0,0.9573032855987548,0.350587248802185
0.0180934909731149,0.366616427898407,0.1985471993684768,-0.718965470790863,0.117089107632637,0.1538856923580169,0.0,0.0,0.7394247055053711,-0.5641538500785828
0.0201218612492084,0.3507727980613708,0.1938269585371017,-0.7048913240432739,0.126046285033226,0.1791433990001678,0.0,0.0,0.8848404884338379,-0.1306104660034179
0.02215919457376,0.3349724411964416,0.1946233361959457,-0.703031599521637,0.1351143568754196,0.1813618391752243,0.0,0.0,0.984776258468628,-0.0798372626304626
0.0240098945796489,0.3195583820343017,0.1765856444835662,-0.6858586668968201,0.1435670703649521,0.169054239988327,0.0,0.0,0.795994758605957,0.7360939979553223
0.0258642192929983,0.304912805557251,0.1783202886581421,-0.651619553565979,0.150674507021904,0.1421487927436828,0.0,0.0,0.8616255521774292,-0.4714599847793579
0.0278141982853412,0.2901374101638794,0.1873677372932434,-0.6574727296829224,0.1582878828048706,0.152267724275589,0.0,0.0,0.9125839471817015,0.108207106590271
0.0296910293400287,0.276194155216217,0.1798517107963562,-0.6205543875694275,0.1661267429590225,0.1567776352167129,0.0,0.0,0.9187145233154296,0.0163928270339965
0.0314193740487098,0.2623979449272156,0.1654263883829116,-0.6140143871307373,0.1735433638095855,0.1483322232961654,0.0,0.0,0.9642279148101808,0.580496072769165
0.0329874046146869,0.2491358816623687,0.1508122384548187,-0.5901364088058472,0.1795531958341598,0.1201966032385826,0.0,0.0,0.8059163093566895,0.5038919448852539
0.0345544815063476,0.2362595647573471,0.1515289545059204,-0.5729179978370667,0.1847440749406814,0.1038175001740455,0.0,0.0,0.7792050838470459,0.4836574792861938
0.0358621589839458,0.2240463644266128,0.1261563599109649,-0.5433896780014038,0.1893838793039322,0.0927961394190788,0.0,0.0,0.8271307945251465,0.8215587139129639
0.0372428894042968,0.2121778279542923,0.1348330080509185,-0.5279067754745483,0.1926422715187072,0.0651677399873733,0.0,0.0,0.9536465406417848,0.6028103828430176
0.0385801307857036,0.200347289443016,0.1317110210657119,-0.5260673761367798,0.1946720629930496,0.0405958294868469,0.0,0.0,0.9544835090637208,0.0911110639572143
0.0399589538574218,0.1884662508964538,0.1353897154331207,-0.5283775329589844,0.1971714198589325,0.0499874800443649,0.0,0.0,0.9833791255950928,0.5508105754852295
0.0412960052490234,0.1765402853488922,0.1323368400335312,-0.5302249789237976,0.1985504031181335,0.0275796242058277,0.0,0.0,0.9854655265808104,-0.3381985425949096
0.0424666404724121,0.1653733551502227,0.1156288012862205,-0.4965023696422577,0.1999846398830413,0.0286847054958343,0.0,0.0,0.9851179122924804,-0.627368688583374
0.0435219779610633,0.1550295501947403,0.102494940161705,-0.4601387679576874,0.2030562758445739,0.0614323318004608,0.0,0.0,0.9964332580566406,-0.0379436612129211
0.0442707054316997,0.1454560607671737,0.072333887219429,-0.4258370995521545,0.2056066244840622,0.0510069914162159,0.0,0.0,0.9974545240402222,-0.9643959999084472
0.0447171218693256,0.135745033621788,0.0403909906744957,-0.4322007596492767,0.2099040746688842,0.0859486237168312,0.0,0.0,0.9796154499053956,0.3194196224212646
0.0450321212410926,0.1267991214990615,0.0269091911613941,-0.3982538282871246,0.2145351469516754,0.0926218181848526,0.0,0.0,0.948286771774292,0.886223316192627
0.0451578125357627,0.1181885823607444,0.0098851006478071,-0.3830801546573639,0.2172421365976333,0.0541398935019969,0.0,0.0,0.9664294719696044,0.9092215299606324
0.0451205261051654,0.1101237833499908,-0.0045754145830869,-0.3585604131221771,0.2180945575237274,0.0170485321432352,0.0,0.0,0.9556558132171632,0.9940314292907716
0.0449724197387695,0.1026566624641418,-0.0137529652565717,-0.3317154347896576,0.2170318365097046,-0.0212542545050382,0.0,0.0,0.9569594860076904,0.7527401447296143
0.0448474884033203,0.0956148207187652,-0.0103186648339033,-0.3126539587974548,0.2148295193910598,-0.0440462939441204,0.0,0.0,0.9611961841583252,-0.1224317550659179
0.0446638092398643,0.088537722826004,-0.0164318792521953,-0.3142586052417755,0.212876409292221,-0.0390621684491634,0.0,0.0,0.9535630941390992,0.991379737854004
0.0445728302001953,0.0815752819180488,-0.0055078449659049,-0.3089291751384735,0.2092547416687011,-0.0724336206912994,0.0,0.0,0.8468141555786133,0.6742165088653564
0.0445679649710655,0.0749816298484802,0.0039011961780488,-0.2924374938011169,0.2048286199569702,-0.0885224938392639,0.0,0.0,0.9594087600708008,0.9773526191711426
0.0447132103145122,0.0685075595974922,0.020432885736227,-0.2869283854961395,0.1988763064146042,-0.1190458312630653,0.0,0.0,0.9704480171203612,0.9159351587295532
0.0447297096252441,0.0627377331256866,0.0092932749539613,-0.2554335594177246,0.1911895722150802,-0.1537348926067352,0.0,0.0,0.941880226135254,0.8610198497772217
0.0446638092398643,0.0576790198683738,0.0025887640658766,-0.2236707955598831,0.1819747239351272,-0.1842972487211227,0.0,0.0,0.9501464366912842,0.7338519096374512
0.0446470268070697,0.053205095231533,0.0084770331159234,-0.1976309120655059,0.1717880517244339,-0.2037333250045776,0.0,0.0,0.8349378108978271,-0.2115537524223327
0.0446537025272846,0.0486570708453655,0.0101981349289417,,0.1622466295957565,-0.1908284723758697,0.0,0.0,0.8355231285095215,-0.5452948212623596
0.0444372184574604,0.0442807041108608,-0.0131540792062878,-0.1935982257127761,0.1537507474422454,-0.1699175834655761,0.0,0.0,0.7072875499725342,-0.4738733768463135
0.0441393852233886,0.0406070798635482,-0.021812554448843,-0.1624664813280105,0.1457873582839965,-0.1592675596475601,0.0,0.0,0.2918370962142944,0.6115492582321167
0.0437705032527446,0.0369609221816062,-0.0277635008096694,-0.1611821800470352,0.1366923302412033,-0.1819010078907013,0.0,0.0,0.5415022373199463,0.1347028017044067
0.0431484207510948,0.0337553583085536,-0.0526717714965343,-0.141624629497528,0.1271882951259613,-0.1900806576013565,0.0,0.0,0.4517784118652344,0.5685677528381348
0.0425352081656456,0.0308507066220045,-0.0509356372058391,-0.1282427608966827,0.1168650984764099,-0.2064640969038009,0.0,0.0,0.2294764518737793,0.6716012954711914
0.0418226234614849,0.0281457528471946,-0.0595792159438133,-0.1193425208330154,0.1052619218826294,-0.2320636510848999,0.0,0.0,-0.1835522651672363,0.5054748058319092
0.0410991683602333,0.0248119458556175,-0.0599011108279228,-0.1473410576581955,0.0929147377610206,-0.2469437420368194,0.0,0.0,0.1771911382675171,0.6179286241531372
0.0403247848153114,0.0213722810149192,-0.0638331100344657,-0.1520837098360061,0.0794318094849586,-0.2696584165096283,0.0,0.0,0.3107492923736572,0.514278769493103
0.0394036285579204,0.0180022101849317,-0.0773505121469497,-0.1490669995546341,0.0648200511932373,-0.2922351956367492,0.0,0.0,0.1179691553115844,0.5571036338806152
0.0383397117257118,0.0145176267251372,-0.0904216095805168,-0.1542529910802841,0.0490299835801124,-0.3158014416694641,0.0,0.0,0.2571606636047363,0.2110539674758911
0.0372764579951763,0.0112214423716068,-0.0908477157354354,-0.1460625380277633,0.033735878765583,-0.3058822453022003,0.0,0.0,0.4509611129760742,-0.2359918355941772
0.036201287060976,0.0077767707407474,-0.0923988819122314,-0.1528260558843612,0.0188126619905233,-0.298464298248291,0.0,0.0,0.7642151117324829,-0.2875348329544067
0.0352094657719135,0.0049209687858819,-0.0849169269204139,-0.1268074065446853,0.004725988022983,-0.2817335128784179,0.0,0.0,0.3614660501480102,-0.1002819538116455
0.0341380126774311,0.0023867106065154,-0.092908576130867,-0.1126472279429435,-0.009329592809081,-0.2811115086078644,0.0,0.0,-0.020955204963684,-0.1854659914970398
0.0330074317753315,-0.0007849836256355,-0.0989370346069336,-0.141113594174385,-0.0232687257230281,-0.2787824273109436,1.0,0.0,0.7895956039428711,0.5206143856048584
0.0320778861641883,-0.0031982564833015,-0.089954100549221,-0.1075017228722572,-0.0254139471799135,-0.0418578200042247,1.0,0.0,0.6411497592926025,0.6611794233322144
0.0313948616385459,-0.004553988110274,-0.0811747536063194,-0.0600819140672683,-0.0126906903460621,0.2544771134853363,1.0,1.0,0.7346642017364502,0.9937549829483032
0.0309660919010639,-0.0046237967908382,-0.0561336204409599,-0.0031990895513445,-0.0001693856465863,0.2497106790542602,1.0,1.0,0.0921049118041992,0.995863437652588
0.0306889526546001,-0.0041646743193268,-0.0331991091370582,0.0203827563673257,0.0052162813954055,0.107683815062046,1.0,1.0,-0.4651442766189575,0.9952168464660645
0.0304701812565326,-0.00360863446258,-0.0209598783403635,0.024716293439269,0.0043188761919736,-0.0179384797811508,1.0,1.0,-0.9417657852172852,0.8494493961334229
0.0302857402712106,-0.0029692673124372,-0.0147123038768768,0.0284175686538219,0.0006437507690861,-0.073498860001564,1.0,1.0,-0.8659083247184753,-0.1101564168930053
0.030120849609375,-0.0022359872236847,-0.0143927214667201,0.032584574073553,-0.0014352583093568,-0.0415787622332572,1.0,1.0,-0.9851091504096984,-0.1079592704772949
0.0299787521362304,-0.0014167332556098,-0.0140128033235669,0.0364080853760242,-0.0016424616333097,-0.0041466890834271,1.0,1.0,-0.9096179604530334,0.4349143505096435
0.0299035068601369,-0.0007177495863288,-0.0128815788775682,0.0310627110302448,0.003654733300209,0.1059393510222435,1.0,1.0,-0.4891849160194397,0.9850850105285645
0.0298890117555856,-0.0006269479054026,-0.0021736612543463,0.0040314900688827,0.0043611521832644,0.0141210285946726,1.0,1.0,-0.862991213798523,0.1532351970672607
0.0298823360353708,-0.0006304526468738,-0.000693674897775,-0.0001600346586201,0.0043729282915592,0.0002238714805571,1.0,1.0,-0.8584808111190796,-0.0526626110076904
0.0298854820430278,-0.0006311679026111,0.0003282001416664,-3.0572122341254726e-05,0.0043683559633791,-9.408558253198862e-05,1.0,1.0,-0.8153389692306519,-0.1354439854621887
0.0298897735774517,-0.0006311679026111,0.0004402720369398,1.2396994861774149e-06,0.0043618390336632,-0.0001308495120611,1.0,1.0,-0.738197386264801,0.1120656728744506
