x_pos,y_pos,x_vel,y_vel,angle,ang_vel,leg_1,leg_2,main_booster,lat_booster
-0.0015671730507165,1.402916431427002,-0.1585197746753692,-0.3557159304618835,0.0016061816131696,0.0316716805100441,0.0,0.0,-0.5189780635463144,0.687542183434972
-0.0031211853493005,1.3942248821258545,-0.1552860736846923,-0.3862948417663574,0.0014985515736043,-0.0021520925220102,0.0,0.0,0.8906359076404362,-0.8982632848329377
-0.0046243667602539,1.385511875152588,-0.1521571576595306,-0.3872448801994324,0.0033106277696788,0.0362448319792747,0.0,0.0,-0.1774869286446299,0.8852132351244895
-0.006119632627815,1.3760881423950195,-0.1497222334146499,-0.4188325703144073,0.0035156169906258,0.0040999706834554,0.0,0.0,-0.8247702489511064,-0.8358226319962867
-0.0077154161408543,1.3659589290618896,-0.160900130867958,-0.4501940011978149,0.0048211198300123,0.0261123720556497,0.0,0.0,0.2507153417260885,0.8147918539386714
-0.0091807367280125,1.3557385206222534,-0.1461537331342697,-0.4542387723922729,0.0044408068060874,-0.007606703788042,0.0,0.0,-0.5110275551442307,-0.9029646902515291
-0.0107710836455225,1.3448094129562378,-0.1603268831968307,-0.4857369661331177,0.0057123079895973,0.0254325866699218,0.0,0.0,0.8400004288517344,0.672480351005209
-0.0121856685727834,1.3342573642730713,-0.1416544616222381,-0.4689861834049225,0.0059101372025907,0.0039568478241562,0.0,0.0,-0.0009084896819773,0.7210010225172154
-0.0135982511565089,1.323005199432373,-0.1398252993822097,-0.5000847578048706,0.0045039914548397,-0.0281254593282938,0.0,0.0,0.4608218773889783,0.977701942158932
-0.014991951175034,1.3120155334472656,-0.135781854391098,-0.4884284436702728,0.0009554442949593,-0.0709780156612396,0.0,0.0,-0.1244046926684465,-0.8510040020385111
-0.0164986606687307,1.3003182411193848,-0.1483369022607803,-0.5198802351951599,-0.0013524807291105,-0.0461622104048728,0.0,0.0,0.5204330334261904,-0.6206931962862319
-0.0180394165217876,1.2886409759521484,-0.1529384851455688,-0.5189910531044006,-0.0024730591103434,-0.0224138759076595,0.0,0.0,0.7003802332403448,-0.795229502806491
-0.0195508953183889,1.277339220046997,-0.1516995877027511,-0.5022990703582764,-0.0019303353037685,0.010855701752007,0.0,0.0,-0.0791187476793906,-0.7470803777301467
-0.0211730953305959,1.2653225660324097,-0.1638875305652618,-0.5340715050697327,-0.0002828856522683,0.0329518243670463,0.0,0.0,0.8231659832784008,-0.8298259103069463
-0.0227489471435546,1.2539712190628052,-0.161055639386177,-0.5045037865638733,0.0031521948985755,0.0687078312039375,0.0,0.0,0.8407549682839999,-0.7441276272643018
-0.0243120193481445,1.2424004077911377,-0.1613721251487732,-0.5142781138420105,0.0081622079014778,0.1002091392874717,0.0,0.0,-0.6628258806764329,0.8300816770546584
-0.0258557312190532,1.2301324605941772,-0.1571840643882751,-0.5452598333358765,0.0109408982098102,0.0555787272751331,0.0,0.0,0.5092496065250023,0.7947137877355225
-0.02725725248456,1.2176666259765625,-0.1413998454809188,-0.5540462136268616,0.0121747674420475,0.0246797781437635,0.0,0.0,-0.1659424025815026,-0.6881212296832397
-0.0287669189274311,1.2044984102249146,-0.1531676948070526,-0.5852733850479126,0.0143486214801669,0.0434808880090713,0.0,0.0,0.5074436814220331,-0.6565081420645111
-0.0304796211421489,1.1913936138153076,-0.1744111329317093,-0.582465410232544,0.0174507685005664,0.062048602849245,0.0,0.0,0.0815087018630587,-0.6980753810342177
-0.0322249419987201,1.1783251762390137,-0.1789557486772537,-0.5808747410774231,0.0218301340937614,0.0875949785113334,0.0,0.0,0.2194619159580264,0.7541603456007702
-0.0339723601937294,1.165036678314209,-0.1774635463953018,-0.590643584728241,0.0245168395340442,0.0537390634417533,0.0,0.0,0.314092474851968,-0.982594263244354
-0.0357531532645225,1.1516897678375244,-0.1826317012310028,-0.5932733416557312,0.0290128421038389,0.0899281129240989,0.0,0.0,-0.0669260085765854,0.8614464116210951
-0.0375235565006732,1.1376286745071411,-0.1794401705265045,-0.6249850392341614,0.0313932709395885,0.0476129539310932,0.0,0.0,0.4120539354176575,-0.9216065826393984
-0.0395888313651084,1.1236770153045654,-0.2104431837797165,-0.6201603412628174,0.0352741926908493,0.0776252821087837,0.0,0.0,0.8012701804926246,0.75620192975916
-0.0418606773018837,1.1101447343826294,-0.2290163785219192,-0.6014834046363831,0.0370765812695026,0.0360476821660995,0.0,0.0,-0.3749713984299467,-0.8020205405285323
-0.0442627891898155,1.0959057807922363,-0.2434304058551788,-0.6329202651977539,0.0402617901563644,0.0637039989233017,0.0,0.0,-0.8209007820668233,0.9250797027230538
-0.0466753020882606,1.0809721946716309,-0.2428049743175506,-0.6637648344039917,0.0418029502034187,0.0308231264352798,0.0,0.0,-0.5092099729717381,0.6362937283307649
-0.0491162315011024,1.065337896347046,-0.2444488704204559,-0.6948568820953369,0.0421502999961376,0.0069473795592784,0.0,0.0,-0.474921484451859,0.6429159662009271
-0.0515761375427246,1.0489964485168457,-0.2448956072330474,-0.7262545824050903,0.0410624183714389,-0.0217577330768108,0.0,0.0,0.8750407084191782,0.9618220156524148
-0.0540446266531944,1.0334042310714722,-0.2436462640762329,-0.6929077506065369,0.0378972627222538,-0.0633030384778976,0.0,0.0,0.5750877019833525,0.6672047156876909
-0.0566258430480957,1.0177249908447266,-0.2531872987747192,-0.6967442631721497,0.0330331362783908,-0.0972826480865478,0.0,0.0,0.7107164591622224,-0.6173916280236509
-0.0594444274902343,1.002581000328064,-0.2777458131313324,-0.6729786396026611,0.0289688911288976,-0.0812848657369613,0.0,0.0,-0.1985953963831626,-0.7237110047724201
-0.0623954758048057,0.9867199063301086,-0.2923946976661682,-0.7048891186714172,0.0262972172349691,-0.0534336157143116,0.0,0.0,0.4848592950122847,-0.8314564183792275
-0.0654801353812217,0.970995843410492,-0.307252824306488,-0.6988242864608765,0.0251023974269628,-0.0238964296877384,0.0,0.0,0.9284682698422893,0.618596357512666
-0.0685848221182823,0.9558951258659364,-0.3078790009021759,-0.6711040735244751,0.0225386749953031,-0.0512740798294544,0.0,0.0,-0.086553996923778,-0.8322032607460872
-0.0718278884887695,0.940079629421234,-0.3232608437538147,-0.7028871774673462,0.0215038023889064,-0.0206974223256111,0.0,0.0,-0.2007749492015897,-0.9576619221192164
-0.0752118080854415,0.9235615134239196,-0.3389541208744049,-0.7341508865356445,0.0220542419701814,0.0110089974477887,0.0,0.0,0.4962532490931659,-0.7628260914135852
-0.0787825584411621,0.9074848890304564,-0.3588941693305969,-0.7145454287528992,0.0238576438277959,0.0360680632293224,0.0,0.0,0.3805185598325549,-0.9503217966620638
-0.0824831947684288,0.8914615511894226,-0.3736345171928406,-0.7122099995613098,0.0273742899298667,0.0703328400850296,0.0,0.0,-0.6565033134470879,-0.6069555711095038
-0.0863104835152626,0.874733030796051,-0.3875248730182647,-0.74357670545578,0.0321150347590446,0.0948147922754287,0.0,0.0,-0.917740762233734,0.952768325805664
-0.0901166945695877,0.8572990894317627,-0.3829123675823211,-0.774893581867218,0.0343764759600162,0.045229073613882,0.0,0.0,-0.9359685182571412,0.9424214363098145
-0.0939059257507324,0.8391512036323547,-0.3788076043128967,-0.8065710663795471,0.034266859292984,-0.0021923638414591,0.0,0.0,-0.8670619130134583,0.9921877384185792
-0.0976733192801475,0.8202980756759644,-0.3741042017936706,-0.8378626108169556,0.0316638797521591,-0.052059780806303,0.0,0.0,-0.9274708032608032,0.9707484245300292
-0.1014384254813194,0.800728976726532,-0.3718543946743011,-0.8696481585502625,0.0270678400993347,-0.0919210836291313,0.0,0.0,-0.8569306135177612,0.992706298828125
-0.105188176035881,0.7804455757141113,-0.3679732084274292,-0.9013717174530028,0.0201547350734472,-0.1382621228694915,0.0,0.0,0.6981590986251831,0.9907816648483276
-0.1088671684265136,0.7601430416107178,-0.3588049113750458,-0.9022380709648132,0.0111699206754565,-0.1796962320804596,0.0,0.0,0.9420382976531982,0.9716477394104004
-0.1126957908272743,0.7406134009361267,-0.3713480830192566,-0.8679453134536743,-0.0001892790605779,-0.2271841317415237,0.0,0.0,0.6467795372009277,0.9939132928848268
-0.1166637390851974,0.7215648889541626,-0.3829123079776764,-0.8466567397117615,-0.0138913812115788,-0.2740419805049896,0.0,0.0,-0.4850979447364807,0.9996351003646852
-0.1206236854195594,0.7018069624900818,-0.3799800276756286,-0.878353476524353,-0.0297006797045469,-0.3161861896514892,0.0,0.0,0.7893186807632446,0.9925014972686768
-0.1243805885314941,0.6822605729103088,-0.35775026679039,-0.8691725134849548,-0.0474235266447067,-0.354457139968872,0.0,0.0,0.8930703401565552,0.999669075012207
-0.1281590461730957,0.6632822751998901,-0.35760697722435,-0.8442403078079224,-0.0674358755350112,-0.4002471566200256,0.0,0.0,0.6845757961273193,0.998755693435669
-0.1317696571350097,0.6442543268203735,-0.3388098776340484,-0.8468377590179443,-0.0894685089588165,-0.4406529366970062,0.0,0.0,0.9813675880432128,0.9928426742553712
-0.1352779418230056,0.6259528994560242,-0.3264482617378235,-0.8150287866592407,-0.1136531680822372,-0.4836935102939605,0.0,0.0,0.9809123277664183,0.1744499206542968
-0.1386078894138336,0.607792317867279,-0.309326708316803,-0.8091089129447937,-0.137193500995636,-0.4708065390586853,0.0,0.0,0.94585919380188,0.3841454982757568
-0.1420381516218185,0.5897793173789978,-0.3187325894832611,-0.8029928207397461,-0.1614350974559784,-0.4848324656486511,0.0,0.0,0.8702391386032104,0.7376326322555542
-0.1452148407697677,0.5723673701286316,-0.2920945882797241,-0.7768401503562927,-0.1870671957731247,-0.5126419067382812,0.0,0.0,0.9953064918518066,0.4003802537918091
-0.1481392830610275,0.5554103851318359,-0.2675791680812835,-0.7569762468338013,-0.2121057510375976,-0.5007714033126831,0.0,0.0,0.9354898929595948,0.2979212999343872
-0.1508371382951736,0.5391407608985901,-0.2452854812145233,-0.7268044948577881,-0.2369153350591659,-0.4961917996406555,0.0,0.0,0.9522005319595336,-0.9380698800086976
-0.1535455733537674,0.5235940217971802,-0.2479956448078155,-0.6948129534721375,-0.2601767182350158,-0.4652279019355774,0.0,0.0,0.5088317394256592,-0.8572932481765747
-0.1562433242797851,0.5078352093696594,-0.2486490905284881,-0.7042850255966187,-0.2818139195442199,-0.4327443242073059,0.0,0.0,0.9628794193267822,-0.8597891330718994
-0.1589583456516266,0.4926624298095703,-0.2517755925655365,-0.6782824397087097,-0.3021334111690521,-0.4063900411128998,0.0,0.0,0.8919124603271484,-0.5262858867645264
-0.1614523828029632,0.4775857031345367,-0.2310822308063507,-0.6739965677261353,-0.3211174607276916,-0.3796809315681457,0.0,0.0,0.9766407012939452,-0.9245026707649232
-0.163811594247818,0.4628706872463226,-0.2194273769855499,-0.6577542424201965,-0.3383232653141022,-0.3441159129142761,0.0,0.0,0.9636456966400146,-0.9805323481559752
-0.1661338806152343,0.4481523633003235,-0.2175871431827545,-0.6576576232910156,-0.3536780178546905,-0.3070951104164123,0.0,0.0,0.983817458152771,-0.9992830157279968
-0.1684937477111816,0.4338550567626953,-0.2229664027690887,-0.6387027502059937,-0.367409884929657,-0.2746373414993286,0.0,0.0,0.993485689163208,-0.9964395761489868
-0.1705801039934158,0.4203355610370636,-0.1975204944610595,-0.6037619113922119,-0.3791910409927368,-0.2356235682964325,0.0,0.0,0.9969172477722168,-0.9993178248405457
-0.1725623160600662,0.4065744876861572,-0.1890855133533477,-0.6140609979629517,-0.3889059722423553,-0.1942986249923706,0.0,0.0,0.997204065322876,-0.9973755478858948
-0.174240306019783,0.3935739994049072,-0.1605617254972458,-0.5797955393791199,-0.396642118692398,-0.1547228097915649,0.0,0.0,0.9770339727401732,-0.9680140614509584
-0.1759352684020996,0.3807629644870758,-0.1638057827949524,-0.5709818601608276,-0.402741014957428,-0.1219780892133712,0.0,0.0,0.99163556098938,-0.99247944355011
-0.1775416433811187,0.3684931099414825,-0.1565564572811126,-0.546493411064148,-0.407126247882843,-0.0877038016915321,0.0,0.0,0.969097375869751,-0.9797329306602478
-0.1789334267377853,0.3565610647201538,-0.136916846036911,-0.5309640169143677,-0.4095570743083954,-0.0486164055764675,0.0,0.0,0.9763612747192384,-0.937396228313446
-0.1801876127719879,0.3454668223857879,-0.1245702505111694,-0.493322879076004,-0.4104683101177215,-0.0182244293391704,0.0,0.0,0.936786651611328,-0.8488336801528931
-0.1811885833740234,0.3345798254013061,-0.1009307503700256,-0.483623206615448,-0.4095719456672668,0.017927398905158,0.0,0.0,0.9357993602752686,-0.9457399249076844
-0.1821573227643966,0.3236799240112304,-0.0993355065584182,-0.4837359189987182,-0.4069299101829529,0.0528405606746673,0.0,0.0,0.9706437587738036,-0.8971418142318726
-0.1829959899187088,0.3125871419906616,-0.0880773514509201,-0.4918072521686554,-0.402403861284256,0.09052125364542,0.0,0.0,0.9871928691864014,-0.9625104069709778
-0.1838209182024002,0.3014112114906311,-0.0883756726980209,-0.4950518012046814,-0.3960922956466675,0.1262312680482864,0.0,0.0,0.8389509916305542,-0.928662359714508
-0.1844124794006347,0.2908061146736145,-0.0667440444231033,-0.4692416191101074,-0.3879847526550293,0.1621505916118621,0.0,0.0,0.9143487215042114,-0.889686644077301
-0.184644415974617,0.2807971239089966,-0.0326120592653751,-0.4423124194145202,-0.3779579997062683,0.2005346566438675,0.0,0.0,0.2719887495040893,-0.8452376127243042
-0.1848226487636566,0.2710586190223694,-0.0287703927606344,-0.4299688339233398,-0.3663628101348877,0.2319037914276123,0.0,0.0,0.1098778247833252,-0.4856064915657043
-0.1850268393754959,0.260972648859024,-0.0309303048998117,-0.4456182718276977,-0.35527303814888,0.221796229481697,0.0,0.0,0.7243969440460205,-0.1590839624404907
-0.1849261224269867,0.2513191401958465,-0.0005723852664232,-0.4264561235904693,-0.3440868556499481,0.2237239331007003,0.0,0.0,0.5715594291687012,-0.5737512707710266
-0.1847995817661285,0.2418081611394882,0.0011680958559736,-0.4200141131877899,-0.3320668041706085,0.240401029586792,0.0,0.0,0.5028090476989746,-0.619551956653595
-0.1845841407775879,0.2325187027454376,0.0089811673387885,-0.4100320935249328,-0.3189807534217834,0.2617209255695343,0.0,0.0,-0.2187607288360595,-0.0981664657592773
-0.1843809187412262,0.2225237190723419,0.0077940486371517,-0.4415117800235748,-0.3059777617454529,0.2600603997707367,0.0,0.0,0.805020809173584,-0.3456721305847168
-0.183904081583023,0.212689533829689,0.0347381941974163,-0.4344072639942169,-0.2926119863986969,0.2673155963420868,0.0,0.0,0.5187439918518066,0.2512701749801636
-0.1833211928606033,0.2025924772024154,0.0452702417969703,-0.4462007284164428,-0.2792180776596069,0.2678783237934112,0.0,0.0,0.183927297592163,-0.2104049324989318
-0.1825969666242599,0.1921785622835159,0.0591152533888816,-0.4603541791439056,-0.2655841410160064,0.2726790308952331,0.0,0.0,0.5882259607315063,0.7964270114898682
-0.1815156936645507,0.1817670911550521,0.096170499920845,-0.4606115520000458,-0.2533651292324066,0.2443802803754806,0.0,0.0,0.6909558773040771,0.4366712570190429
-0.1801902800798416,0.1711823791265487,0.1199391111731529,-0.4683100879192352,-0.2405432164669037,0.2564381659030914,0.0,0.0,0.610901951789856,0.7202701568603516
-0.1786320656538009,0.1609458476305008,0.1446746885776519,-0.4531759619712829,-0.2292345464229583,0.2261732816696167,0.0,0.0,0.3193554878234863,-0.5789211988449097
-0.1769421547651291,0.1508988738059997,0.1566622853279113,-0.4446641504764557,-0.2167478501796722,0.2497336864471435,0.0,0.0,0.5722248554229736,0.2879129648208618
-0.1749847382307052,0.1410379260778427,0.1828639656305313,-0.436431348323822,-0.2037547081708908,0.2598628997802734,0.0,0.0,0.5905807018280029,0.0267938375473022
-0.1728501319885254,0.1309035420417785,0.2001442164182663,-0.4486400783061981,-0.1903491765260696,0.2681105434894562,0.0,0.0,0.0853667259216308,-0.1131961345672607
-0.1706641167402267,0.1205660924315452,0.2054380923509597,-0.4578043818473816,-0.177135095000267,0.2642815113067627,0.0,0.0,0.8526368141174316,-0.7466269731521606
-0.1682376861572265,0.1109489798545837,0.2277518063783645,-0.4257169067859649,-0.1622169762849807,0.2983627617359161,0.0,0.0,0.6779965162277222,-0.8069333434104919
-0.1657778769731521,0.101504385471344,0.2294963300228119,-0.4180425405502319,-0.1457525193691253,0.3292885422706604,0.0,0.0,0.6634635925292969,-0.5110570192337036
-0.163341611623764,0.0925868600606918,0.2264730483293533,-0.3947435319423675,-0.1286497116088867,0.3420564234256744,0.0,0.0,0.5401006937026978,-0.7274083495140076
-0.1607545912265777,0.0839309766888618,0.2398751527070999,-0.3831933736801147,-0.1099402830004692,0.3741888701915741,0.0,0.0,0.7918258905410767,0.1012752056121826
-0.1580979377031326,0.075794443488121,0.247087687253952,-0.3603622019290924,-0.091508075594902,0.3686442971229553,0.0,0.0,0.8100595474243164,-0.7193032503128052
-0.1554797142744064,0.0682066529989242,0.2420004904270172,-0.3361424207687378,-0.071867249906063,0.3928167521953583,0.0,0.0,0.8833541870117188,-0.4963448643684387
-0.1528051346540451,0.0607683509588241,0.2477391511201858,-0.3297626078128814,-0.0523576736450195,0.3901913166046142,0.0,0.0,0.9376401901245116,-0.5989564061164856
-0.1502401381731033,0.0536996945738792,0.2359485328197479,-0.3135715425014496,-0.032053954899311,0.4060742855072021,0.0,0.0,0.9793257713317872,-0.2007559537887573
-0.1477861404418945,0.0468776561319828,0.2256732285022735,-0.3028926253318786,-0.0125759737566113,0.389559805393219,0.0,0.0,0.9794580936431884,0.4033617973327636
-0.1451428383588791,0.0406419150531291,0.2439877241849899,-0.2770951390266418,0.0075010056607425,0.4015398919582367,0.0,0.0,0.9801962375640868,-0.0094857811927795
-0.1423755586147308,0.0343679040670394,0.2560343146324157,-0.2790757715702057,0.0279339291155338,0.408658504486084,0.0,0.0,0.981489896774292,0.6226487159729004
-0.1393428742885589,0.028778038918972,0.2833094298839569,-0.2489311844110489,0.0476537011563777,0.3943954408168793,0.0,0.0,0.8786640167236328,0.0102587938308715
-0.1363199204206466,0.0238055810332298,0.2824354171752929,-0.2217448204755783,0.0672763288021087,0.3924527764320373,0.0,0.0,0.839763879776001,-0.0880083441734314
-0.1331424713134765,0.0195706225931644,0.2971550822257995,-0.1892693191766739,0.0876604616641998,0.4076830446720123,0.0,0.0,0.834509015083313,0.038305640220642
-0.1298750936985016,0.0156062459573149,0.3057573139667511,-0.1775553375482559,0.1084664091467857,0.4161189198493957,0.0,1.0,0.9448904991149902,0.6156413555145264
-0.1267069876194,0.0128360604867339,0.3086333274841308,-0.124052956700325,0.1152120903134346,0.1331181228160858,0.0,1.0,-0.6004384160041809,0.1045426130294799
-0.1236269921064376,0.0099500752985477,0.3166437745094299,-0.1276491433382034,0.1065298616886138,-0.173772245645523,0.0,1.0,-0.6916527152061462,-0.906718134880066
-0.1206888183951377,0.0069554424844682,0.3169706463813782,-0.1316165775060653,0.0835088938474655,-0.4604791700839996,0.0,1.0,0.2596486806869507,-0.6345561146736145
-0.1180047020316124,0.0043689347803592,0.3018608391284942,-0.113426074385643,0.0503900721669197,-0.6624096632003784,0.0,1.0,0.7122912406921387,-0.8630684614181519
-0.1155840903520584,0.0020225739572197,0.2781688868999481,-0.103456899523735,0.0146979121491312,-0.7138785123825073,0.0,1.0,0.8943650722503662,-0.938000500202179
-0.1132491081953048,-8.87894639163278e-05,0.2662761807441711,-0.0938320904970169,-0.0176633317023515,-0.6472252011299133,0.0,1.0,0.826005220413208,-0.6480163335800171
-0.1108380332589149,-0.001296749105677,0.2532069981098175,-0.0538944378495216,-0.0295272096991539,-0.2371687442064285,1.0,0.0,-0.261905312538147,-0.9812602996826172
-0.1083707809448242,-0.0025473379064351,0.2381567955017089,-0.0554521717131137,-0.0210142955183982,0.1703391224145889,1.0,0.0,-0.1647465229034423,-0.9982792139053344
-0.1060760468244552,-0.0033342980314046,0.2197368443012237,-0.0348825864493846,-0.0113576436415314,0.1931995600461959,1.0,1.0,-0.6582468152046204,-0.9933746457099916
-0.1039726287126541,-0.0036845945287495,0.1999509632587433,-0.0155358063057065,-0.001057329820469,0.2060563564300537,1.0,1.0,-0.697788417339325,-0.9602972865104676
-0.102063849568367,-0.0036726498510688,0.1815840154886245,0.0005034010391682,0.0081565519794821,0.1843132525682449,1.0,1.0,-0.7924840450286865,-0.9896898865699768
