x_pos,y_pos,x_vel,y_vel,angle,ang_vel,leg_1,leg_2,main_booster,lat_booster
-0.001659870147705,1.4033799171447754,-0.1679477095603943,-0.3351214826107025,0.0017608160851523,0.0347332917153835,0.0,0.0,0.2521683249394915,0.839464535590835
-0.0033468245528638,1.3961389064788818,-0.1687096506357193,-0.3218241035938263,0.0017736874287948,0.0002583335735835,0.0,0.0,-0.8058889825379716,0.8283299552623731
-0.0050919530913233,1.3886468410491943,-0.1724249422550201,-0.3329784572124481,-0.0002924765576608,-0.0413273200392723,0.0,0.0,0.7411128454066072,0.866266934627236
-0.0070457458496093,1.381697416305542,-0.1912258416414261,-0.3088723123073578,-0.0044031948782503,-0.0822219476103782,0.0,0.0,0.7399086617563775,-0.8435779310334464
-0.0090511320158839,1.375535488128662,-0.1983022838830948,-0.2738691866397857,-0.0066061718389391,-0.0440637432038784,0.0,0.0,0.9618387696628956,-0.5406922246529673
-0.0110605238005518,1.3700942993164062,-0.2002929747104644,-0.2418370544910431,-0.0072501511313021,-0.0128807425498962,0.0,0.0,0.1613203586662572,-0.5991864254178834
-0.0132706640288233,1.3650177717208862,-0.2214868068695068,-0.2256139665842056,-0.006774510256946,0.0095136146992445,0.0,0.0,0.8906305027545929,0.6399059243489249
-0.0153807643800973,1.3608068227767944,-0.210696667432785,-0.187155932188034,-0.0070889987982809,-0.0062904781661927,0.0,0.0,0.6942270863504547,-0.945612873575552
-0.0177122112363576,1.357649564743042,-0.2346881181001663,-0.1403181254863739,-0.0055653061717748,0.030476838350296,0.0,0.0,0.7644666938787696,0.7522717532595272
-0.020120333880186,1.3554153442382812,-0.2408393919467926,-0.0992961674928665,-0.0055384109728038,0.000537994026672,0.0,0.0,0.5316725023683389,0.7893392405461173
-0.0225137714296579,1.3537625074386597,-0.2379524409770965,-0.073466345667839,-0.0069126486778259,-0.0274871531873941,0.0,0.0,-0.0723417259505994,0.8195097593403418
-0.0249744411557912,1.3518626689910889,-0.2428631782531738,-0.0844563916325569,-0.0100850965827703,-0.0634548962116241,0.0,0.0,-0.3870610219313601,0.6302129628035797
-0.0275141708552837,1.3497207164764404,-0.2492565810680389,-0.0952326282858848,-0.0147501323372125,-0.0933088809251785,0.0,0.0,-0.091274941132212,-0.9931378227435316
-0.0302627570927143,1.3473267555236816,-0.271953135728836,-0.1064311638474464,-0.0176359359174966,-0.0577212087810039,0.0,0.0,0.2213810991136562,-0.5513793580150035
-0.0330693237483501,1.3456062078475952,-0.279125839471817,-0.0764930620789527,-0.0191492307931184,-0.0302681326866149,0.0,0.0,0.7281949218753796,0.6564366131413673
-0.0358339324593544,1.3440943956375122,-0.2739637196063995,-0.0672257095575332,-0.0216108839958906,-0.0492377094924449,0.0,0.0,-0.1354838422538349,0.6133267266830941
-0.0386784560978412,1.3423432111740112,-0.2805240750312805,-0.0778874605894088,-0.0255060717463493,-0.0779111459851265,0.0,0.0,-0.5035263063065798,0.7445312299666474
-0.0415902137756347,1.3403387069702148,-0.2854560315608978,-0.0891942307353019,-0.0311597231775522,-0.1130831688642501,0.0,0.0,0.7445256380370169,-0.5863071915510321
-0.0445512756705284,1.3393634557724,-0.2919445931911468,-0.0434425398707389,-0.0352787934243679,-0.0823890641331672,0.0,0.0,-0.9279137183668686,-0.7992616798998243
-0.0477235801517963,1.338146686553955,-0.314972311258316,-0.0541312210261821,-0.0375150144100189,-0.0447281897068023,0.0,0.0,0.030483808737062,-0.6937636616161865
-0.0509815216064453,1.3373914957046509,-0.3250992596149444,-0.0335839614272117,-0.0382025353610515,-0.0137517657130956,0.0,0.0,-0.5392835822251625,0.5132519597536285
-0.0543378815054893,1.3363862037658691,-0.3339877724647522,-0.0447216778993606,-0.0398340374231338,-0.0326329730451107,0.0,0.0,-0.9540453530716896,0.9374988406776804
-0.0577438361942768,1.3351298570632937,-0.3367601931095123,-0.0559480935335159,-0.0436273477971553,-0.075872965157032,0.0,0.0,-0.4979086000758075,-0.7270935881836109
-0.06134033203125,1.3336241245269775,-0.3572142720222473,-0.0669941529631614,-0.0460336282849311,-0.048129878938198,0.0,0.0,-0.3196728943495515,-0.9558237654810526
-0.0651695281267166,1.3318828344345093,-0.3829808831214905,-0.0773886665701866,-0.0459759831428527,0.0011530421907082,0.0,0.0,0.1341360326931482,-0.5357413116074703
-0.0692690834403038,1.3306130170822144,-0.4110074043273926,-0.0564035736024379,-0.0449377186596393,0.0207654014229774,0.0,0.0,-0.7102347179023085,0.7185044358218697
-0.0734506621956825,1.3290990591049194,-0.4178819060325622,-0.0672882571816444,-0.0452143661677837,-0.0055330246686935,0.0,0.0,0.9434094812337186,-0.6605846677135574
-0.0779445618391037,1.3288170099258425,-0.4501357078552246,-0.0125172240659594,-0.0444752797484397,0.0147819835692644,0.0,0.0,-0.99799219510001,-0.7004873122113547
-0.0826448425650596,1.3283005952835083,-0.4726190567016601,-0.0228783003985881,-0.0419104024767875,0.0512974560260772,0.0,0.0,0.8673234826836043,-0.5926088889279792
-0.0875332802534103,1.3283679485321045,-0.4926959872245788,0.0030932766385376,-0.0381038561463356,0.0761307552456855,0.0,0.0,0.0449555616269188,-0.6759226593071953
-0.0925799384713172,1.3290033340454102,-0.5100313425064087,0.0283714272081851,-0.0328047685325145,0.1059817671775817,0.0,0.0,-0.5857667922973633,-0.1090902686119079
-0.0977653488516807,1.329394817352295,-0.5240434408187866,0.0175002515316009,-0.0273698307573795,0.1086987480521202,0.0,0.0,-0.3714559078216553,0.5466568470001221
-0.103051945567131,0.0,-0.5333487391471863,0.0067715630866587,-0.0227352976799011,0.0926906690001487,0.0,0.0,-0.6256678104400635,0.5409687757492065
-0.1084386855363845,1.329445242881775,-0.5425339341163635,-0.0043903258629143,-0.0189247522503137,0.0762108117341995,0.0,0.0,-0.5480302572250366,0.7624673843383789
-0.1139016151428222,1.329100489616394,-0.5487178564071655,-0.0152879655361175,-0.0165322963148355,0.0478492751717567,0.0,0.0,-0.766324520111084,-0.0977153778076171
-0.1195025444030761,1.3285114765167236,-0.5626562237739563,-0.0261574480682611,-0.0140003189444541,0.050639558583498,0.0,0.0,-0.5646787881851196,0.3698368072509765
-0.1252411901950836,1.327677845954895,-0.5765702724456787,-0.0370270200073719,-0.0113288322463631,0.0534297600388526,0.0,0.0,-0.536444902420044,0.4153105020523071
-0.1311173439025879,1.3265998363494873,-0.5904573798179626,-0.0478966832160949,-0.0085181975737214,0.0562125854194164,0.0,0.0,-0.5910090208053589,0.7789384126663208
-0.1370728462934494,1.3252850770950315,-0.5970805883407593,-0.0584228783845901,-0.0070167235098779,0.0300297252833843,0.0,0.0,-0.4639875888824463,0.4340522289276123
-0.1431653052568435,1.3237258195877075,-0.6109048128128052,-0.0692921876907348,-0.005377905908972,0.0327762737870216,0.0,0.0,-0.8488360643386841,0.5126192569732666
-0.1493608504533767,1.321926236152649,-0.6205032467842102,-0.0799845308065414,-0.0044417907483875,0.0187222883105278,0.0,0.0,-0.2615972757339477,0.6256017684936523
-0.1556327790021896,1.319880127906799,-0.6267660856246948,-0.0909387841820716,-0.0048706466332077,-0.008576943539083,0.0,0.0,-0.7306436896324158,0.5314021110534668
-0.161991685628891,1.3175833225250244,-0.6343435645103455,-0.1020889431238174,-0.0063948584720492,-0.0304844863712787,0.0,0.0,-0.6898850202560425,0.5942645072937012
-0.1684310883283615,1.315040111541748,-0.6411253213882446,-0.1130416244268417,-0.009166257455945,-0.0554279088973999,0.0,0.0,-0.7932350039482117,0.7401965856552124
-0.174950510263443,1.312243103981018,-0.6478787660598755,-0.1243433132767677,-0.013183950446546,-0.0803536474704742,0.0,0.0,-0.8171451091766357,0.4493141174316406
-0.181604191660881,1.309201717376709,-0.6614217162132263,-0.1352137476205825,-0.017078198492527,-0.0778849571943283,0.0,0.0,-0.5450087785720825,0.1871784925460815
-0.1883914023637771,1.3059159517288208,-0.6749006509780884,-0.1460840404033661,-0.0208525378257036,-0.0754866302013397,0.0,0.0,-0.2295621633529663,0.8145842552185059
-0.1952589005231857,1.302392840385437,-0.6817193031311035,-0.1566569507122039,-0.0258278790861368,-0.0995067879557609,0.0,0.0,-0.719359278678894,0.7923105955123901
-0.2022096663713455,1.298630714416504,-0.6889064311981201,-0.1673228144645691,-0.0319193936884403,-0.1218302696943283,0.0,0.0,-0.7739847302436829,0.906179428100586
-0.2092227041721344,1.2946187257766724,-0.6934813261032104,-0.1784956455230713,-0.0396429933607578,-0.1544720232486724,0.0,0.0,-0.8072680234909058,0.4800127744674682
-0.2163662016391754,1.2903629541397097,-0.7066357135772705,-0.1893694996833801,-0.0472640618681907,-0.1524212807416916,0.0,0.0,-0.7593154907226562,0.814009428024292
-0.2235808372497558,1.2858648300170898,-0.7123696208000183,-0.2002323120832443,-0.0562516748905181,-0.1797522157430648,0.0,0.0,-0.8288049697875977,0.4853028059005737
-0.2309238910675048,1.281123161315918,-0.7253117561340332,-0.2111078351736068,-0.0651473924517631,-0.177914410829544,0.0,0.0,-0.4790384173393249,0.5920627117156982
-0.2383470088243484,1.2761387825012207,-0.7322109341621399,-0.221997395157814,-0.0751407071948051,-0.1998662799596786,0.0,0.0,-0.5244154334068298,0.5644841194152832
-0.2458406388759613,1.2709029912948608,-0.7379368543624878,-0.2333186119794845,-0.0864569768309593,-0.2263253629207611,0.0,0.0,-0.5536690950393677,0.8212254047393799
-0.2534046173095703,1.265413761138916,-0.7436650991439819,-0.2447548657655716,-0.0990774929523468,-0.2524104118347168,0.0,0.0,-0.7541106939315796,0.8955211639404297
-0.2610095143318176,1.2596782445907593,-0.7457645535469055,-0.2559504210948944,-0.113692432641983,-0.2922988533973694,0.0,0.0,-0.4474574327468872,0.729046106338501
-0.2686649858951568,1.2536922693252563,-0.7491123080253601,-0.2673790752887726,-0.1300344318151474,-0.3268398940563202,0.0,0.0,-0.8560168147087097,0.9271440505981444
-0.2763571739196777,1.247458815574646,-0.7507911920547485,-0.2787436246871948,-0.1484011560678482,-0.3673349320888519,0.0,0.0,-0.8725748658180237,0.7161210775375366
-0.2841169834136963,1.240980863571167,-0.7564042806625366,-0.2899778187274933,-0.1679708510637283,-0.391394168138504,0.0,0.0,-0.904552400112152,0.8161923885345459
-0.2919235229492187,1.234239101409912,-0.7594066858291626,-0.3021689653396606,-0.1892818808555603,-0.4262205064296722,0.0,0.0,-0.7355649471282959,0.7701022624969482
-0.2997921109199524,1.2272487878799438,-0.7644486427307129,-0.3137001693248749,-0.2118498533964157,-0.451359361410141,0.0,0.0,-0.8875860571861267,0.3611645698547363
-0.307770311832428,1.220020413398743,-0.7755386233329773,-0.3246108591556549,-0.2343975752592086,-0.4509544968605041,0.0,0.0,-0.6892363429069519,0.2577255964279175
-0.3158552050590515,1.2125542163848877,-0.7863417863845825,-0.3355213701725006,-0.2569339573383331,-0.4507283270359039,0.0,0.0,-0.8141056299209595,0.2965699434280395
-0.3240436911582947,1.2048498392105105,-0.7968345284461975,-0.3464318215847015,-0.2794682681560516,-0.4506862163543701,0.0,0.0,-0.7869366407394409,-0.3415930867195129
-0.33233243227005,1.196907639503479,-0.8069917559623718,-0.3573422133922577,-0.3020099103450775,-0.450833261013031,0.0,0.0,-0.6173214912414551,-0.4703333973884582
-0.3407177329063415,1.1887272596359253,-0.8167873620986938,-0.3682526350021362,-0.3245686292648315,-0.4511741697788238,0.0,0.0,-0.3246278166770935,-0.4685957431793213
-0.3491958081722259,1.1803090572357178,-0.826194167137146,-0.3791631460189819,-0.3471543192863464,-0.4517135620117187,0.0,0.0,-0.1364189982414245,-0.3385519981384277
-0.357762336730957,1.1716525554656982,-0.8351842761039734,,-0.3697770833969116,-0.4524555206298828,0.0,0.0,0.020027756690979,-0.5707242488861084
-0.366410493850708,1.1632239818572998,-0.8445042371749878,-0.380007266998291,-0.3913614749908447,-0.431687980890274,0.0,0.0,0.0940552949905395,-0.6276243329048157
-0.3750750422477722,1.155247926712036,-0.847403883934021,-0.3598724603652954,-0.411788135766983,-0.4085324704647064,0.0,0.0,0.4132857322692871,-0.8280872106552124
-0.3836331963539123,1.1477866172790527,-0.8384734392166138,-0.3367733359336853,-0.4305309057235718,-0.3748553991317749,0.0,0.0,0.1624195575714111,-0.8262644410133362
-0.3921639919281006,1.1410093307495115,-0.8373535871505737,-0.3061225116252899,-0.4476732909679413,-0.3428477644920349,0.0,0.0,0.6539769172668457,-0.3493614196777344
-0.400442361831665,1.1347253322601318,-0.8124675750732422,-0.2842980325222015,-0.4645657539367676,-0.3378492593765259,0.0,0.0,0.6441020965576172,-0.4546329379081726
-0.4086346626281738,1.1287453174591064,-0.8037603497505188,-0.2710415720939636,-0.481714516878128,-0.3429750800132751,0.0,0.0,0.8019840717315674,-0.1598650217056274
-0.41664919257164,1.1229445934295654,-0.7863262891769409,-0.2631741762161255,-0.4986321032047272,-0.3383517861366272,0.0,0.0,0.8026425838470459,-0.3950616121292114
-0.4245627522468567,1.117416262626648,-0.7761200666427612,-0.2513384222984314,-0.5158318877220154,-0.3439956605434418,0.0,0.0,0.892885684967041,-0.6360446810722351
-0.432117611169815,1.112882375717163,-0.7414384484291077,-0.2069016396999359,-0.531835675239563,-0.3200761973857879,0.0,0.0,0.7555506229400635,-0.0124374628067016
-0.43919238448143,1.109163761138916,-0.6937718391418457,-0.1707300841808319,-0.5475903153419495,-0.3150942027568817,0.0,0.0,0.9365875720977784,0.4079642295837402
-0.4459064602851867,1.1065342426300049,-0.6571821570396423,-0.1227420195937156,-0.5641083121299744,-0.3303601741790771,0.0,0.0,0.8467096090316772,0.4848527908325195
-0.452563464641571,1.1042498350143433,-0.6509205102920532,-0.1078668162226677,-0.5814605355262756,-0.3470439612865448,0.0,0.0,0.5763723850250244,0.3437120914459228
-0.4587855935096741,1.1026394367218018,-0.60760098695755,-0.0780899375677108,-0.5988101959228516,-0.3469934463500976,0.0,0.0,0.7910158634185791,0.3201947212219238
-0.4647511541843414,1.1016550064086914,-0.5815402269363403,-0.0506997369229793,-0.6168534755706787,-0.36086505651474,0.0,0.0,0.7146016359329224,-0.128547191619873
-0.4703532755374908,1.1013414859771729,-0.5450137853622437,-0.0212570428848266,-0.6353551149368286,-0.370032787322998,0.0,0.0,0.6983771324157715,-0.0946232676506042
-0.4755285680294037,1.101667404174805,-0.5023284554481506,0.0068741808645427,-0.6541183590888977,-0.3752645552158355,0.0,0.0,0.5403425693511963,-0.190638780593872
-0.4802922308444977,1.1023255586624146,-0.4615031778812408,0.0215242970734834,-0.6727193593978882,-0.3720203340053558,0.0,0.0,0.1476303339004516,-0.4600714445114136
-0.4848707616329193,1.1030081510543823,-0.4430966377258301,0.022366464138031,-0.6914668083190918,-0.3749485611915588,0.0,0.0,0.1618765592575073,-0.7637441158294678
-0.4892286360263824,1.1037598848342896,-0.4224025309085846,0.0259022824466228,-0.7087303996086121,-0.3452712893486023,0.0,0.0,0.4131062030792236,-0.7010234594345093
-0.4931671023368835,1.1047449111938477,-0.3818148672580719,0.0367987304925918,-0.7244797348976135,-0.3149878084659576,0.0,0.0,0.2041540145874023,-0.7227224111557007
-0.496830552816391,1.105750322341919,-0.3555518090724945,0.0382300578057765,-0.7387829422950745,-0.2860646545886993,0.0,0.0,0.1873990297317505,-0.5527234673500061
-0.5001142024993896,1.1071642637252808,-0.3184414505958557,0.0567457228899002,-0.7521090507507324,-0.2665225863456726,0.0,0.0,0.3168747425079345,-0.4897793531417846
-0.5029118657112122,1.108974814414978,-0.2698583900928497,0.0742140635848045,-0.7655817270278931,-0.2694535851478576,0.0,0.0,0.192446231842041,-0.6187546253204346
-0.5052767992019653,1.1110129356384275,-0.2276118546724319,0.0848344266414642,-0.7778013944625854,-0.2443939000368118,0.0,0.0,-0.0839306712150573,-0.7583557963371277
-0.5076144337654114,1.1128557920455933,-0.2258018255233764,0.076629027724266,-0.7888892292976379,-0.2217572480440139,0.0,0.0,-0.1245156526565551,0.0490546226501464
-0.5098813772201538,1.1144578456878662,-0.2186268866062164,0.0657359659671783,-0.800255298614502,-0.2273216694593429,0.0,0.0,-0.265697717666626,-0.2734855413436889
-0.5120728611946106,1.1158194541931152,-0.2109710723161697,0.0548421368002891,-0.8119046092033386,-0.2329857051372528,0.0,0.0,-0.1433274745941162,-0.6122846007347107
-0.5142179727554321,1.1169933080673218,-0.2072337120771408,0.047006469219923,-0.8224011659622192,-0.2099307477474212,0.0,0.0,0.0604667663574218,-0.6569741368293762
-0.5159975290298462,1.1186058521270752,-0.1715424954891204,0.067036360502243,-0.8317478895187378,-0.1869342029094696,0.0,0.0,-0.384763240814209,-0.1232293844223022
-0.5176891088485718,1.119977951049805,-0.1626053154468536,0.0561438761651515,-0.8413901925086975,-0.1928464919328689,0.0,0.0,-0.277971088886261,-0.2096467614173889
-0.5192888975143433,1.121108889579773,-0.153296411037445,0.0452507697045803,-0.8513314127922058,-0.1988241970539093,0.0,0.0,-0.5155189633369446,-0.5990235805511475
-0.5208255648612976,1.1220608949661257,-0.1479010879993438,0.0378885082900524,-0.8600090146064758,-0.1735518425703048,0.0,0.0,-0.1249249577522277,-0.8502023816108704
-0.5223096609115601,1.122847080230713,-0.1438210606575012,0.0313717275857925,-0.8669678568840027,-0.1391770541667938,0.0,0.0,0.184768795967102,-0.103218674659729
-0.5234178304672241,1.1239066123962402,-0.1058191433548927,0.0431387163698673,-0.8746200203895569,-0.1530430018901825,0.0,0.0,-0.6024141907691956,0.0457590818405151
-0.5244219303131104,1.124725341796875,-0.0952601805329322,0.0322465375065803,-0.8825801610946655,-0.1592030823230743,0.0,0.0,-0.6449841856956482,-0.0425804257392883
-0.5253193974494934,1.1253032684326172,-0.0844447463750839,0.021353917196393,-0.8908495306968689,-0.1653879284858703,0.0,0.0,-0.3930807709693908,0.1829969882965088
-0.526107668876648,1.1256402730941772,-0.0733923688530922,0.0104608749970793,-0.8994289636611938,-0.1715889722108841,0.0,0.0,-0.0832411050796508,-0.0315304994583129
-0.5267846584320068,1.1257365942001345,-0.0621213316917419,-0.0004325674090068,-0.9083188772201538,-0.1777976751327514,0.0,0.0,-0.53917396068573,0.1517984867095947
-0.5273481607437134,1.1255922317504885,-0.0506487265229225,-0.0113263903185725,-0.917519211769104,-0.18400539457798,0.0,0.0,-0.295150876045227,-0.5784200429916382
-0.527813196182251,1.125251293182373,-0.0413107648491859,-0.0197086445987224,-0.92599356174469,-0.169487327337265,0.0,0.0,-0.540706992149353,-0.5351383090019226
-0.5281826257705688,1.1247124671936035,-0.0322782918810844,-0.0281179342418909,-0.9336905479431152,-0.1539400219917297,0.0,0.0,-0.594228982925415,0.4291403293609619
-0.5284335613250732,1.123932719230652,-0.0202883463352918,-0.0390108563005924,-0.9416954517364502,-0.1600982248783111,0.0,0.0,-0.3178073167800903,-0.6138719320297241
-0.5285862684249878,1.1229662895202637,-0.0111026782542467,-0.0467945672571659,-0.9487097859382628,-0.1402861475944519,0.0,0.0,-0.3331060409545898,-0.6805029511451721
-0.5286456346511841,1.1218116283416748,-0.0024426896125078,-0.0545902736485004,-0.9546573162078856,-0.1189505085349083,0.0,0.0,-0.4083716869354248,-0.5490771532058716
-0.5286111235618591,1.1204779148101809,0.00619374262169,-0.0618729628622531,-0.9593601822853088,-0.0940575078129768,0.0,0.0,-0.6547079086303711,-0.7051708698272705
-0.5284915566444397,1.1189818382263184,0.0137013019993901,-0.0681535527110099,-0.9623627662658693,-0.0600513108074665,0.0,0.0,-0.7887155413627625,-0.6520180702209473
-0.5282770395278931,1.1173075437545776,0.0224416684359312,-0.0753685161471366,-0.9640803933143616,-0.0343527011573314,0.0,0.0,-0.6772840619087219,-0.6829463839530945
-0.5279662609100342,1.1154522895812988,0.0313624255359172,-0.0827203243970871,-0.9645619988441468,-0.0096320305019617,0.0,0.0,-0.6482824087142944,-0.734210729598999
-0.5275577306747437,1.1134058237075806,0.0405211374163627,-0.0906380265951156,-0.9639971256256104,0.0112974802032113,0.0,0.0,-0.3109167218208313,-0.3982159495353699
-0.5270222425460815,1.1111180782318115,0.0533932223916053,-0.1015269383788108,-0.9637182354927064,0.0055782478302717,0.0,0.0,-0.4336913824081421,-0.7097528576850891
-0.5263845920562744,1.1086561679840088,0.0628395825624466,-0.108527161180973,-0.9621153473854064,0.0320572182536125,0.0,0.0,-0.7292231321334839,-0.0279890298843383
