x_pos,y_pos,x_vel,y_vel,angle,ang_vel,leg_1,leg_2,main_booster,lat_booster
-0.0014930724864825,1.402955412864685,-0.150686889886856,-0.3539830446243286,0.001230041263625,0.0242242626845836,0.0,0.0,-0.1914042234420776,0.5199506282806396
-0.0029090880416333,1.3943424224853516,-0.1411496847867965,-0.3827961087226867,0.0007892430294305,-0.0088162627071142,0.0,0.0,-0.1812358498573303,0.061535358428955
-0.0042900084517896,1.3850599527359009,-0.1371074467897415,-0.4125520586967468,-0.0001750186493154,-0.0192871335893869,0.0,0.0,0.256854772567749,0.0874940156936645
-0.0057242391631007,1.3756786584854126,-0.1414805352687835,-0.4169472157955169,-0.0020993675570935,-0.0384902693331241,0.0,0.0,-0.0223085284233093,0.5637059211730957
-0.0070655820891261,1.365630030632019,-0.1302929073572158,-0.4466160237789154,-0.005903557408601,-0.0760912075638771,0.0,0.0,0.4571529626846313,0.6128034591674805
-0.0081830974668264,1.3556287288665771,-0.1064474582672119,-0.444527804851532,-0.0111452164128422,-0.1048427000641822,0.0,0.0,-0.1187228560447692,0.4277259111404419
-0.009258079342544,1.344959020614624,-0.1016610041260719,-0.4742684364318847,-0.0169162712991237,-0.1154317259788513,0.0,0.0,0.2018918991088867,-0.5553155541419983
-0.0102051738649606,1.3343262672424316,-0.0897025913000106,-0.4726267755031585,-0.0218726135790348,-0.0991358384490013,0.0,0.0,0.0972241163253784,-0.2549461722373962
-0.0111027713865041,1.3238588571548462,-0.0841718688607215,-0.4653153419494629,-0.0273999702185392,-0.1105571836233139,0.0,0.0,-0.6921381950378418,-0.8745636940002441
-0.0120224952697753,1.3127310276031494,-0.0876030921936035,-0.4946549236774444,-0.031724490225315,-0.0864984169602394,0.0,0.0,-0.4762563705444336,-0.3968751430511474
-0.0128943445160985,1.300934910774231,-0.0822777971625328,-0.5243869423866272,-0.0365843921899795,-0.0972068607807159,0.0,0.0,-0.4499809741973877,-0.8407261371612549
-0.0137758255004882,1.2884716987609863,-0.0841782167553901,-0.5540209412574768,-0.0405082441866397,-0.0784843266010284,0.0,0.0,0.1040495634078979,-0.8861534595489502
-0.0145560260862112,1.276043176651001,-0.0753172263503074,-0.5524571537971497,-0.043179340660572,-0.0534268133342266,0.0,0.0,-0.3214129209518432,-0.8088806867599487
-0.0153420446440577,1.2629419565200806,-0.0767941996455192,-0.5823286175727844,-0.0449689477682113,-0.0357954986393451,0.0,0.0,-0.8470996022224426,-0.6967077255249023
-0.016118336468935,1.249182105064392,-0.076341226696968,-0.6115826964378357,-0.0462370850145816,-0.0253650490194559,0.0,0.0,-0.4048205614089966,-0.6349614262580872
-0.0168832782655954,1.2347490787506104,-0.0757167637348175,-0.6414916515350342,-0.0470148473978042,-0.0155565785244107,0.0,0.0,0.2790439128875732,-0.8229036927223206
-0.0175072662532329,1.2206454277038574,-0.0628455132246017,-0.6268196105957031,-0.0465699844062328,0.0088978316634893,0.0,0.0,-0.3037667274475097,-0.6713234186172485
-0.0181181915104389,1.2058699131011963,-0.0620195269584655,-0.6566577553749084,-0.0456495620310306,0.0184103958308696,0.0,0.0,-0.7443327903747559,-0.8554862141609192
-0.0187311172485351,1.1904380321502686,-0.0631215125322341,-0.6858139038085938,-0.0438437424600124,0.0361194647848606,0.0,0.0,-0.5230807662010193,-0.548872172832489
-0.0193384177982807,1.1743402481079102,-0.0632560551166534,-0.7153805494308472,-0.041343905031681,0.0500013530254364,0.0,0.0,-0.6646566987037659,-0.7842356562614441
-0.0199390407651662,1.1575827598571775,-0.0632869005203247,-0.744691014289856,-0.0381574109196662,0.0637356340885162,0.0,0.0,-0.4300508499145508,0.13236665725708
-0.0204839706420898,1.1401567459106443,-0.0571657046675682,-0.7744262218475342,-0.0355139374732971,0.0528741590678691,0.0,0.0,-0.0984151363372802,0.0745632648468017
-0.020972728729248,1.122061848640442,-0.0510007143020629,-0.8041612505912781,-0.0334130115807056,0.0420223549008369,0.0,0.0,0.4807496070861816,-0.4130927324295044
-0.0213329307734966,1.1037148237228394,-0.0378958471119403,-0.8153878450393677,-0.0315641611814498,0.0369803979992866,0.0,0.0,0.3591924905776977,-0.3794890642166137
-0.0217363350093364,1.0854980945587158,-0.0411150939762592,-0.809610903263092,-0.030799938365817,0.0152857732027769,0.0,0.0,0.5511736869812012,-0.9468974471092224
-0.0222922321408987,1.0675981044769287,-0.0575443133711814,-0.7955197691917419,-0.0288709979504346,0.0385790020227432,0.0,0.0,0.1394423246383667,-0.1523070335388183
-0.022773552685976,1.0497806072235107,-0.0495386347174644,-0.7918697595596313,-0.0274715330451726,0.0279893465340137,0.0,0.0,0.4958550930023193,-0.6295767426490784
-0.0233551021665334,1.032428503036499,-0.0600170716643333,-0.7711697220802307,-0.0256358366459608,0.0367140620946884,0.0,0.0,0.1652377843856811,-0.7301334738731384
-0.0240267757326364,1.015239119529724,-0.0698355287313461,-0.7639245390892029,-0.0229986123740673,0.0527444891631603,0.0,0.0,0.2767789363861084,-0.1893683671951294
-0.0246476177126169,0.9979466795921326,-0.0641364082694053,-0.7685196995735168,-0.0209755301475524,0.0404616631567478,0.0,0.0,0.5274670124053955,0.1657218933105468
-0.0251762382686138,0.9811589121818542,-0.0544461421668529,-0.7461032271385193,-0.0194103214889764,0.0313040949404239,0.0,0.0,-0.0949035882949829,0.0271950960159301
-0.0256461147218942,0.963702380657196,-0.048030748963356,-0.7758350968360901,-0.0183818005025386,0.0205707214772701,0.0,0.0,-0.0270441770553588,-0.3749874830245971
-0.0260570533573627,0.9455769658088684,-0.0415992736816406,-0.8055669069290161,-0.0178885105997324,0.0098657794296741,0.0,0.0,-0.1357254981994629,-0.2998574376106262
-0.0264089591801166,0.9267827868461608,-0.0351532436907291,-0.8352985978126526,-0.0179288983345031,-0.0008075220393948,0.0,0.0,0.6060349941253662,-0.3195741176605224
-0.0266749374568462,0.9082337617874146,-0.0260921623557806,-0.8244067430496216,-0.0184279903769493,-0.0099819991737604,0.0,0.0,0.4774796962738037,-0.015447199344635
-0.0268528945744037,0.8900299072265625,-0.01682292483747,-0.8090728521347046,-0.0193817727267742,-0.0190757177770137,0.0,0.0,0.1241626739501953,-0.5951442718505859
-0.0270323753356933,0.8716206550598145,-0.0176111720502376,-0.8181888461112976,-0.019711036235094,-0.0065851919353008,0.0,0.0,0.1492916345596313,0.261786937713623
-0.027115250006318,0.8533361554145813,-0.0075513189658522,-0.8126593232154846,-0.0204432103782892,-0.0146434856578707,0.0,0.0,-0.0297881364822387,0.0210863351821899
-0.0271385200321674,0.8343827128410339,-0.0010519011411815,-0.8423911333084106,-0.0216981917619705,-0.0250994898378849,0.0,0.0,0.1574821472167968,-0.2924383878707886
-0.0270729064941406,0.8153985738754272,0.0082669639959931,-0.8437654972076416,-0.0233814772218465,-0.0336657240986824,0.0,0.0,0.0616539716720581,-0.4056301116943359
-0.0270042419433593,0.7964983582496643,0.0094135431572794,-0.8400489687919617,-0.0258989036083221,-0.0503485277295112,0.0,0.0,0.3231927156448364,-0.8006617426872253
-0.0268163681030273,0.7775545120239258,0.0201163701713085,-0.8419737219810486,-0.0272064860910177,-0.0261517204344272,0.0,0.0,0.2941524982452392,-0.4959901571273803
-0.0264855381101369,0.758307158946991,0.0345601215958595,-0.8554661870002747,-0.0286714509129524,-0.0292993281036615,0.0,0.0,-0.1308690309524536,-0.1841894388198852
-0.0260947234928607,0.738391101360321,0.0410874225199222,-0.8851985335350037,-0.0306416526436805,-0.0394041053950786,0.0,0.0,0.2137782573699951,-0.4320451021194458
-0.0256668087095022,0.7181320786476135,0.0454365089535713,-0.9004560708999634,-0.0332506261765956,-0.0521794632077217,0.0,0.0,0.0351999998092651,-0.7992112636566162
-0.0252013206481933,0.6975116729736328,0.0480639412999153,-0.9164987206459044,-0.0347546115517616,-0.0300795845687389,0.0,0.0,0.5898849964141846,-0.3883001804351806
-0.024601936340332,0.6768640875816345,0.0616859197616577,-0.9177080988883972,-0.0364770777523517,-0.0344495363533496,0.0,0.0,0.0980610847473144,-0.5315765738487244
-0.0240462310612201,0.6563910841941833,0.05688301846385,-0.9099426865577698,-0.0377736762166023,-0.0259318407624959,0.0,0.0,0.6018019914627075,-0.8923360705375671
-0.0236155502498149,0.6364148259162903,0.0432697907090187,-0.8878387808799744,-0.0379755683243274,-0.0040378184057772,0.0,0.0,0.6922519207000732,-0.6560442447662354
-0.0231800079345703,0.6165531873703003,0.0429763682186603,-0.8827250599861145,-0.0373973734676837,0.0115639138966798,0.0,0.0,0.9108915328979492,-0.5640029907226562
-0.0225271228700876,0.5970052480697632,0.0635199844837188,-0.8687504529953003,-0.0356594920158386,0.0347577147185802,0.0,0.0,0.8314940929412842,-0.4438432455062866
-0.0218482967466115,0.5780163407325745,0.0668849796056747,-0.8439280986785889,-0.0346707217395305,0.0197753086686134,0.0,0.0,0.4631073474884033,-0.8422549366950989
-0.0210528373718261,0.5589420199394226,0.0771495103836059,-0.8476925492286682,-0.0323081314563751,0.047251783311367,0.0,0.0,0.5264427661895752,-0.8637712597846985
-0.020237635821104,0.5403152108192444,0.0778285712003707,-0.8277856707572937,-0.0286565478891134,0.073031410574913,0.0,0.0,0.7274191379547119,-0.7261426448822021
-0.0192343704402446,0.5217766165733337,0.0952247530221939,-0.8238483667373657,-0.0236213840544223,0.1007033735513687,0.0,0.0,0.6855649948120117,-0.5995261073112488
-0.0183112137019634,0.5032932162284851,0.0866870433092117,-0.8214061260223389,-0.018067792057991,0.1110719889402389,0.0,0.0,0.7606966495513916,-0.6141960024833679
-0.0172524452209472,0.4854193329811096,0.0991421118378639,-0.7943274974822998,-0.0114187858998775,0.1329801231622696,0.0,0.0,0.8102667331695557,-0.8381273150444031
-0.0160240177065134,0.4679874777793884,0.1144894957542419,-0.7747089266777039,-0.0031709687318652,0.1649560183286667,0.0,0.0,0.743049144744873,0.4637782573699951
-0.0146527290344238,0.4511902034282684,0.1287742555141449,-0.7465524673461914,0.0050706225447356,0.1648320257663726,0.0,0.0,0.3256980180740356,-0.1545320749282837
-0.0132845882326364,0.4346700012683868,0.1291153728961944,-0.7342739105224609,0.0126743754372,0.1520750075578689,0.0,0.0,0.0890951156616211,-0.2641926407814026
-0.0118244169279932,0.4178484082221985,0.1384966671466827,-0.747709333896637,0.020095806568861,0.148428589105606,0.0,0.0,0.4431570768356323,-0.4934881925582886
-0.0104027744382619,0.401274710893631,0.1353828161954879,-0.7367174625396729,0.0267914310097694,0.1339127570390701,0.0,0.0,0.8018039464950562,-0.2777304649353027
-0.0088001247495412,0.3848837018013,0.1531579792499542,-0.7286339402198792,0.0338083952665329,0.1403393000364303,0.0,0.0,0.904083251953125,-0.4901125431060791
-0.0071327211335301,0.3688846528530121,0.1597959846258163,-0.7112420201301575,0.040669098496437,0.1372140944004058,0.0,0.0,0.7529165744781494,-0.4203097820281982
-0.0054127695038914,0.3528550565242767,0.165279820561409,-0.7126243710517883,0.0473071262240409,0.1327605545520782,0.0,0.0,0.9099905490875244,-0.1769413352012634
-0.0038064003456383,0.3371704220771789,0.1548302471637725,-0.6972878575325012,0.0530438832938671,0.1147350072860717,0.0,0.0,0.953378438949585,-0.3982338309288025
-0.0021666525863111,0.3223347961902618,0.1582715511322021,-0.6595733165740967,0.0586814768612384,0.1127518415451049,0.0,0.0,0.7390071153640747,-0.396925151348114
-0.0003970146062783,0.3072991371154785,0.1710555702447891,-0.6684978008270264,0.0645256489515304,0.116883099079132,0.0,0.0,0.7603490352630615,-0.6626362800598145
0.0013541221851482,0.2929620444774627,0.1679748892784118,-0.6375288367271423,0.071592167019844,0.1413303017616272,0.0,0.0,0.7917190790176392,-0.2976472973823547
0.0030284882523119,0.2787134945392608,0.1609244793653488,-0.63359135389328,0.0780424028635025,0.1290046125650406,0.0,0.0,0.9347403049468994,-0.6212942600250244
0.0045389174483716,0.2649657726287842,0.1437224447727203,-0.6114099621772766,0.0853016301989555,0.1451845616102218,0.0,0.0,0.9121934175491332,0.0571920871734619
0.0060853003524243,0.2516307830810547,0.1472393125295639,-0.5931053161621094,0.0926321968436241,0.1466113179922104,0.0,0.0,0.9610135555267334,0.0983173847198486
0.0074483873322606,0.2391034215688705,0.1296989768743515,-0.5571969151496887,0.0991878509521484,0.1311128884553909,0.0,0.0,0.7053613662719727,0.5397772789001465
0.0089372638612985,0.2268156111240387,0.1431844532489776,-0.546513557434082,0.104845143854618,0.1131458729505539,0.0,0.0,0.6922240257263184,-0.0670222640037536
0.0104114534333348,0.2144514173269271,0.1418925523757934,-0.5499178767204285,0.1103267446160316,0.1096321567893028,0.0,0.0,0.8379549980163574,0.0903230905532836
0.0119824409484863,0.2019703537225723,0.1512132585048675,-0.5551601052284241,0.1161679103970527,0.1168233975768089,0.0,0.0,0.9594956636428832,-0.1723519563674926
0.0135307312011718,0.1894140988588333,0.1490933001041412,-0.5585126280784607,0.1218705400824546,0.1140528172254562,0.0,0.0,0.974875807762146,-0.2559714317321777
0.0150149343535304,0.1775992959737777,0.1426716446876526,-0.5255832076072693,0.1275864988565445,0.1143190488219261,0.0,0.0,0.9299670457839966,0.0696659088134765
0.0165313724428415,0.1665518879890442,0.1453879177570343,-0.4915474355220794,0.1338187307119369,0.1246447414159774,0.0,0.0,0.8428168296813965,-0.2974976301193237
0.0178627017885446,0.1561663746833801,0.1273498684167862,-0.4621093571186065,0.1395791918039322,0.11520916223526,0.0,0.0,0.9437196254730223,-0.6360524892807007
0.018989372998476,0.1456404477357864,0.1059117093682289,-0.4684646427631378,0.1463131308555603,0.1346786469221115,0.0,0.0,0.9166942834854126,0.0517888069152832
0.0200883857905864,0.1358177810907364,0.1027836054563522,-0.4372819066047668,0.1534153968095779,0.1420454978942871,0.0,0.0,0.9390889406204224,-0.6223606467247009
0.020969009026885,0.1262879222631454,0.079884298145771,-0.4244094789028168,0.1615951359272003,0.1635948419570922,0.0,0.0,0.879901647567749,-0.6521936058998108
0.0216669086366891,0.1172066032886505,0.0602906569838523,-0.4046760201454162,0.1711022704839706,0.1901427805423736,0.0,0.0,0.6788034439086914,0.6820611953735352
0.0223415382206439,0.1085219010710716,0.0591607615351676,-0.3869638442993164,0.1794235110282898,0.1664247363805771,0.0,0.0,0.7764921188354492,0.2256159782409668
0.0230542179197073,0.1001182198524475,0.0623086094856262,-0.374603658914566,0.188408762216568,0.1797050386667251,0.0,0.0,0.6743314266204834,0.8882019519805908
0.0238548275083303,0.0915769189596176,0.0725990533828735,-0.3805789053440094,0.1959056556224823,0.1499383002519607,0.0,0.0,0.9299330711364746,0.62664794921875
0.0247824676334857,0.0831039249897003,0.0859999507665634,-0.3774895668029785,0.2027183771133422,0.136254534125328,0.0,0.0,0.9447715282440186,-0.1515980958938598
0.0257991794496774,0.075003370642662,0.0938455015420913,-0.36111781001091,0.2106115221977234,0.1578625738620758,0.0,0.0,0.8648685216903687,0.6355676651000977
0.0269914623349905,0.0669524520635604,0.1119641065597534,-0.358874499797821,0.217955470085144,0.1468788236379623,0.0,0.0,0.9696266651153564,0.3598717451095581
0.0280361175537109,0.0595436915755271,0.0969284400343895,-0.3304114937782287,0.2255756258964538,0.1524027436971664,0.0,0.0,0.9448479413986206,0.5650531053543091
0.0290127750486135,0.052805196493864,0.0908474698662757,-0.3005478084087372,0.2324841320514679,0.1381700783967971,0.0,0.0,0.9032723903656006,0.582339882850647
0.0300553329288959,0.0465919114649295,0.097876101732254,-0.2771684825420379,0.2389697581529617,0.1297124177217483,0.0,0.0,0.7594646215438843,0.6317936182022095
0.0312260631471872,0.0402702651917934,0.1113193184137344,-0.2819072902202606,0.2448129504919052,0.1168638318777084,0.0,0.0,0.8344230651855469,0.6297967433929443
0.0322940833866596,0.0340975373983383,0.1021169647574424,-0.2751304507255554,0.249581292271614,0.0953669473528862,0.0,0.0,0.9868278503417968,0.6238493919372559
0.0333024971187114,0.0288311820477247,0.0967597737908363,-0.2347595393657684,0.2537406384944916,0.0831866711378097,0.0,0.0,0.939223289489746,-0.0237631201744079
0.0341206565499305,0.0247937068343162,0.0953810811042785,-0.1771381199359893,0.2400121390819549,-0.2744664847850799,0.0,1.0,0.9932782649993896,0.2474684715270996
0.0344547256827354,0.0222104173153638,0.0655233934521675,-0.1099063903093338,0.207461342215538,-0.6510430574417114,0.0,1.0,0.9078434705734252,-0.168704867362976
0.0346580520272254,0.0206082444638013,0.0622581243515014,-0.0658768266439437,0.1653093844652176,-0.8430794477462769,0.0,1.0,0.5611432790756226,-0.912049412727356
0.03464937210083,0.0193428136408329,0.0377993360161781,-0.0523935407400131,0.1267154365777969,-0.771879255771637,0.0,0.0,-0.9721745252609252,-0.8675178289413452
0.0346022620797157,0.0174189191311597,0.0317788161337375,-0.082804836332798,0.0904751718044281,-0.7248061895370483,0.0,0.0,-0.6226811408996582,-0.8895848393440247
0.0345203392207622,0.0148301217705011,0.026152241975069,-0.1133351475000381,0.0564756505191326,-0.6799908876419067,0.0,0.0,0.490725040435791,-0.9511731266975404
0.0342490188777446,0.0123840905725955,0.005084887612611,-0.1078068688511848,0.0246493499726057,-0.6365264654159546,0.0,0.0,0.6208137273788452,-0.9667873978614808
0.0337559692561626,0.0100410552695393,-0.0192223638296127,-0.103905513882637,-0.0050483616068959,-0.5939546823501587,0.0,0.0,0.4012385606765747,-0.9409216046333312
0.0333261489868164,0.0079595185816288,-0.0152982678264379,-0.0928353816270828,-0.0323756970465183,-0.5465466976165771,0.0,0.0,0.4709432125091553,-0.9679355025291444
0.0329218879342079,0.0057025291025638,-0.0152039779350161,-0.101041629910469,-0.0573019795119762,-0.498525857925415,0.0,0.0,0.7678554058074951,-0.8854846954345703
0.0327842719852924,0.0047458028420805,-0.0105944192036986,-0.0426502302289009,-0.060412660241127,-0.0621847324073314,1.0,0.0,-0.5676509141921997,0.3703023195266723
0.0327558517456054,0.0037893271073698,-0.0180156547576189,-0.0419756323099136,-0.0453983284533023,0.3003212511539459,1.0,0.0,-0.568196713924408,0.2921525239944458
0.0328025817871093,0.0026393390726298,-0.0233927927911281,-0.0504996255040168,-0.0176516324281692,0.5549702644348145,1.0,0.0,-0.2398634552955627,-0.179383099079132
0.0328287109732627,0.0007981634116731,-0.0242459289729595,-0.081728272140026,0.008861350826919,0.5302597284317017,1.0,0.0,0.1188215017318725,0.134764552116394
0.0327543243765831,-0.0001628899626666,-0.0149809913709759,-0.0427815243601799,0.0162862073630094,0.1484632790088653,0.0,1.0,-0.5346375107765198,-0.0938087105751037
0.032564926892519,-0.0011177206179127,-0.0074604181572794,-0.042360384017229,0.0049232109449803,-0.2272932231426239,0.0,1.0,-0.5127703547477722,0.0493797063827514
0.0324213020503521,-0.0016710066702216,-0.009790739044547,-0.0246256850659847,0.0005144500173628,-0.0880507379770279,1.0,1.0,-0.5228118896484375,0.0355288982391357
0.0323309898376464,-0.0017578387632966,-0.0086742024868726,-0.0038774155545979,0.0001928353885887,-0.0064141750335693,1.0,1.0,-0.7495244145393372,0.1601707935333252
0.0322840698063373,-0.0015569948591291,-0.0029589857440441,0.0089179556816816,-0.0014744820073246,-0.0332819446921348,1.0,1.0,-0.8847253322601318,-0.1558998823165893
0.0322895050048828,-0.0015531325479969,0.0005779666244052,0.0001577046205056,-0.0014858611393719,-0.0001850566623033,1.0,1.0,-0.883087158203125,-0.0731308460235595
0.0323005691170692,-0.0015542769106104,0.0011578070698305,-5.957465327810496e-05,-0.0015043314779177,-0.0003288644657004,1.0,1.0,-0.8658096194267273,-0.211979329586029
0.0323059074580669,-0.0015541338361799,0.0005594849353656,-1.7885914758153376e-06,-0.0015139203751459,-0.0001611450425116,1.0,1.0,-0.946219265460968,-0.1195947527885437
0.0323057174682617,-0.0015539908781647,-1.29502823256189e-05,3.914896353762743e-07,-0.0015148150268942,3.646111963462317e-06,1.0,1.0,-0.9327213764190674,-0.0409902930259704
0.0323037132620811,-0.0015539192827418,-0.000189140002476,-7.182958938756201e-08,-0.0015129164094105,5.419964509201236e-05,1.0,1.0,-0.5369116067886353,-0.0103558301925659
0.0323076248168945,-0.0014753842260688,-0.0003354928339831,0.0034975693561136,-0.0007845424115657,0.0145865473896265,1.0,1.0,-0.5633413195610046,0.0392341613769531
