x_pos,y_pos,x_vel,y_vel,angle,ang_vel,leg_1,leg_2,main_booster,lat_booster
-0.001528263092041,1.403366208076477,-0.1548086702823639,-0.3357292413711548,0.0017772063147276,0.0350579097867012,0.0,0.0,-0.2210679054260254,0.9765568971633912
-0.0029775619041174,1.3955726623535156,-0.144553542137146,-0.3463793694972992,0.0014105099253356,-0.0073338625952601,0.0,0.0,-0.2508723735809326,0.7120223045349121
-0.0043621063232421,1.3875153064727783,-0.1363390386104583,-0.3581033647060394,-0.0006811048951931,-0.041836068034172,0.0,0.0,0.1624400615692138,-0.0039590597152709
-0.0058334348723292,1.3797270059585571,-0.1445960104465484,-0.3461459577083587,-0.0031836053822189,-0.0500546172261238,0.0,0.0,-0.4404563903808594,0.2653261423110962
-0.007307338528335,1.371680498123169,-0.1448462307453155,-0.3576293289661407,-0.0056985304690897,-0.0503034368157386,0.0,0.0,0.0350301265716552,0.4076112508773803
-0.0086954114958643,1.363885521888733,-0.1366650164127349,-0.3464547991752624,-0.0078181205317378,-0.0423957593739032,0.0,0.0,-0.3140609264373779,0.0564495325088501
-0.0100852008908987,1.3558322191238403,-0.1368068158626556,-0.3579380810260772,-0.009956425987184,-0.0427701584994792,0.0,0.0,-0.0948834419250488,0.636902928352356
-0.0114132883027195,1.3475217819213867,-0.1290429532527923,-0.3693849146366119,-0.0136888930574059,-0.0746559426188469,0.0,0.0,-0.1752687692642212,0.4854850769042969
-0.0127418516203761,1.338953137397766,-0.1290634572505951,-0.3808647692203522,-0.0174438636749982,-0.0751063972711563,0.0,0.0,-0.2276937365531921,0.3272324800491333
-0.0140702249482274,1.3301265239715576,-0.1290241926908493,-0.3923448324203491,-0.0212245695292949,-0.0756207555532455,0.0,0.0,-0.1732885837554931,0.1897481679916381
-0.0153980255126953,1.321041703224182,-0.1289239227771759,-0.4038248062133789,-0.0250325947999954,-0.076167531311512,0.0,0.0,-0.2487080097198486,0.3183696269989013
-0.0167243964970111,1.3116989135742188,-0.1287610977888107,-0.4153048694133758,-0.0288696568459272,-0.0767483562231063,0.0,0.0,-0.2429090738296508,0.1981480121612548
-0.018048858270049,1.3020981550216677,-0.1285349428653717,-0.4267850816249847,-0.0327372699975967,-0.0773593336343765,0.0,0.0,-0.3156713247299194,0.2448680400848388
-0.0193706508725881,1.2922391891479492,-0.1282446235418319,-0.4382653832435608,-0.0366367101669311,-0.0779957324266433,0.0,0.0,0.6543772220611572,0.9314396381378174
-0.0204270370304584,1.2833566665649414,-0.1000272408127784,-0.3949269950389862,-0.042182769626379,-0.1109315007925033,0.0,0.0,-0.8510487675666809,-0.4542396664619446
-0.0214794166386127,1.2742160558700562,-0.0996026992797851,-0.4064189195632934,-0.0477618351578712,-0.1115912795066833,0.0,0.0,-0.936044454574585,0.217383861541748
-0.0225272178649902,1.264817714691162,-0.0991120785474777,-0.4178967177867889,-0.0533751361072063,-0.1122761145234108,0.0,0.0,-0.9551453590393066,-0.3086400032043457
-0.0235697738826274,1.2551616430282593,-0.0985558405518531,-0.4293781518936157,-0.0590228140354156,-0.1129638701677322,0.0,0.0,-0.9740839004516602,-0.1827098131179809
-0.0246065147221088,1.2452476024627686,-0.0979338064789772,-0.4408603012561798,-0.0647050142288208,-0.1136543154716491,0.0,0.0,-0.8179618716239929,0.5301473140716553
-0.0256004333496093,1.235072135925293,-0.0927052721381187,-0.4525505304336548,-0.0713346973061561,-0.1326055228710174,0.0,0.0,-0.9479756355285645,-0.8426021933555603
-0.026639174669981,1.2246506214141846,-0.0984892770648002,-0.4634482264518738,-0.0766754075884819,-0.1068235486745834,0.0,0.0,-0.933759868144989,0.0153601169586181
-0.0276700966060161,1.2139711380004885,-0.0976735427975654,-0.4749308824539184,-0.0820505693554878,-0.1075129061937332,0.0,0.0,-0.8612229228019714,-0.7901839017868042
-0.0287414547055959,1.2030385732650757,-0.1029283627867698,-0.4861260652542114,-0.086224690079689,-0.0834898501634597,0.0,0.0,-0.3724435567855835,-0.7760292291641235
-0.029858399182558,1.1918463706970217,-0.1088204234838485,-0.4975990355014801,-0.0890679508447647,-0.0568701215088367,0.0,0.0,0.0979253053665161,0.5966660976409912
-0.0309854503720998,1.181044578552246,-0.1084601134061813,-0.4803413450717926,-0.093288354575634,-0.0844159051775932,0.0,0.0,-0.9338603615760804,-0.1975046992301941
-0.0321036353707313,1.169963240623474,-0.1075299233198165,-0.4927752614021301,-0.0975382477045059,-0.0849975198507309,0.0,0.0,-0.6830583810806274,-0.2766762971878052
-0.0332109443843364,1.1586240530014038,-0.1064191609621048,-0.504254162311554,-0.1018169000744819,-0.0855729877948761,0.0,0.0,-0.6655275821685791,-0.8249949216842651
-0.0343852043151855,1.1470472812652588,-0.1151106134057045,-0.5146787762641907,-0.1041174307465553,-0.046010784804821,0.0,0.0,-0.3178752660751343,-0.8702604174613953
-0.0356303229928016,1.1352325677871704,-0.1242925152182579,-0.5251104235649109,-0.1043286994099617,-0.0042253215797245,0.0,0.0,-0.5405195355415344,0.4046734571456909
-0.0368627533316612,1.1231597661972046,-0.1230114549398422,-0.5365878343582153,-0.1045626252889633,-0.0046785892918705,0.0,0.0,0.2166216373443603,-0.5553143620491028
-0.0380452163517475,1.111769437789917,-0.1191320791840553,-0.5061713457107544,-0.1036777347326278,0.0176975708454847,0.0,0.0,-0.7287285327911377,0.3670798540115356
-0.0392139442265033,1.1001211404800415,-0.1177458763122558,-0.5176487565040588,-0.1028104722499847,0.0173451453447341,0.0,0.0,-0.7072189450263977,0.4583102464675903
-0.0403684601187706,1.08821439743042,-0.1163097396492958,-0.5291260480880737,-0.1019580364227294,0.0170487258583307,0.0,0.0,-0.6753906011581421,-0.1829770803451538
-0.0415081977844238,1.0760494470596311,-0.1148255467414856,-0.5406034588813782,-0.1011174693703651,0.0168115030974149,0.0,0.0,-0.9623571634292604,0.4168139696121216
-0.042632769793272,1.0636262893676758,-0.1132951602339744,-0.5520807504653931,-0.1002855971455574,0.0166372247040271,0.0,0.0,-0.57655268907547,0.7971199750900269
-0.0436766631901264,1.0509412288665771,-0.1035669669508934,-0.5638380646705627,-0.1010943353176117,-0.0161749608814716,0.0,0.0,-0.4041886329650879,-0.7748693227767944
-0.0447682365775108,1.03800368309021,-0.1099650487303733,-0.5749504566192627,-0.1002941951155662,0.0160027779638767,0.0,0.0,-0.5995088815689087,0.6668751239776611
-0.0457871444523334,1.0248045921325684,-0.1012677326798439,-0.5866705775260925,-0.1009042784571647,-0.0122017795220017,0.0,0.0,-0.8026556968688965,-0.1596742868423462
-0.0467889793217182,1.0113472938537598,-0.099571481347084,-0.5981476306915283,-0.1015089973807334,-0.0120942741632461,0.0,0.0,-0.7744408845901489,-0.6490479707717896
-0.0478219017386436,0.9976398348808287,-0.1039437428116798,-0.6091731786727905,-0.1008707955479621,0.0127641735598444,0.0,0.0,-0.903994619846344,-0.1496850252151489
-0.0488370880484581,0.9836742281913756,-0.1021757572889328,-0.6206502914428711,-0.1002193614840507,0.0130285425111651,0.0,0.0,-0.92724347114563,-0.1518746614456176
-0.0498341545462608,0.9694503545761108,-0.1003746017813682,-0.6321274638175964,-0.0995506197214126,0.013374644331634,0.0,0.0,-0.9618788957595824,0.5995690822601318
-0.0507582649588584,0.9549533724784852,-0.0917054191231727,-0.644355833530426,-0.1002510264515876,-0.0140080619603395,0.0,0.0,-0.4686281085014343,-0.5582228302955627
-0.0517002120614051,0.940202534198761,-0.0944565758109092,-0.6555745005607605,-0.0999966338276863,0.0050880638882517,0.0,0.0,-0.9938424825668336,-0.2529990673065185
-0.0526229850947856,0.92519348859787,-0.0925661772489547,-0.6670514345169067,-0.0997121259570121,0.0056905285455286,0.0,0.0,-0.8294708728790283,0.3012235164642334
-0.0535262115299701,0.909926176071167,-0.0906492918729782,-0.678528368473053,-0.0993930622935295,0.0063813710585236,0.0,0.0,-0.9096132516860962,0.2539563179016113
-0.0544096939265728,0.8944005370140076,-0.0887074545025825,-0.6900051832199097,-0.0990349724888801,0.0071617006324231,0.0,0.0,-0.3544903397560119,-0.5393456816673279
-0.0553231239318847,0.8786300420761108,-0.0930282026529312,-0.7008069157600403,-0.0973553657531738,0.0335920751094818,0.0,0.0,-0.7972843647003174,-0.1296692490577697
-0.056216049939394,0.8626009821891785,-0.0910408943891525,-0.7122840285301208,-0.0956276580691337,0.0345540158450603,0.0,0.0,-0.6083542108535767,0.0236523151397705
-0.0570884719491004,0.8463137745857239,-0.0890328735113143,-0.7237609624862671,-0.093847282230854,0.0356075428426265,0.0,0.0,-0.4914236068725586,0.0703271627426147
-0.0579399093985557,0.8297683596611023,-0.087005466222763,-0.7352378964424133,-0.0920096412301063,0.0367529578506946,0.0,0.0,0.0013022422790527,-0.4627161026000976
-0.0587640777230262,0.813636302947998,-0.0841682031750679,-0.7168713212013245,-0.0902715548872947,0.0347614251077175,0.0,0.0,-0.3760173320770263,-0.0963160395622253
-0.0595668777823448,0.7972460985183716,-0.0821056589484214,-0.7283481955528259,-0.088467039167881,0.0360904410481452,0.0,0.0,-0.6608072519302368,-0.3247237205505371
-0.0603482238948345,0.7805976271629333,-0.0800272896885871,-0.7398250699043274,-0.0865914970636367,0.0375108420848846,0.0,0.0,-0.1065205335617065,-0.0660129189491272
-0.0611078254878521,0.763690710067749,-0.0779341384768486,-0.7513019442558289,-0.0846403911709785,0.0390219613909721,0.0,0.0,0.208901047706604,-0.1422954797744751
-0.0618862137198448,0.747049868106842,-0.0795516073703765,-0.7394999861717224,-0.0829326510429382,0.0341545939445495,0.0,0.0,-0.1781016588211059,-0.3092315793037414
-0.0626423805952072,0.7301506400108337,-0.0774319171905517,-0.7509767413139343,-0.0811404064297676,0.0358447544276714,0.0,0.0,0.6218982934951782,-0.027903139591217
-0.0631875991821289,0.7139665484428406,-0.0570610277354717,-0.7191566824913025,-0.078632578253746,0.0501565262675285,0.0,0.0,-0.35505211353302,0.0379247665405273
-0.0637105926871299,0.6975242495536804,-0.054918497800827,-0.7306337952613831,-0.0760315284132957,0.052020888775587,0.0,0.0,-0.3119591474533081,0.5577905178070068
-0.0641722679138183,0.6808240413665771,-0.0479167737066745,-0.7421401143074036,-0.0743020996451377,0.03458833694458,0.0,0.0,-0.312434434890747,0.1454672813415527
-0.0646113380789756,0.6638656258583069,-0.0457546636462211,-0.7536168694496155,-0.0724710598587989,0.036620870232582,0.0,0.0,-0.0121312737464904,-0.3509846329689026
-0.065027616918087,0.6466488242149353,-0.0435839369893074,-0.7650936245918274,-0.0705343186855316,0.0387347899377346,0.0,0.0,0.3020318746566772,0.3786340951919555
-0.0652951225638389,0.6297733783721924,-0.0292768571525812,-0.7499020099639893,-0.0680376812815666,0.0499327220022678,0.0,0.0,0.2514618635177612,0.5363532304763794
-0.0654461830854415,0.6133291125297546,-0.0167101789265871,-0.7307902574539185,-0.0664544552564621,0.0316645726561546,0.0,0.0,-0.1651526093482971,0.1458194255828857
-0.0655741691589355,0.5966265201568604,-0.01451769284904,-0.7422669529914856,-0.0647539719939231,0.0340098366141319,0.0,0.0,0.4219397306442261,-0.4719363451004028
-0.065752312541008,0.5804372429847717,-0.0191599372774362,-0.7194651961326599,-0.0634254813194274,0.026569789275527,0.0,0.0,-0.1487081050872802,-0.5915625095367432
-0.0659519210457801,0.5640008449554443,-0.0225801244378089,-0.7303964495658875,-0.0608354695141315,0.0517999231815338,0.0,0.0,-0.0324025154113769,-0.1129435300827026
-0.0661281570792198,0.54730623960495,-0.0203715022653341,-0.7418736219406128,-0.0581177473068237,0.0543545186519622,0.0,0.0,0.5428380966186523,0.3307501077651977
-0.0662094131112098,0.5315449833869934,-0.0111235063523054,-0.7003867030143738,-0.0551523454487323,0.059308011084795,0.0,0.0,-0.0458496212959289,-0.1789256334304809
-0.0662671104073524,0.5155255198478699,-0.0089068934321403,-0.7118640542030334,-0.0520529262721538,0.0619883462786674,0.0,0.0,0.2844460010528564,0.3762450218200683
-0.0663451179862022,0.5000420212745667,-0.0107417050749063,-0.6880578994750977,-0.0491468496620655,0.058121632784605,0.0,0.0,0.1732674837112426,0.6648457050323486
-0.0663005858659744,0.4849579334259033,0.0026681772433221,-0.6703464388847351,-0.0473903529345989,0.0351302959024906,0.0,0.0,-0.6166352033615112,-0.3637820482254028
-0.0662324875593185,0.4696155488491058,0.0048930272459983,-0.6818234324455261,-0.045491524040699,0.0379765108227729,0.0,0.0,0.2610576152801513,0.0088573694229125
-0.0660644546151161,0.4546716213226318,0.0144657837226986,-0.664107620716095,-0.0431885458528995,0.046059887856245,0.0,0.0,-0.2430454492568969,0.0596479177474975
-0.0658727660775184,0.4394693672657013,0.0166936852037906,-0.6755847334861755,-0.0407385118305683,0.0490005016326904,0.0,0.0,0.8021132946014404,0.2225909233093261
-0.0655687302350997,0.4245357513427734,0.0274317655712366,-0.6636351943016052,-0.0377962104976177,0.0588456504046916,0.0,0.0,0.8549695014953613,0.233607530593872
-0.0652618408203125,0.4099172949790954,0.0277229063212871,-0.649638831615448,-0.0348669998347759,0.0585842952132225,0.0,0.0,0.8926645517349243,0.0852425098419189
-0.0649090781807899,0.3964032530784607,0.0322094038128852,-0.6005537509918213,-0.0318293087184429,0.0607534348964691,0.0,0.0,0.6327188014984131,0.6821165084838867
-0.064366340637207,0.3838398456573486,0.0522257275879383,-0.558333158493042,-0.0298077724874019,0.0404307320713996,0.0,0.0,-0.4062243700027466,0.6719207763671875
-0.0637563690543174,0.3710229694843292,0.0598929710686206,-0.5696181058883667,-0.0287171732634305,0.0218117609620094,0.0,0.0,0.3335378170013428,0.1628931760787964
-0.0632192641496658,0.3583531379699707,0.0529372580349445,-0.5630882978439331,-0.0279527120292186,0.0152893830090761,0.0,0.0,0.4898161888122558,-0.1903693675994873
-0.0626019462943077,0.3464923501014709,0.0606218166649341,-0.527126133441925,-0.0268619582056999,0.0218150038272142,0.0,0.0,-0.4615882635116577,-0.0810564756393432
-0.06196079403162,0.334373265504837,0.0628432184457779,-0.5386031866073608,-0.025612348690629,0.0249923355877399,0.0,0.0,-0.1682920455932617,-0.4758871793746948
-0.0612959861755371,0.3219959735870361,0.0650616064667701,-0.5500801205635071,-0.0242032706737518,0.0281816367059946,0.0,0.0,0.2552917003631592,-0.2135894298553466
-0.0606035217642784,0.3101574182510376,0.0676979944109916,-0.5261332392692566,-0.0226763617247343,0.0305384453386068,0.0,0.0,-0.0645452737808227,-0.3573362827301025
-0.059887409210205,0.2980605959892273,0.0699086636304855,-0.5376101732254028,-0.0209893677383661,0.0337398424744606,0.0,0.0,0.5259134769439697,-0.0198267698287963
-0.0591190345585346,0.2861790657043457,0.0748653262853622,-0.5280443429946899,-0.0190410036593675,0.038967378437519,0.0,0.0,0.1691808700561523,-0.4541522264480591
-0.0582558624446392,0.2744647264480591,0.0838655680418014,-0.5206081867218018,-0.0166290178894996,0.0482396967709064,0.0,0.0,0.1319667100906372,-0.3457920551300049
-0.0572619438171386,0.263076514005661,0.0963188707828521,-0.5061120986938477,-0.0135911917313933,0.0607567429542541,0.0,0.0,0.1018685102462768,0.1499285697937011
-0.0561478622257709,0.251822829246521,0.1077258810400962,-0.500136137008667,-0.0099643636494874,0.0725365430116653,0.0,0.0,-0.0909764170646667,-0.4560286402702331
-0.0550104156136512,0.2403109818696975,0.1099063158035278,-0.5116142630577087,-0.0061794607900083,0.0756983533501625,0.0,0.0,0.0313246250152587,-0.4603830575942993
-0.0538274757564067,0.229251280426979,0.1142136827111244,-0.4915330111980438,-0.0021481446456164,0.0806259661912918,0.0,0.0,0.0399138927459716,-0.8687728643417358
-0.0525964722037315,0.2185666412115097,0.1170984879136085,-0.4748757779598236,0.0037717518862336,0.1183981522917747,0.0,0.0,0.0265834331512451,-0.5929373502731323
-0.0513195991516113,0.20792256295681,0.1202491074800491,-0.4731080234050751,0.0111174304038286,0.1469136327505111,0.0,0.0,0.1666756868362426,-0.5634843111038208
-0.050109289586544,0.1975573599338531,0.1123747006058693,-0.460760623216629,0.0196622423827648,0.170896291732788,0.0,0.0,0.1776560544967651,-0.1292295455932617
-0.0488279350101947,0.1878592818975448,0.1190472468733787,-0.4311767518520355,0.0286365691572427,0.1794863641262054,0.0,0.0,-0.4932267069816589,-0.4004377126693725
-0.0475239753723144,0.1779039949178695,0.1211647167801857,-0.4426610171794891,0.0377590805292129,0.1824501603841781,0.0,0.0,-0.071427583694458,-0.0067247152328491
-0.0461974143981933,0.1676915735006332,0.1232679709792137,-0.4541456401348114,0.0470272786915302,0.185364231467247,0.0,0.0,0.1943016052246093,-0.1808762550354004
-0.0448095314204692,0.1579825431108474,0.1289765536785125,-0.4318488836288452,0.0567294880747795,0.1940442621707916,0.0,0.0,-0.0754736065864563,0.2512321472167969
-0.0433995239436626,0.1480166763067245,0.1310475468635559,-0.4433345794677734,0.0665716677904129,0.1968434154987335,0.0,0.0,0.5684347152709961,-0.132392942905426
-0.0420933738350868,0.1388500332832336,0.1209044307470321,-0.4078668653964996,0.0761872306466102,0.1923113018274307,0.0,0.0,-0.0284421443939209,0.3954701423645019
-0.0407654754817485,0.1294264644384384,0.1229370683431625,-0.4193525910377502,0.085935965180397,0.194974884390831,0.0,0.0,0.7803758382797241,0.0098013877868652
-0.0395972244441509,0.1206984147429466,0.1074489802122116,-0.388478010892868,0.0952325239777565,0.1859312802553177,0.0,0.0,-0.008379578590393,0.4004197120666504
-0.0384078994393348,0.1117134392261505,0.1094361767172813,-0.39996337890625,0.1046544164419174,0.1884377002716064,0.0,0.0,0.531566858291626,0.1309883594512939
-0.0371697433292865,0.1034808456897735,0.113749124109745,-0.366628497838974,0.1146514937281608,0.1999413222074508,0.0,0.0,-0.0304775238037109,0.6113955974578857
-0.0358577743172645,0.094995267689228,0.1223695650696754,-0.3778407275676727,0.1234227940440177,0.175426036119461,0.0,0.0,0.8390352725982666,-0.4387335777282715
-0.0344701781868934,0.087546594440937,0.129093512892723,-0.3318776488304138,0.1330524086952209,0.1925922930240631,0.0,0.0,0.1173450946807861,-0.1669887900352478
-0.0331478118896484,0.0806183442473411,0.1225420013070106,-0.3088147342205047,0.142716646194458,0.193284660577774,0.0,0.0,0.0840115547180175,-0.1907492876052856
-0.0317932143807411,0.0742858946323394,0.1252376139163971,-0.2824569940567016,0.1529146432876587,0.2039597779512405,0.0,0.0,-0.1927089095115661,0.0186713933944702
-0.0304199215024709,0.067696675658226,0.1270350068807602,-0.2939439713954925,0.1632075607776641,0.2058582603931427,0.0,0.0,0.6256760358810425,0.7804572582244873
-0.0291064269840717,0.0620605312287807,0.1225451081991195,-0.2514834403991699,0.1720077395439148,0.176003485918045,0.0,0.0,-0.3208915591239929,-0.3589478731155395
-0.0277751926332712,0.0561673268675804,0.1242559701204299,-0.2629681825637817,0.1808903962373733,0.1776535809040069,0.0,0.0,0.693622350692749,-0.2222416996955871
-0.0264301300048828,0.0507329553365707,0.1252091228961944,-0.2426868379116058,0.1902309656143188,0.186811476945877,0.0,0.0,0.1525812149047851,-0.4396988749504089
-0.0252335555851459,0.0456528514623642,0.1106789335608482,-0.2269593924283981,0.1992456763982772,0.1802946627140045,0.0,0.0,0.4478421211242676,0.0552263259887695
-0.0242206566035747,0.040945466607809,0.092797040939331,-0.210379883646965,0.2078016996383667,0.1711207032203674,0.0,0.0,0.2354373931884765,0.3409878015518188
-0.0232952125370502,0.0365947112441062,0.0840952768921852,-0.1945765912532806,0.2163373827934265,0.1707139909267425,0.0,0.0,0.0125753879547119,-0.3334279060363769
-0.0224096290767192,0.0324709042906761,0.079991802573204,-0.1845551431179046,0.2249930649995803,0.1731137633323669,0.0,0.0,-0.1890071034431457,0.4674317836761474
-0.0215101242065429,0.0280899628996849,0.0813557282090187,-0.1960391849279403,0.2336870580911636,0.1738805919885635,0.0,0.0,0.1021183729171752,-0.1885827779769897
-0.0206400863826274,0.0241401772946119,0.0781149566173553,-0.176983505487442,0.2427118569612503,0.1804963648319244,0.0,1.0,0.9780876636505128,0.9878406524658204
-0.0199628826230764,0.0222961045801639,0.077999010682106,-0.0807633101940155,0.2311482727527618,-0.2328978031873703,0.0,1.0,0.3545410633087158,0.1888648271560669
