x_pos,y_pos,x_vel,y_vel,angle,ang_vel,leg_1,leg_2,main_booster,lat_booster
-0.0015213012229651,1.4032939672470093,-0.1549611687660217,-0.3389506340026855,0.0025311044882982,0.0499856434762477,0.0,0.0,-0.4539623260498047,0.8927233219146729
-0.0029644011519849,1.3953559398651123,-0.1456262171268463,-0.352800577878952,0.003835727693513,0.0260958261787891,0.0,0.0,-0.4345378279685974,0.9287290573120116
-0.0043159485794603,1.3870805501937866,-0.1349683105945587,-0.3677959740161896,0.0036440335679799,-0.0038337763398885,0.0,0.0,-0.0526261925697326,-0.3643423318862915
-0.0056653022766113,1.378474473953247,-0.135491132736206,-0.3824996054172516,0.0041935173794627,0.0109905153512954,0.0,0.0,0.3178056478500366,0.7514021396636963
-0.006840038113296,1.370321273803711,-0.1174467429518699,-0.3623668849468231,0.0041646799072623,-0.0005766233080066,0.0,0.0,-0.3920258283615112,0.7080636024475098
-0.0079442979767918,1.3618364334106443,-0.1093923225998878,-0.3770950436592102,0.0031435696873813,-0.0204241294413805,0.0,0.0,-0.7164343595504761,-0.3328548669815063
-0.009046459570527,1.3530211448669434,-0.109911024570465,-0.3917923271656036,0.0028427217621356,-0.0060178162530064,0.0,0.0,-0.4988337755203247,0.583204984664917
-0.0100893024355173,1.3438769578933716,-0.1032451167702674,-0.4064034521579742,0.0018122140318155,-0.0206118896603584,0.0,0.0,-0.4253953695297241,0.476017951965332
-0.0111302379518747,1.334402084350586,-0.1037590876221656,-0.4211039245128631,0.0014849608996883,-0.0065458766184747,0.0,0.0,-0.6610937714576721,0.8193943500518799
-0.0121048931032419,1.3246018886566162,-0.0961856991052627,-0.4355691373348236,0.0002290689153596,-0.0251200534403324,0.0,0.0,-0.591213047504425,0.5911852121353149
-0.0130243301391601,1.3144712448120115,-0.0900122299790382,-0.4502499401569366,-0.001682391972281,-0.0382327362895011,0.0,0.0,-0.8626542091369629,0.4158992767333984
-0.0139419557526707,1.3040099143981934,-0.0905110836029052,-0.4649505317211151,-0.0029222664888948,-0.0247997101396322,0.0,0.0,-0.7007955312728882,0.0430676937103271
-0.0148579599335789,1.293217658996582,-0.0910063311457634,-0.4796508550643921,-0.0035033745225518,-0.0116234114393591,0.0,0.0,0.2241969108581543,0.4517383575439453
-0.0157201774418354,1.28248929977417,-0.0865305811166763,-0.4768185615539551,-0.0031973358709365,0.0061213006265461,0.0,0.0,-0.631023108959198,-0.2553863525390625
-0.0165807716548442,1.2714300155639648,-0.0870158374309539,-0.4915221035480499,-0.0022601624950766,0.0187455061823129,0.0,0.0,-0.7733572721481323,0.3309159278869629
-0.0174399372190237,1.260040044784546,-0.0874942019581794,-0.5062217712402344,-0.0007069944404065,0.0310662724077701,0.0,0.0,-0.5658842921257019,0.5975018739700317
-0.0182397849857807,1.248326063156128,-0.0806949436664581,-0.5206165313720703,-1.1316474228806328e-05,0.0139149893075227,0.0,0.0,-0.5236420035362244,-0.7980976700782776
-0.0190865509212017,1.2362746000289917,-0.0871899798512458,-0.5356189012527466,0.0024763769470155,0.0497582629323005,0.0,0.0,-0.248359203338623,0.6760096549987793
-0.0198700912296772,1.223899245262146,-0.079864963889122,-0.5500233769416809,0.0039669289253652,0.0298140980303287,0.0,0.0,-0.8453742265701294,-0.2670493125915527
-0.0206524841487407,1.2111932039260864,-0.0803008079528808,-0.564724326133728,0.0060002971440553,0.0406712815165519,0.0,0.0,-0.6162166595458984,-0.4824873208999634
-0.0214338302612304,1.1981563568115234,-0.0807254686951637,-0.579425573348999,0.0085532953962683,0.0510646514594554,0.0,0.0,-0.555734395980835,0.720057487487793
-0.0221562385559082,1.1847854852676392,-0.0738544464111328,-0.5942668318748474,0.0101444022729992,0.0318250730633735,0.0,0.0,-0.4725282788276672,0.1132594347000122
-0.0228777881711721,1.17108416557312,-0.0742471292614936,-0.6089684963226318,0.0122078321874141,0.0412726104259491,0.0,0.0,-0.8661540746688843,0.0301666259765625
-0.0235986709594726,1.1570520401000977,-0.0746250301599502,-0.6236699819564819,0.0147162033244967,0.0501720122992992,0.0,0.0,-0.5204770565032959,-0.1479727625846862
-0.0243189819157123,1.1426894664764404,-0.0749862194061279,-0.6383717656135559,0.0176417250186204,0.0585156604647636,0.0,0.0,-0.5052499771118164,0.8347635269165039
-0.0249884612858295,1.1279804706573486,-0.0690267458558082,-0.6537566781044006,0.0196964927017688,0.0410949699580669,0.0,0.0,-0.8318731188774109,0.4469096660614013
-0.0256574638187885,1.112941026687622,-0.0693412572145462,-0.6684561371803284,0.0221080556511878,0.0482314005494117,0.0,0.0,-0.6966152787208557,0.5154908895492554
-0.0262941364198923,1.0975773334503174,-0.065634936094284,-0.6828587055206299,0.0240405779331922,0.0386504493653774,0.0,0.0,0.1632614135742187,0.0625174045562744
-0.0270357131958007,1.0826977491378784,-0.0759696364402771,-0.6613495945930481,0.0258380025625228,0.0359486192464828,0.0,0.0,-0.7786149382591248,0.2318319082260131
-0.027777099981904,1.0674875974655151,-0.0762162655591964,-0.6760489344596863,0.0278898999094963,0.041037768125534,0.0,0.0,-0.901370406150818,0.5462081432342529
-0.0284740440547466,1.051954746246338,-0.0708594322204589,-0.6903706192970276,0.0290385745465755,0.0229735560715198,0.0,0.0,-0.5818932056427002,0.0673986673355102
-0.0291711799800395,1.0360913276672363,-0.0710557475686073,-0.7050696015357971,0.0303667895495891,0.0265640411525964,0.0,0.0,-0.5041813254356384,-0.1038842797279357
-0.0298686027526855,1.019897222518921,-0.0712254494428634,-0.7197685837745667,0.0318354107439518,0.0293723158538341,0.0,0.0,-0.502264678478241,-0.4968277812004089
-0.0305663105100393,1.003372311592102,-0.0713676512241363,-0.7344675064086914,0.0334044322371482,0.0313806533813476,0.0,0.0,-0.0180475711822509,0.7886505126953125
-0.031200598925352,0.9865217804908752,-0.0634468793869018,-0.7489143013954163,0.0334218703210353,0.0003484275075607,0.0,0.0,-0.2156212329864502,-0.4949260950088501
-0.0318355560302734,0.9693405032157898,-0.0635315328836441,-0.7636127471923828,0.0334578193724155,0.000718908268027,0.0,0.0,0.4763239622116089,0.5679448843002319
-0.0324652679264545,0.9524365663528442,-0.0617825277149677,-0.7512614727020264,0.0322821140289306,-0.0235142298042774,0.0,0.0,-0.4692256450653076,-0.4810717105865478
-0.033095933496952,0.93520188331604,-0.061806596815586,-0.7659598588943481,0.0310418605804443,-0.0248051658272743,0.0,0.0,0.48117196559906,-0.4886637926101684
-0.0337861999869346,0.9187673330307008,-0.0675024837255477,-0.7303913831710815,0.0295322835445404,-0.0301913022994995,0.0,0.0,0.1237797737121582,-0.5750163793563843
-0.0345139503479003,0.9026216864585876,-0.0722922161221504,-0.7175752520561218,0.0290544498711824,-0.009556733071804,0.0,0.0,-0.7259107828140259,-0.1590271592140197
-0.0352429375052452,0.8861452341079712,-0.0722209587693214,-0.7322733402252197,0.0283890683203935,-0.0133076924830675,0.0,0.0,0.1620880365371704,-0.1430816054344177
-0.0358967781066894,0.8698937296867371,-0.0648898184299469,-0.722276508808136,0.0278979428112506,-0.0098226154223084,0.0,0.0,-0.017067015171051,-0.1398788094520568
-0.0365519523620605,0.8533115386962891,-0.064752921462059,-0.7369744181632996,0.0271407831460237,-0.0151433171704411,0.0,0.0,-0.1577033996582031,-0.3437852263450622
-0.0372085571289062,0.8363984823226929,-0.0645828321576118,-0.7516721487045288,0.0260799527168273,-0.0212167855352163,0.0,0.0,0.2136696577072143,-0.8121029734611511
-0.037970446050167,0.8194653391838074,-0.0763761103153228,-0.7525795698165894,0.0262659881263971,0.0037207778077572,0.0,0.0,-0.2089706063270568,0.1568195819854736
-0.0387337692081928,0.8022016882896423,-0.0761392936110496,-0.767277181148529,0.0260770209133625,-0.0037797305267304,0.0,0.0,0.6361300945281982,-0.1842926740646362
-0.0394496917724609,0.785273015499115,-0.0712653547525405,-0.7523807883262634,0.0257589053362607,-0.0063622957095503,0.0,0.0,0.5728529691696167,0.3697906732559204
-0.0402943603694438,0.7691996097564697,-0.0831991583108902,-0.7143531441688538,0.0245052576065063,-0.0250729583203792,0.0,0.0,-0.5182024240493774,-0.4202598333358764
-0.0411404594779014,0.7527952194213867,-0.0828627273440361,-0.7290507555007935,0.0227808579802513,-0.0344879925251007,0.0,0.0,-0.1533390879631042,-0.3672648668289184
-0.0419878959655761,0.7360600829124451,-0.0824935361742973,-0.7437485456466675,0.0205570366233587,-0.0444763787090778,0.0,0.0,0.4002667665481567,-0.0800932049751281
-0.0427250862121582,0.7197239398956299,-0.0714997053146362,-0.726028323173523,0.0183691177517175,-0.043758425861597,0.0,0.0,-0.4560801982879638,-0.760767936706543
-0.0435295104980468,0.7030600905418396,-0.0793469026684761,-0.7406021952629089,0.0172865651547908,-0.0216508451849222,0.0,0.0,0.2606679201126098,0.1328475475311279
-0.0442575439810752,0.6865763068199158,-0.0715173929929733,-0.7325962781906128,0.0160142630338668,-0.0254461411386728,0.0,0.0,0.1773167848587036,0.5514180660247803
-0.044949721544981,0.6706206202507019,-0.0662142485380172,-0.7091159224510193,0.0130518795922398,-0.0592476800084114,0.0,0.0,-0.5080543160438538,0.3525724411010742
-0.0456428527832031,0.6543341279029846,-0.0656879991292953,-0.7238143682479858,0.0094710737466812,-0.0716161802411079,0.0,0.0,-0.1466837525367736,-0.2994483709335327
-0.0463369376957416,0.6377171874046326,-0.0651321411132812,-0.7385134100914001,0.0052526537328958,-0.0843685567378997,0.0,0.0,-0.451166570186615,-0.1659827232360839
-0.047031782567501,0.620769739151001,-0.0645473897457122,-0.753213107585907,0.0003788099566008,-0.0974767431616783,0.0,0.0,-0.275326669216156,-0.3111368417739868
-0.0477272979915142,0.6034919023513794,-0.0639345347881317,-0.7679135799407959,-0.0051668928936123,-0.1109140738844871,0.0,0.0,0.6149599552154541,-0.1608243584632873
-0.0483461394906044,0.5870904326438904,-0.0559143535792827,-0.7289857864379883,-0.0110619496554136,-0.1179012209177017,0.0,0.0,-0.1149115562438964,-0.1897239685058593
-0.0489654541015625,0.57035893201828,-0.0552477724850177,-0.7436877489089966,-0.0176580883562564,-0.1319228857755661,0.0,0.0,0.5427918434143066,-0.7405217885971069
-0.0495848655700683,0.5538097023963928,-0.0561223402619361,-0.7356011867523193,-0.0234000962227582,-0.1148402243852615,0.0,0.0,0.7257556915283203,-0.5707932710647583
-0.0503445640206337,0.5380375981330872,-0.0702744275331497,-0.7010810375213623,-0.0290282052010297,-0.1125621199607849,0.0,0.0,0.0351200103759765,0.5740886926651001
-0.0509629249572753,0.5224142670631409,-0.0543555431067943,-0.6945313215255737,-0.0364113859832286,-0.1476637721061706,0.0,0.0,-0.1373401880264282,-0.8314009308815002
-0.0516442283987998,0.5064659714698792,-0.0615160875022411,-0.7089892625808716,-0.0429521389305591,-0.1308148056268692,0.0,0.0,-0.1300574541091919,-0.0955620408058166
-0.0523254387080669,0.4901880919933319,-0.0607308335602283,-0.7236939668655396,-0.0502488538622856,-0.1459341794252395,0.0,0.0,0.7643904685974121,-0.61985844373703
-0.0531655326485633,0.4745409488677978,-0.0767468214035034,-0.6956886649131775,-0.0574346333742141,-0.1437154114246368,0.0,0.0,0.3766319751739502,-0.5676625370979309
-0.0539893135428428,0.4596409499645233,-0.0755240768194198,-0.6624975800514221,-0.0642190277576446,-0.135687917470932,0.0,0.0,-0.3248679637908935,-0.4400080442428589
-0.0548126213252544,0.4444117248058319,-0.0746787041425705,-0.6772040724754333,-0.071782574057579,-0.151271104812622,0.0,0.0,0.217430830001831,-0.5425859689712524
-0.0556106567382812,0.4298028349876404,-0.0725104138255119,-0.6496488451957703,-0.0790062099695205,-0.1444727480411529,0.0,0.0,0.2735962867736816,-0.757577657699585
-0.056520652025938,0.4154238998889923,-0.0843297466635704,-0.6394311189651489,-0.0856132581830024,-0.1321408450603485,0.0,0.0,0.146754503250122,-0.1802525520324707
-0.0574530586600303,0.4014264345169067,-0.0854648202657699,-0.6225745677947998,-0.0933121293783187,-0.1539777815341949,0.0,0.0,-0.2456403970718383,-0.7215003371238708
-0.0584381110966205,0.3871088027954101,-0.0913123562932014,-0.6368019580841064,-0.1004479303956031,-0.1427160203456878,0.0,0.0,0.7546306848526001,-0.5808033347129822
-0.0595232024788856,0.3738362789154053,-0.1012843996286392,-0.5903908014297485,-0.1076151058077812,-0.143343299627304,0.0,0.0,-0.7858254313468933,-0.9207047820091248
-0.0606705658137798,0.3602452278137207,-0.1083232909440994,-0.6045259833335876,-0.1139804869890213,-0.1273078471422195,0.0,0.0,0.4705003499984741,-0.7286432981491089
-0.0618676170706748,0.3468536138534546,-0.1138838902115821,-0.5956351161003113,-0.1197661310434341,-0.1157132014632225,0.0,0.0,-0.2024420499801635,-0.2815296649932861
-0.0630631446838378,0.3331332206726074,-0.112916313111782,-0.610344648361206,-0.1263695508241653,-0.1320683360099792,0.0,0.0,0.7125999927520752,-0.8238502144813538
-0.0643139854073524,0.3196185529232025,-0.1192091107368469,-0.6011623740196228,-0.1322177350521087,-0.1169636622071266,0.0,0.0,0.7334017753601074,-0.4312591552734375
-0.0654621124267578,0.3070143163204193,-0.1080742850899696,-0.5608031153678894,-0.1389303803443908,-0.1342529654502868,0.0,0.0,0.3749186992645263,-0.9544975757598876
-0.0665123015642166,0.2950990200042724,-0.0994342565536499,-0.5300995707511902,-0.1445026248693466,-0.1114445924758911,0.0,0.0,-0.2001615166664123,-0.9931740164756776
-0.0676518455147743,0.2828848659992218,-0.1099071726202964,-0.5432483553886414,-0.1485427320003509,-0.0808019414544105,0.0,0.0,0.371895432472229,-0.7304691076278687
-0.0689251869916915,0.2707818150520324,-0.1237331479787826,-0.5382758975028992,-0.1521399915218353,-0.0719450786709785,0.0,0.0,0.4789109230041504,-0.582832932472229
-0.0700955390930175,0.2594058215618133,-0.1138613447546958,-0.5059304237365723,-0.1553125232458114,-0.0634504407644271,0.0,0.0,0.3792088031768799,-0.8936313986778259
-0.0713546723127365,0.2484515309333801,-0.1236003413796424,-0.4870997667312622,-0.1576220542192459,-0.0461902245879173,0.0,0.0,-0.3537361621856689,0.5023767948150635
-0.0725757628679275,0.2371620088815689,-0.1180550009012222,-0.5021914839744568,-0.1616807132959365,-0.081172838807106,0.0,0.0,0.5379765033721924,-0.8256610631942749
-0.0737661346793174,0.226530373096466,-0.115778662264347,-0.4728759229183197,-0.1649404019117355,-0.0651938766241073,0.0,0.0,0.2323677539825439,-0.560766875743866
-0.0748561844229698,0.2162055075168609,-0.1061750054359436,-0.4592004716396332,-0.1677779108285904,-0.0567500777542591,0.0,0.0,0.2880494594573974,-0.9284313917160034
-0.0759518593549728,0.205950528383255,-0.1077513322234153,-0.45598104596138,-0.1695890724658966,-0.0362232886254787,0.0,0.0,-0.4070985317230224,-0.7366496324539185
-0.0770942717790603,0.1953739672899246,-0.112841822206974,-0.4702318906784057,-0.1709962785243988,-0.0281441546976566,0.0,0.0,-0.0258061289787292,-0.2631891965866089
-0.0782344788312912,0.184468612074852,-0.1117666736245155,-0.4849424660205841,-0.1732456982135772,-0.0449885427951812,0.0,0.0,0.8652129173278809,-0.0471990704536438
-0.0791403800249099,0.1738517135381698,-0.0882337242364883,-0.4721381068229675,-0.1756102293729782,-0.0472904369235038,0.0,0.0,0.8109731674194336,-0.6526707410812378
-0.0799567252397537,0.1641422659158706,-0.0797296911478042,-0.4317555427551269,-0.1775237768888473,-0.0382710509002208,0.0,0.0,0.2850116491317749,-0.9455532431602478
-0.0807115584611892,0.154994711279869,-0.0746464803814888,-0.406659871339798,-0.1783676296472549,-0.0168769471347332,0.0,0.0,0.1780548095703125,-0.9724926948547364
-0.0813516601920127,0.1462167352437973,-0.0642793923616409,-0.390099436044693,-0.1780966967344284,0.0054186815395951,0.0,0.0,-0.1347492933273315,-0.9306583404541016
-0.0820506066083908,0.1371166855096817,-0.0708712041378021,-0.4043300747871399,-0.1771237403154373,0.0194592121988534,0.0,0.0,-0.0465445518493652,-0.6949293613433838
-0.08280611038208,0.1277017742395401,-0.0771814137697219,-0.4182466566562652,-0.1754828542470932,0.0328181274235248,0.0,0.0,0.9388959407806396,-0.6239781379699707
-0.0833251923322677,0.1194460690021514,-0.0542343966662883,-0.3666478991508484,-0.1731488555669784,0.0466796681284904,0.0,0.0,0.0877485275268554,-0.8071170449256897
-0.0838573426008224,0.1114361360669136,-0.0563185699284076,-0.3556399047374725,-0.1700519323348999,0.0619388595223426,0.0,0.0,0.0222179889678955,-0.2178912162780761
-0.0843795761466026,0.1038446277379989,-0.054112784564495,-0.3371832966804504,-0.1681572198867797,0.0378943905234336,0.0,0.0,0.4202228784561157,-0.8634821176528931
-0.084782026708126,0.0968117341399192,-0.0431141331791877,-0.3122519552707672,-0.1652801632881164,0.057541262358427,0.0,0.0,0.0467007160186767,-0.4568208456039428
-0.0851368904113769,0.0901616439223289,-0.0373695492744445,-0.2953514754772186,-0.1634059250354766,0.0374849513173103,0.0,0.0,-0.0071666240692138,-0.2978567481040954
-0.0854891762137413,0.0831826776266098,-0.0362566076219081,-0.3100617825984955,-0.1623772978782653,0.0205722954124212,0.0,0.0,0.7380058765411377,-0.5307254195213318
-0.0858232527971267,0.0766654834151268,-0.0345679558813571,-0.2895249724388122,-0.1612096130847931,0.0233535505831241,0.0,0.0,0.5458865165710449,-0.2559208869934082
-0.0861719101667404,0.0706787928938865,-0.0346879288554191,-0.2660930454730987,-0.1613919138908386,-0.003645883873105,0.0,0.0,0.6738888025283813,-0.3262436985969543
-0.086583137512207,0.0651856958866119,-0.0393855608999729,-0.2443294376134872,-0.1631239801645279,-0.0346412882208824,0.0,0.0,0.7822043895721436,-0.6103826761245728
-0.0867916122078895,0.060496412217617,-0.019820662215352,-0.2085265964269638,-0.1641621738672256,-0.0207636151462793,0.0,0.0,0.1495376825332641,-0.318023681640625
-0.0869133919477462,0.0558477491140365,-0.0104931779205799,-0.2067948281764984,-0.1658460944890976,-0.0336785428225994,0.0,0.0,0.3330321311950683,-0.0244669318199157
-0.0868153572082519,0.0517519079148769,0.0117905642837286,-0.1822584122419357,-0.16783107817173,-0.0396998152136802,0.0,0.0,0.0781419277191162,-0.841170072555542
-0.0867117866873741,0.048104103654623,0.0114939520135521,-0.1622518450021743,-0.1689734905958175,-0.0228484477847814,0.0,0.0,-0.1142616271972656,-0.0925966501235961
-0.0866055488586425,0.0441275686025619,0.0126107828691601,-0.176962211728096,-0.1709563136100769,-0.0396563597023487,0.0,0.0,0.2444602251052856,0.5196491479873657
-0.0863199234008789,0.0404412858188152,0.032284066081047,-0.1642701476812362,-0.1746857613325119,-0.0745891779661178,0.0,0.0,0.3435087203979492,-0.674355149269104
-0.0859741196036338,0.0374293439090251,0.0377939715981483,-0.1342466473579406,-0.1779083758592605,-0.0644520372152328,0.0,0.0,0.0109597444534301,-0.2955104112625122
-0.0855037719011306,0.0347904786467552,0.0509205684065818,-0.1177548691630363,-0.1817957758903503,-0.0777482464909553,0.0,0.0,-0.2533342838287353,-0.5784302949905396
-0.085069753229618,0.0318308919668197,0.047104462981224,-0.1319935917854309,-0.1855149567127227,-0.074383720755577,0.0,0.0,-0.0742040872573852,-0.8589677810668945
-0.0847129821777343,0.0285668224096298,0.0381457209587097,-0.145379826426506,-0.1879927515983581,-0.0495560318231582,0.0,0.0,0.3982470035552978,-0.8536622524261475
-0.0844593048095703,0.0256673190742731,0.027093568816781,-0.1290863156318664,-0.1897273659706115,-0.0346922278404235,0.0,0.0,0.0405234098434448,-0.2045274972915649
-0.0841491669416427,0.0229660850018262,0.0336275696754455,-0.1203912869095802,-0.1923536658287048,-0.0525260083377361,0.0,0.0,0.1056357622146606,-0.3681700229644775
-0.0837508216500282,0.0204569678753614,0.0431832075119018,-0.1119542494416236,-0.1957261264324188,-0.0674492269754409,0.0,0.0,-0.0102541446685791,-0.8876630663871765
-0.0833327323198318,0.0184430927038192,0.026801249012351,-0.0876798406243324,-0.1804032772779464,0.3067812621593475,1.0,0.0,0.4057235717773437,0.0305439233779907
-0.0827279090881347,0.016947278752923,0.045199166983366,-0.0649421438574791,-0.1645027697086334,0.3188196718692779,1.0,0.0,0.2977842092514038,0.0394119024276733
-0.0819855704903602,0.0160585734993219,0.0578028075397014,-0.0377624183893203,-0.148071140050888,0.3286446332931518,1.0,0.0,0.0612716674804687,0.0154947042465209
