x_pos,y_pos,x_vel,y_vel,angle,ang_vel,leg_1,leg_2,main_booster,lat_booster
-0.0015160560142248,1.4034903049468994,-0.1533010751008987,-0.3302183151245117,0.0015116196591407,0.0297995172441005,0.0,0.0,-0.4262389540672302,0.4995745420455932
-0.0030248642433434,1.395949125289917,-0.1521128267049789,-0.3351587355136871,0.0027301008813083,0.0243728403002023,0.0,0.0,-0.3304673433303833,0.7294168472290039
-0.0044563291594386,1.3882683515548706,-0.1423315405845642,-0.3413695693016052,0.0019330577924847,-0.0159424990415573,0.0,0.0,-0.0354025959968566,0.4611146450042724
-0.005880260374397,1.380453109741211,-0.1413377523422241,-0.3473409712314605,0.0008841659291647,-0.0209798105061054,0.0,0.0,0.1705237627029419,0.5937575101852417
-0.0071493149735033,1.3731987476348877,-0.1245890855789184,-0.3224163651466369,-0.0014052565675228,-0.0457927957177162,0.0,0.0,-0.3332805633544922,0.3203983306884765
-0.0084112165495753,1.3658101558685305,-0.1236147433519363,-0.3283901214599609,-0.0039453702047467,-0.0508070401847362,0.0,0.0,-0.0790277123451232,0.5792627334594727
-0.0096220970153808,1.3582870960235596,-0.1171480640769004,-0.3343700766563415,-0.0078395484015345,-0.077890858054161,0.0,0.0,-0.307168960571289,-0.1621578931808471
-0.0108259199187159,1.3506300449371338,-0.1161966547369957,-0.3403389155864715,-0.0119822025299072,-0.0828606933355331,0.0,0.0,0.0632836818695068,0.5636484622955322
-0.0119806285947561,1.343652367591858,-0.109892189502716,-0.3101720213890075,-0.0175037607550621,-0.1104413419961929,0.0,0.0,-0.6637531518936157,-0.1504590511322021
-0.013128662481904,1.336540699005127,-0.1089680790901184,-0.3161489069461822,-0.0232713278383016,-0.1153618320822715,0.0,0.0,-0.7333412170410156,-0.209329068660736
-0.0142700197175145,1.3292955160140991,-0.1080608144402504,-0.3221172988414764,-0.0292844120413064,-0.120272658765316,0.0,0.0,-0.7998906373977661,0.4282747507095337
-0.0154050830751657,1.321916580200195,-0.1071710959076881,-0.3280878961086273,-0.0355413444340229,-0.1251502037048339,0.0,0.0,-0.789204478263855,-0.4361114501953125
-0.0165337566286325,1.3144041299819946,-0.1062997579574585,-0.3340595662593841,-0.0420405901968479,-0.1299967914819717,0.0,0.0,-0.4655786156654358,-0.5131487250328064
-0.0176921840757131,1.306755304336548,-0.1099529713392257,-0.340118259191513,-0.0478797405958175,-0.1167937666177749,0.0,0.0,-0.6299930214881897,-0.6912992596626282
-0.0188862793147563,1.298983097076416,-0.1143364906311035,-0.3456053733825683,-0.0529060028493404,-0.1005344167351722,0.0,0.0,-0.963437020778656,0.3846783638000488
-0.0200748443603515,1.2910771369934082,-0.1135318130254745,-0.3515768349170685,-0.0581696555018425,-0.1052825301885604,0.0,0.0,-0.7212545275688171,0.3929102420806885
-0.0212578773498535,1.2830373048782349,-0.112748697400093,-0.3575486540794372,-0.0636680498719215,-0.1099780425429344,0.0,0.0,-0.8993061780929565,-0.4801423549652099
-0.0224355701357126,1.274863839149475,-0.1119879633188247,-0.3635208308696747,-0.0693989992141723,-0.1146295666694641,0.0,0.0,-0.9301382303237916,0.3198950290679931
-0.0236082077026367,1.2665568590164185,-0.1112505197525024,-0.3694934844970703,-0.0753599554300308,-0.119229756295681,0.0,0.0,-0.584710955619812,-0.5544257164001465
-0.0248254779726266,1.2581214904785156,-0.1167517453432083,-0.3751657903194427,-0.0802979543805122,-0.0987687334418296,0.0,0.0,-0.8965907692909241,0.6866683959960938
-0.0259722713381052,1.2495497465133667,-0.1078165918588638,-0.3813569843769073,-0.0871149450540542,-0.1363520324230194,0.0,0.0,-0.8427773118019104,-0.029325246810913
-0.0271147731691598,1.2408442497253418,-0.1071514338254928,-0.387331873178482,-0.0941516906023025,-0.1407479345798492,0.0,0.0,-0.9569520354270936,-0.1443976163864135
-0.0282529834657907,1.2320053577423096,-0.1065125688910484,-0.3933071196079254,-0.1014058738946914,-0.1450965851545334,0.0,0.0,-0.7208672165870667,-0.191780686378479
-0.029387092217803,1.223033428192139,-0.1058997958898544,-0.3992827832698822,-0.1088732033967971,-0.1493599861860275,0.0,0.0,-0.8859699964523315,-0.5675320029258728
-0.0305724143981933,1.2139383554458618,-0.1122239232063293,-0.4046858251094818,-0.1151499450206756,-0.1255461871623993,0.0,0.0,-0.7231211066246033,0.6700372695922852
-0.0317157730460166,1.2046856880187988,-0.106795810163021,-0.4118375778198242,-0.1226440146565437,-0.1498813033103943,0.0,0.0,-0.6109620928764343,-0.2348409295082092
-0.0328558906912803,1.1952996253967283,-0.1062864810228347,-0.4178105890750885,-0.1303384900093078,-0.1538895666599273,0.0,0.0,-0.8029337525367737,-0.6678532361984253
-0.0340562835335731,1.1857997179031372,-0.1137485355138778,-0.4227789640426636,-0.1366013586521148,-0.1252574324607849,0.0,0.0,-0.6225326657295227,-0.5799577832221985
-0.0353087410330772,1.176182746887207,-0.1201946511864662,-0.4279035925865173,-0.1416411250829696,-0.1007953286170959,0.0,0.0,-0.7980956435203552,0.2510023117065429
-0.0365588180720806,1.166431903839111,-0.1197705045342445,-0.433874100446701,-0.1468638926744461,-0.1044553369283676,0.0,0.0,-0.5735318064689636,0.2982513904571533
-0.0378066077828407,1.1565476655960083,-0.1193751692771911,-0.4398447573184967,-0.1522629559040069,-0.1079812794923782,0.0,0.0,-0.8418514728546143,0.4195032119750976
-0.0390524864196777,1.1465297937393188,-0.1190086752176284,-0.4458155930042267,-0.1578311175107956,-0.1113632097840309,0.0,0.0,-0.7911651134490967,0.1410359144210815
-0.0402964577078819,1.1363784074783323,-0.1186709627509117,-0.4517865478992462,-0.1635607182979583,-0.1145922169089317,0.0,0.0,-0.1713859438896179,0.269801378250122
-0.041538905352354,1.1260937452316284,-0.1183619648218154,-0.4577575922012329,-0.1694436222314834,-0.1176581382751464,0.0,0.0,-0.5594862699508667,-0.3029025793075561
-0.0427798256278038,1.115675687789917,-0.1180814951658248,-0.4637287259101867,-0.1754711419343948,-0.1205508485436439,0.0,0.0,-0.7442699074745178,-0.6396870017051697
-0.0440673828125,1.1051414012908936,-0.1238402873277664,-0.4687730967998504,-0.1803876310586929,-0.0983301699161529,0.0,0.0,-0.7470973134040833,-0.1835617423057556
-0.0453536994755268,1.0944736003875732,-0.123615838587284,-0.4747432172298431,-0.1854299753904342,-0.1008466109633445,0.0,0.0,-0.7722625732421875,-0.5720089077949524
-0.0466802604496479,1.0836881399154663,-0.1285957396030426,-0.4798668622970581,-0.1895100027322769,-0.0816007256507873,0.0,0.0,-0.826700747013092,-0.2590104341506958
-0.0480060577392578,1.0727689266204834,-0.1284259557723999,-0.4858360886573791,-0.1936951279640197,-0.0837026387453079,0.0,0.0,-0.589506983757019,-0.2592065930366516
-0.0493313781917095,1.061716079711914,-0.1282828897237777,-0.4918052852153778,-0.1979743242263794,-0.0855840370059013,0.0,0.0,-0.4005427956581116,-0.4870133399963379
-0.0506563186645507,1.0505292415618896,-0.1281660497188568,-0.4977744519710541,-0.2023361772298813,-0.087237037718296,0.0,0.0,0.1674830913543701,-0.6725959777832031
-0.0518629066646099,1.039737105369568,-0.1177191287279129,-0.4800530672073364,-0.2052918523550033,-0.0591135397553443,0.0,0.0,-0.9592132568359376,-0.6598289608955383
-0.053113080561161,1.0288172960281372,-0.1231318265199661,-0.4855917096138,-0.207199141383171,-0.0381456464529037,0.0,0.0,-0.9055242538452148,-0.5732821226119995
-0.0544004440307617,1.0177738666534424,-0.1277586817741394,-0.4909580051898956,-0.2081910967826843,-0.0198392216116189,0.0,0.0,-0.4270248413085937,-0.5556186437606812
-0.0557348243892192,1.0066043138504028,-0.1335935443639755,-0.4963997900485992,-0.208029106259346,0.0032397271133959,0.0,0.0,-0.4987082481384277,0.1589393615722656
-0.0570693984627723,0.9953007102012634,-0.133597046136856,-0.5023663640022278,-0.2078884690999984,0.0028127597179263,0.0,0.0,-0.4716408848762512,-0.8413475155830383
-0.0584632866084575,0.9838767647743224,-0.1410333216190338,-0.5074997544288635,-0.2062393873929977,0.0329815372824668,0.0,0.0,-0.8352286219596863,0.1911687850952148
-0.0598577484488487,0.9723186492919922,-0.1410794705152511,-0.5134661793708801,-0.2045862823724746,0.0330617390573024,0.0,0.0,-0.8660051822662354,-0.2093548774719238
-0.0612525939941406,0.9606262445449828,-0.1411454230546951,-0.5194323658943176,-0.202916607260704,0.0333937592804431,0.0,0.0,-0.2280675768852234,0.6637804508209229
-0.062598705291748,0.9487823247909546,-0.1350249648094177,-0.5263363718986511,-0.2025065422058105,0.008201589807868,0.0,0.0,-0.8954936265945435,-0.3320045471191406
-0.0639454871416091,0.9368042349815368,-0.135127380490303,-0.5323019623756409,-0.2020551860332489,0.00902702473104,0.0,0.0,-0.9589610695838928,-0.4445992708206177
-0.0652930289506912,0.9246916174888612,-0.1352464109659195,-0.5382673144340515,-0.2015505731105804,0.0100920721888542,0.0,0.0,-0.9961497783660888,-0.4031291007995605
-0.0666411370038986,0.9124447703361512,-0.1353808939456939,-0.5442324876785278,-0.2009810805320739,0.011389990337193,0.0,0.0,-0.8525005578994751,-0.2439566254615783
-0.0679900199174881,0.9000632166862488,-0.1355296522378921,-0.5501975417137146,-0.2003353983163833,0.0129135493189096,0.0,0.0,-0.9942770600318908,-0.3550024628639221
-0.0693396553397178,0.8875474333763123,-0.1356914490461349,-0.556162416934967,-0.1996026486158371,0.0146548878401517,0.0,0.0,-0.8489629626274109,-0.8082929849624634
-0.0707630142569542,0.8749155402183533,-0.1450292766094207,-0.561054527759552,-0.1968932598829269,0.0541880130767822,0.0,0.0,-0.9961659908294678,0.6828410625457764
-0.0721251517534256,0.8621372580528259,-0.1374425143003463,-0.567768394947052,-0.1956577748060226,0.0247093811631202,0.0,0.0,-0.827436625957489,-0.5130659341812134
-0.0735183730721473,0.8492352962493896,-0.1414618045091629,-0.5731329321861267,-0.1935095936059951,0.0429638996720314,0.0,0.0,-0.9841668605804444,-0.205874502658844
-0.07491235435009,0.8361990451812744,-0.141662985086441,-0.5790976285934448,-0.1912353485822677,0.0454849824309349,0.0,0.0,-0.9675361514091492,-0.8335402011871338
-0.0763790160417556,0.8230565190315247,-0.1509343534708023,-0.5835630297660828,-0.1869366616010666,0.085973635315895,0.0,0.0,-0.9963175654411316,0.1568849086761474
-0.0778462439775466,0.8097798228263855,-0.1511474549770355,-0.589528501033783,-0.1824953407049179,0.0888264253735542,0.0,0.0,-0.9817129373550416,0.364772081375122
-0.0793141350150108,0.7963685989379883,-0.1513642966747284,-0.5954942107200623,-0.1779038161039352,0.0918305218219757,0.0,0.0,-0.8934049010276794,0.0820379257202148
-0.0807826071977615,0.7828232645988464,-0.1515834629535675,-0.6014598608016968,-0.1731549948453903,0.0949764251708984,0.0,0.0,-0.9837565422058104,-0.0064591169357299
-0.0822516456246376,0.7691435217857361,-0.151803508400917,-0.6074256896972656,-0.168242260813713,0.0982548147439956,0.0,0.0,-0.9804741740226746,-0.0032171607017517
-0.0837210640311241,0.7553295493125916,-0.1520229876041412,-0.6133915781974792,-0.1631594151258468,0.1016568094491958,0.0,0.0,-0.9962579011917114,-0.0044867992401123
-0.0851909667253494,0.741381049156189,-0.1522404551506042,-0.6193574666976929,-0.1579007059335708,0.1051738113164901,0.0,0.0,-0.9650201201438904,-0.1366364359855651
-0.0866610556840896,0.7272984981536865,-0.1524544656276703,-0.6253236532211304,-0.1524608284235,0.1087975949048996,0.0,0.0,-0.984238862991333,-0.2541412115097046
-0.0881313309073448,0.7130817770957947,-0.1526635736227035,-0.6312900185585022,-0.1468348056077957,0.1125203222036361,0.0,0.0,-0.9429376125335692,-0.253345251083374
-0.0896017104387283,0.6987307667732239,-0.1528662592172622,-0.6372565031051636,-0.1410180777311325,0.1163345947861671,0.0,0.0,-0.925639271736145,0.5032708644866943
-0.0910388976335525,0.6842364072799683,-0.1489063650369644,-0.6437150239944458,-0.1358563303947448,0.1032349616289138,0.0,0.0,-0.960360825061798,-0.033438503742218
-0.092475987970829,0.6696076989173889,-0.1490916609764099,-0.6496812701225281,-0.1304957419633865,0.1072118878364563,0.0,0.0,-0.7833278179168701,0.0977338552474975
-0.0939127951860427,0.6548449397087097,-0.1492661237716674,-0.6556476354598999,-0.1249327212572097,0.1112605482339859,0.0,0.0,-0.9061272740364076,0.4433895349502563
-0.0953491181135177,0.6399478912353516,-0.1494282633066177,-0.6616143584251404,-0.1191639676690101,0.1153751388192176,0.0,0.0,-0.7592832446098328,0.5388849973678589
-0.096737191081047,0.6249082088470459,-0.1436147093772888,-0.6680572628974915,-0.1143933162093162,0.0954128429293632,0.0,0.0,-0.5321745276451111,0.718237042427063
-0.0980716720223426,0.6097193956375122,-0.1371008306741714,-0.6747834086418152,-0.1107663810253143,0.0725384801626205,0.0,0.0,-0.5933254957199097,0.7108930349349976
-0.0993435829877853,0.5943782925605774,-0.129463329911232,-0.6816598773002625,-0.1085067391395568,0.0451926849782466,0.0,0.0,-0.1864198446273803,0.4533590078353882
-0.1006141677498817,0.5789027810096741,-0.1295610219240188,-0.6876246333122253,-0.1060307174921035,0.0495206676423549,0.0,0.0,0.153955340385437,0.3759396076202392
-0.1018306761980056,0.5641199350357056,-0.1243279352784156,-0.6568231582641602,-0.1033632010221481,0.0533503182232379,0.0,0.0,-0.6739286780357361,0.8296699523925781
-0.1029707938432693,0.5491994023323059,-0.1150439381599426,-0.6630638837814331,-0.1023466140031814,0.0203316789120435,0.0,0.0,0.3606092929840088,0.7423872947692871
-0.1040841117501258,0.5351629853248596,-0.1109439358115196,-0.6238678693771362,-0.1027371808886528,-0.0078109591268002,0.0,0.0,-0.942536473274231,-0.221494972705841
-0.105195328593254,0.5209919810295105,-0.1109545081853866,-0.6298322081565857,-0.1029039770364761,-0.0033357571810483,0.0,0.0,-0.6835217475891113,0.3383965492248535
-0.1063041687011718,0.5066865086555481,-0.1109398603439331,-0.6357964873313904,-0.1028455644845962,0.0011678871233016,0.0,0.0,-0.8713415861129761,0.1335072517395019
-0.1074103340506553,0.4922465085983276,-0.1108986735343933,-0.6417607665061951,-0.102560706436634,0.0056972345337271,0.0,0.0,-0.3669494390487671,0.5459890365600586
-0.1084742546081543,0.4776681065559387,-0.1059115529060363,-0.6479599475860596,-0.1030370444059372,-0.0095267388969659,0.0,0.0,0.8909206390380859,0.7460968494415283
-0.1094083786010742,0.4641463458538055,-0.0916274338960647,-0.6010918021202087,-0.1048049330711364,-0.0353579930961132,0.0,0.0,-0.3398621678352356,0.2023458480834961
-0.1103387847542762,0.4504901170730591,-0.0914989933371543,-0.6070563793182373,-0.1063432916998863,-0.0307670421898365,0.0,0.0,0.5009338855743408,0.5819876194000244
-0.1111638098955154,0.4371463656425476,-0.0800637751817703,-0.5932300090789795,-0.1087603494524955,-0.048340804874897,0.0,0.0,0.3695746660232544,-0.632860541343689
-0.1119142547249794,0.4241555333137512,-0.0742787718772888,-0.5774247646331787,-0.1095245331525802,-0.0152836497873067,0.0,0.0,0.3157325983047485,0.5633993148803711
-0.1124388724565506,0.4116798341274261,-0.0510600283741951,-0.5545803904533386,-0.1109135970473289,-0.027781318873167,0.0,0.0,0.1192519664764404,0.4580326080322265
-0.1128350272774696,0.3994521796703338,-0.0388946533203125,-0.5435062050819397,-0.1116336435079574,-0.0144008575007319,0.0,0.0,-0.0533345341682434,0.3017983436584472
-0.1132258400321006,0.3870899081230163,-0.03859793394804,-0.5494703054428101,-0.1121211051940918,-0.0097489291802048,0.0,0.0,-0.4004833698272705,0.5588128566741943
-0.1135645881295204,0.3745895326137543,-0.0324352905154228,-0.5556823015213013,-0.1135461255908012,-0.0285004172474145,0.0,0.0,0.3402483463287353,-0.7128545641899109
-0.1137797385454177,0.3627541065216064,-0.0219224337488412,-0.525987982749939,-0.1131413504481315,0.0080955168232321,0.0,0.0,0.1670923233032226,0.1918585300445556
-0.1138916015625,0.3511157631874084,-0.0121620930731296,-0.5171881914138794,-0.1121735721826553,0.01935550943017,0.0,0.0,0.4170029163360595,0.1610589027404785
-0.1139924973249435,0.3400013446807861,-0.0110925529152154,-0.4938973486423492,-0.1111807003617286,0.0198574848473072,0.0,0.0,-0.1588342189788818,0.870063304901123
-0.1140073761343956,0.3287496566772461,-0.0007351614185608,-0.5001309514045715,-0.1119298487901687,-0.0149830309674143,0.0,0.0,0.0533204078674316,-0.686735212802887
-0.1140450462698936,0.3179159462451935,-0.0046028206124901,-0.4814339578151703,-0.1110910847783088,0.0167750176042318,0.0,0.0,0.0807925462722778,-0.1634769439697265
-0.1140977889299392,0.3077370822429657,-0.0059756329283118,-0.4523449838161468,-0.1103952974081039,0.013915853574872,0.0,0.0,-0.4310851097106933,0.0336776971817016
-0.1141421347856521,0.2974235117435455,-0.0053675496019423,-0.458309143781662,-0.109465979039669,0.0185861531645059,0.0,0.0,-0.579983115196228,-0.378422737121582
-0.1141776069998741,0.2869754135608673,-0.0047185057774186,-0.4642733335494995,-0.108303315937519,0.02325333468616,0.0,0.0,-0.3521333932876587,0.0611776113510131
-0.1142038330435752,0.276392787694931,-0.0040283342823386,-0.4702375829219818,-0.1069075018167495,0.0279163662344217,0.0,0.0,-0.3009604215621948,-0.912590742111206
-0.1142953857779502,0.2656847536563873,-0.0127008762210607,-0.4756650924682617,-0.1033846512436866,0.0704570263624191,0.0,0.0,0.2124943733215332,0.6351256370544434
-0.1143760681152343,0.2555083036422729,-0.0104266740381717,-0.4521233737468719,-0.1010462492704391,0.0467682406306266,0.0,0.0,-0.2743018865585327,0.7470493316650391
-0.1144022941589355,0.2451890259981155,-0.0040877726860344,-0.4585367441177368,-0.0995935946702957,0.029053047299385,0.0,0.0,0.137794017791748,0.086430549621582
-0.1142957657575607,0.2354630529880523,0.0086078559979796,-0.4321326315402984,-0.0975716635584831,0.0404386594891548,0.0,0.0,-0.5656698346138,0.5087456703186035
-0.1141343116760253,0.2255916744470596,0.0150146735832095,-0.4386554658412933,-0.0964374616742134,0.022683935239911,0.0,0.0,0.0063910484313964,-0.2086538672447204
-0.1138282790780067,0.2162668108940124,0.0288093946874141,-0.4143226444721222,-0.0946636721491813,0.0354756750166416,0.0,0.0,-0.1574867963790893,0.5072762966156006
-0.113471508026123,0.2068061977624893,0.0346358455717563,-0.4204059839248657,-0.0936309024691581,0.0206555631011724,0.0,0.0,-0.037158191204071,0.1586030721664428
-0.1131022423505783,0.1972110420465469,0.0356508791446685,-0.4263705611228943,-0.0923684313893318,0.0252496358007192,0.0,0.0,0.4580175876617431,-0.0921051502227783
-0.1126058548688888,0.1882360726594925,0.0478145740926265,-0.3987745940685272,-0.0905654430389404,0.0360597930848598,0.0,0.0,0.1371240615844726,-0.2980043888092041
-0.1120504364371299,0.1799668669700622,0.0535199232399463,-0.3674005568027496,-0.0885570347309112,0.0401680059731006,0.0,0.0,-0.1783064603805542,-0.626524806022644
-0.1115254387259483,0.1715746223926544,0.0491094179451465,-0.372791439294815,-0.0851966515183448,0.0672075152397155,0.0,0.0,-0.3576107621192932,-0.7435969114303589
-0.1110375374555587,0.1630509197711944,0.0438823513686656,-0.378558486700058,-0.0803273916244506,0.0973851084709167,0.0,0.0,-0.0335237383842468,0.5655930042266846
-0.1104995757341384,0.1543897539377212,0.0495510548353195,-0.3847217559814453,-0.0761297568678855,0.0839525088667869,0.0,0.0,0.401930570602417,-0.2902928590774536
-0.1100223511457443,0.1462600082159042,0.043760061264038,-0.3611256778240204,-0.0722109973430633,0.0783753544092178,0.0,0.0,-0.2719138264656067,0.4557610750198364
-0.1095301657915115,0.1379960179328918,0.0450318232178688,-0.3670918345451355,-0.0680682212114334,0.08285553753376,0.0,0.0,0.3571929931640625,-0.7531853318214417
-0.1090285331010818,0.1302560120820999,0.0442014187574386,-0.3437409996986389,-0.0621692836284637,0.1179786920547485,0.0,0.0,0.0321211814880371,0.8776298761367798
-0.1083317771553993,0.1226947605609893,0.0652477964758873,-0.3358782827854156,-0.0577988028526306,0.0874100849032402,0.0,0.0,-0.3779753446578979,0.6662082672119141
-0.1075579673051834,0.1149969696998596,0.0743014216423034,-0.3420093953609466,-0.0547476038336753,0.0610236711800098,0.0,0.0,0.2019940614700317,-0.1868684887886047
-0.1067174896597862,0.1080423220992088,0.0806492492556572,-0.3089734613895416,-0.0513926893472671,0.0670985803008079,0.0,0.0,-0.1218246221542358,-0.7100494503974915
