x_pos,y_pos,x_vel,y_vel,angle,ang_vel,leg_1,leg_2,main_booster,lat_booster
-0.0015995979774743,1.4033094644546509,-0.1620506793260574,-0.3382523953914642,0.0018626012606546,0.0367491915822029,0.0,0.0,-0.3180156946182251,0.8721826076507568
-0.0032015801407396,1.395402908325195,-0.1601789742708206,-0.3514041304588318,0.0018460062565281,-0.0003312621847726,0.0,0.0,0.3949531316757202,0.5321087837219238
-0.0047167777083814,1.3876889944076538,-0.1507906764745712,-0.342839628458023,0.0011274659773334,-0.0143721029162406,0.0,0.0,-0.1409553289413452,-0.0564393401145935
-0.0063083646818995,1.3796597719192505,-0.1584720462560653,-0.3568492829799652,0.0004508174606598,-0.0135343875735998,0.0,0.0,-0.252710223197937,0.7443416118621826
-0.0079051973298192,1.3713181018829346,-0.1572368890047073,-0.3707429468631744,-0.0019703807774931,-0.0484284050762653,0.0,0.0,-0.0206862092018127,0.4647948741912842
-0.0095783229917287,1.3626614809036257,-0.1649039685726165,-0.3847452104091644,-0.0043469541706144,-0.0475359335541725,0.0,0.0,0.0540618896484375,0.6130740642547607
-0.011293888092041,1.3542423248291016,-0.1679487526416778,-0.3741985857486725,-0.0079164402559399,-0.0713963955640792,0.0,0.0,0.5473120212554932,0.6224793195724487
-0.0128795625641942,1.3464165925979614,-0.1541249006986618,-0.3478426039218902,-0.0123108392581343,-0.0878961086273193,0.0,0.0,-0.0970441102981567,0.5025753974914551
-0.0145022394135594,1.3382806777954102,-0.156890869140625,-0.3616482615470886,-0.0176345352083444,-0.1064834147691726,0.0,0.0,0.1241501569747924,-0.0714861154556274
-0.0161925312131643,1.330571532249451,-0.1636903285980224,-0.3427033722400665,-0.0229136142879724,-0.1055913418531417,0.0,0.0,-0.2436487078666687,0.2183758020401001
-0.0179583542048931,1.322547435760498,-0.1712976396083831,-0.3567133843898773,-0.0281454734504222,-0.1046467646956443,0.0,0.0,0.1006561517715454,0.8010814189910889
-0.0196722038090229,1.314729928970337,-0.1645700484514236,-0.3475862741470337,-0.0348808877170085,-0.1347202658653259,0.0,0.0,-0.7093026638031006,0.4697389602661133
-0.0214611049741506,1.3065978288650513,-0.1721393465995788,-0.3615961670875549,-0.0415670946240425,-0.133736252784729,0.0,0.0,-0.8543934226036072,0.3791295289993286
-0.0233251564204692,1.2981513738632202,-0.1796892583370208,-0.3756006062030792,-0.0482045672833919,-0.1327618062496185,0.0,0.0,-0.8359411954879761,0.7583459615707397
-0.0251898765563964,1.2893929481506348,-0.1779416799545288,-0.3895555734634399,-0.0566484853625297,-0.1688941121101379,0.0,0.0,-0.5792977809906006,0.3127951622009277
-0.0271290782839059,1.280320405960083,-0.1854404658079147,-0.4035640060901642,-0.0650416389107704,-0.1678781807422638,0.0,0.0,-0.3746436834335327,0.7428932189941406
-0.0290700905025005,1.2709355354309082,-0.1838570088148117,-0.4175803363323211,-0.075196124613285,-0.2031082212924957,0.0,0.0,-0.7868490815162659,0.6165862083435059
-0.0310252197086811,0.0,-0.1837923526763916,-0.4322021603584289,-0.0868158116936683,-0.2324146330356598,0.0,0.0,-0.5583246946334839,0.6422524452209473
-0.0329946503043174,1.2511998414993286,-0.1838002502918243,-0.4463744163513183,-0.0998657345771789,-0.2610218524932861,0.0,0.0,-0.226780891418457,0.162482738494873
-0.0350370407104492,1.2408620119094849,-0.1911680400371551,-0.4603917300701141,-0.1128637492656707,-0.2599835097789764,0.0,0.0,-0.202039361000061,0.1247211694717407
-0.0371520034968853,1.2302110195159912,-0.1985000073909759,-0.4744096398353576,-0.1258103847503662,-0.2589556574821472,0.0,0.0,-0.4906157851219177,-0.1231580972671508
-0.039339255541563,1.2192471027374268,-0.2057930529117584,-0.4884273409843445,-0.1387053877115249,-0.2579230368137359,0.0,0.0,-0.452301025390625,-0.6622382402420044
-0.0416389480233192,1.207977533340454,-0.2181576788425445,-0.5020110607147217,-0.1505115628242492,-0.2361444234848022,0.0,0.0,-0.3395872712135315,-0.4003649950027466
-0.0440100654959678,1.1963945627212524,-0.2253674268722534,-0.516027569770813,-0.1622668802738189,-0.235127255320549,0.0,0.0,-0.6452417969703674,0.6670277118682861
-0.0464120879769325,1.184490442276001,-0.2275145798921585,-0.5305082201957703,-0.1749902665615081,-0.2544905543327331,0.0,0.0,0.2258718013763427,-0.1585970520973205
-0.0489026084542274,1.1730520725250244,-0.2359234988689422,-0.5099738240242004,-0.1881638020277023,-0.2634702622890472,0.0,0.0,-0.4116187691688537,-0.8081170320510864
-0.0515247359871864,1.161323070526123,-0.2507811188697815,-0.522773027420044,-0.1996740251779556,-0.2302042692899704,0.0,0.0,-0.1878294944763183,-0.6945428252220154
-0.0542809478938579,1.1493077278137207,-0.2659397721290588,-0.5353592038154602,-0.2094333469867706,-0.1951863169670105,0.0,0.0,0.0967050790786743,-0.2008371353149414
-0.0570838935673236,1.1377599239349363,-0.2702844440937042,-0.514692485332489,-0.2195467501878738,-0.2022681683301925,0.0,0.0,-0.555419385433197,-0.7359235286712646
-0.0600142478942871,1.1259148120880127,-0.2845995426177978,-0.5277224779129028,-0.2280831784009933,-0.1707283705472946,0.0,0.0,-0.278997004032135,0.4391543865203857
-0.0630121231079101,1.113755702972412,-0.2914183139801025,-0.5417280197143555,-0.2365748584270477,-0.1698335707187652,0.0,0.0,0.3864330053329468,0.2405441999435424
-0.0660542473196983,1.1018414497375488,-0.2955885529518127,-0.5309270620346069,-0.2453248053789138,-0.1749992221593856,0.0,0.0,-0.5902195572853088,-0.5725656151771545
-0.0692111030220985,1.089637041091919,-0.3084348440170288,-0.5436537861824036,-0.2527126371860504,-0.1477572917938232,0.0,0.0,0.3051967620849609,0.282989501953125
-0.0724106803536415,1.077550768852234,-0.3125286698341369,-0.5384655594825745,-0.2602918744087219,-0.151584967970848,0.0,0.0,-0.0963846445083618,-0.4862464666366577
-0.0756744369864463,1.0651501417160034,-0.3190076947212219,-0.552469789981842,-0.2678306996822357,-0.15077605843544,0.0,0.0,0.2738023996353149,-0.1666107773780822
-0.0788336768746376,1.0532729625701904,-0.3086660206317901,-0.5292197465896606,-0.2752653956413269,-0.1486938595771789,0.0,0.0,-0.6705011129379272,-0.5698251724243164
-0.0821008682250976,1.041097640991211,-0.3206811547279358,-0.5422781705856323,-0.2814592123031616,-0.1238766089081764,0.0,0.0,0.7985532283782959,-0.1938880085945129
-0.0851592049002647,1.0297844409942627,-0.3000352680683136,-0.5039424300193787,-0.2874246537685394,-0.1193087920546531,0.0,0.0,0.3317837715148926,0.0449657440185546
-0.0881154090166091,1.0191469192504885,-0.2897301912307739,-0.4739502072334289,-0.2935013771057129,-0.1215345486998558,0.0,0.0,0.192175030708313,-0.6419692039489746
-0.0910301208496093,1.008837342262268,-0.286912202835083,-0.4591287076473236,-0.2982052564620971,-0.0940774828195571,0.0,0.0,-0.4501121044158935,0.0717785358428955
-0.0940024405717849,0.9982129335403442,-0.2927152812480926,-0.4731300771236419,-0.302876353263855,-0.0934219658374786,0.0,0.0,0.3868298530578613,-0.2529070377349853
-0.096801184117794,0.9878564476966858,-0.2758510708808899,-0.4611330926418304,-0.3070368468761444,-0.0832103267312049,0.0,0.0,0.0784442424774169,-0.1451683640480041
-0.0995325073599815,0.9774488806724548,-0.2694300711154938,-0.4633428752422333,-0.3108741044998169,-0.0767451152205467,0.0,0.0,0.5939880609512329,0.769291877746582
-0.1020032912492752,0.9673771262168884,-0.2420718967914581,-0.4487169682979584,-0.316067636013031,-0.1038712486624717,0.0,0.0,-0.000855803489685,-0.5442299246788025
-0.1045709624886512,0.9570056200027466,-0.2529210150241852,-0.461795449256897,-0.3200564086437225,-0.0797760933637619,0.0,0.0,0.7071805000305176,-0.1928659677505493
-0.107035256922245,0.946788489818573,-0.2428316175937652,-0.4548956453800201,-0.3238003253936767,-0.0748782902956008,0.0,0.0,0.2609306573867798,0.2624913454055786
-0.1093956977128982,0.9367191195487976,-0.2326757609844207,-0.4482816159725189,-0.3273051977157593,-0.0700971633195877,0.0,0.0,0.5446897745132446,-0.2263195514678955
-0.1116519942879676,0.9274927377700806,-0.2218279093503952,-0.4109248518943786,-0.3312741219997406,-0.0793782323598861,0.0,0.0,0.8330265283584595,-0.2120822668075561
-0.1138083487749099,0.9192638397216796,-0.2112061232328415,-0.3667581379413605,-0.3359035849571228,-0.0925892144441604,0.0,0.0,0.7104406356811523,-0.5471545457839966
-0.1158977523446083,0.9114970564842224,-0.20553719997406,-0.3459870517253876,-0.3394588828086853,-0.071105808019638,0.0,0.0,0.2651727199554443,0.4266353845596313
-0.1177794486284256,0.9039788246154784,-0.185283213853836,-0.3348228633403778,-0.3424891233444214,-0.0606048889458179,0.0,0.0,0.8414888381958008,-0.06298828125
-0.1194855719804763,0.8973382711410522,-0.1674520373344421,-0.2958918511867523,-0.3458010256290436,-0.0662383213639259,0.0,0.0,0.4828181266784668,-0.45736163854599
-0.1210018172860145,0.8908959627151489,-0.1489139199256897,-0.2869802415370941,-0.3486456573009491,-0.0568924844264984,0.0,0.0,0.7510354518890381,-0.3531236052513122
-0.1222617179155349,0.8853287100791931,-0.1233067139983177,-0.2480834126472473,-0.3514629900455475,-0.0563463866710662,0.0,0.0,0.7820466756820679,-0.2503602504730224
-0.1232232078909874,0.8801041841506958,-0.0941893458366394,-0.2326830476522445,-0.3535270690917969,-0.0412808880209922,0.0,0.0,0.907140016555786,-0.0932760834693908
-0.1241313964128494,0.8753873705863953,-0.0883790105581283,-0.2102381736040115,-0.3560933172702789,-0.0513246729969978,0.0,0.0,0.2341493368148803,0.1886078119277954
-0.1247954368591308,0.8711559176445007,-0.0642917081713676,-0.1885947734117508,-0.3583284914493561,-0.0447036698460578,0.0,0.0,0.6915998458862305,0.3303769826889038
-0.1251122504472732,0.8675050735473633,-0.03018319606781,-0.1626320779323578,-0.3599056899547577,-0.0315438285470008,0.0,0.0,-0.586789071559906,-0.8183774352073669
-0.1255046874284744,0.8635767698287964,-0.0391568765044212,-0.1746091693639755,-0.3599980771541595,-0.0018476232653483,0.0,0.0,0.5675848722457886,-0.7338756918907166
-0.1257841140031814,0.8604586720466614,-0.0291558019816875,-0.1382777541875839,-0.3587185442447662,0.0255910418927669,0.0,0.0,0.3071097135543823,-0.7030499577522278
-0.1259921044111251,0.8574367165565491,-0.0234388578683137,-0.1336515247821808,-0.3559390604496002,0.0555898025631904,0.0,0.0,0.3449628353118896,-0.767528772354126
-0.1261610090732574,0.8549859523773193,-0.0209116991609334,-0.1079307794570922,-0.351697713136673,0.0848266780376434,0.0,0.0,0.6323927640914917,-0.5275095105171204
-0.1260865181684494,0.8528928160667419,0.0020623402670025,-0.0917221829295158,-0.3460380733013153,0.1131929606199264,0.0,0.0,-0.5289957523345947,-0.9359840154647828
-0.1260919570922851,0.8505224585533142,-0.0076985890045762,-0.1036463901400566,-0.3385403454303741,0.1499543935060501,0.0,0.0,-0.7591310143470764,-0.8207396268844604
-0.126170352101326,0.8478641510009766,-0.0165884122252464,-0.1161241307854652,-0.3293997347354889,0.1828124821186065,0.0,0.0,-0.9293009042739868,-0.6436639428138733
-0.1263156831264495,0.844921886920929,-0.0248201210051774,-0.1284533441066742,-0.3186827003955841,0.2143401652574539,0.0,0.0,-0.5539323091506958,-0.4384928345680237
-0.1264679878950119,0.8416661620140076,-0.0255465116351842,-0.1424631625413894,-0.3079771697521209,0.2141108959913253,0.0,0.0,-0.9911592602729796,0.2702596187591553
-0.1266251504421234,0.8380969166755676,-0.0260570291429758,-0.1564729958772659,-0.297284722328186,0.2138487100601196,0.0,0.0,-0.9697643518447876,0.8450076580047607
-0.1267168074846267,0.8341929316520691,-0.0177774280309677,-0.1717801243066787,-0.2883928120136261,0.1778388321399688,0.0,0.0,-0.9988070726394652,0.6458227634429932
-0.1267685890197754,0.8299537301063538,-0.0127283679321408,-0.1869338154792785,-0.2806267142295837,0.1553222239017486,0.0,0.0,-0.965991735458374,0.0885127782821655
-0.1268191337585449,0.8254004120826721,-0.0126111973077058,-0.2009394764900207,-0.2728784084320068,0.1549663245677948,0.0,0.0,-0.9924342036247252,0.6994137763977051
-0.1268105506896972,0.8205108046531677,-0.0052375216037034,-0.2162010073661804,-0.2666381597518921,0.1248050704598426,0.0,0.0,-0.9978697896003724,-0.4626001119613647
-0.1267969161272049,0.8153064250946045,-0.0047249346971511,-0.2302049994468689,-0.2604186534881592,0.1243904083967208,0.0,0.0,-0.9987342953681946,-0.087939977645874
-0.1267765015363693,0.8097878098487854,-0.004022772423923,-0.2442089915275573,-0.2542212605476379,0.1239477023482322,0.0,0.0,-0.9872288703918456,0.7696034908294678
-0.1266928613185882,0.8039273023605347,0.0037484832573682,-0.2596816420555115,-0.2495215684175491,0.0939937308430671,0.0,0.0,-0.9929171800613404,-0.5011471509933472
-0.1266336441040039,0.7977599501609802,0.0004474893212318,-0.2731857597827911,-0.243952989578247,0.111371710896492,0.0,0.0,-0.9929295778274536,0.2478241920471191
-0.1265623122453689,0.7912780046463013,0.0016843242337927,-0.2871891558170318,-0.2384104281663894,0.1108515039086341,0.0,0.0,-0.8768641948699951,0.1005537509918212
-0.1264770478010177,0.7844817638397217,0.0030872127972543,-0.3011926114559173,-0.2328950464725494,0.1103077754378318,0.0,0.0,-0.8993091583251953,0.1432465314865112
-0.1263763457536697,0.7773708701133728,0.0046498537994921,-0.3151960074901581,-0.2274079620838165,0.1097416654229164,0.0,0.0,-0.9910578727722168,0.2763791084289551
-0.1262587606906891,0.7699452042579651,0.0063658468425273,-0.3291993737220764,-0.2219502478837967,0.109154462814331,0.0,0.0,-0.9789015650749208,-0.1424698829650879
-0.1261228621006012,0.7622053027153015,0.0082287210971117,-0.3432027399539947,-0.2165228724479675,0.1085474267601966,0.0,0.0,-0.8966214060783386,-0.750491201877594
-0.1260199546813964,0.7541752457618713,0.0035350229591131,-0.3559192419052124,-0.2097123712301254,0.1362104415893554,0.0,0.0,-0.9936452507972716,0.7931191921234131
-0.1258451491594314,0.7458145022392273,0.0120795229449868,-0.3708361983299255,-0.2042609453201294,0.1090288534760475,0.0,0.0,-0.9840556979179382,0.2554270029067993
-0.1256479322910308,0.7371391654014587,0.0143438428640365,-0.3848395645618438,-0.1988424509763717,0.1083698123693466,0.0,0.0,-0.993837296962738,0.4569604396820068
-0.1254271566867828,0.7281491160392761,0.0167289357632398,-0.3988428711891174,-0.1934576481580734,0.1076960936188697,0.0,0.0,-0.9676230549812316,-0.0152848362922668
-0.1251816749572754,0.7188447713851929,0.0192283242940902,-0.412846177816391,-0.1881071776151657,0.1070089787244796,0.0,0.0,-0.9985286593437196,0.2464843988418579
-0.1249103546142578,0.709225594997406,0.021835584193468,-0.4268494844436645,-0.1827916949987411,0.1063098907470703,0.0,0.0,-0.9969169497489928,0.5466079711914062
-0.1245636940002441,0.699274480342865,0.0306569430977106,-0.4417870342731476,-0.1787796765565872,0.0802405774593353,0.0,0.0,-0.8949185609817505,-0.5993819832801819
-0.1242247596383094,0.6890180110931396,0.0290327221155166,-0.455263078212738,-0.1738954931497573,0.0976834371685981,0.0,0.0,-0.9936127662658693,-0.304408848285675
-0.1238570213317871,0.6784469485282898,0.0319258496165275,-0.4692659378051758,-0.1690476834774017,0.0969563871622085,0.0,0.0,-0.9863541722297668,-0.2129056453704834
-0.1234599128365516,0.6675612330436707,0.0349019169807434,-0.4832687973976135,-0.1642365604639053,0.0962226018309593,0.0,0.0,-0.9313215613365172,-0.1472008824348449
-0.1230326667428016,0.6563608646392822,0.0379549264907836,-0.4972715973854065,-0.1594623774290084,0.0954835265874862,0.0,0.0,-0.9942412376403807,0.2087994813919067
-0.1225745230913162,0.6448459625244141,0.041078969836235,-0.5112743973731995,-0.1547253578901291,0.0947404950857162,0.0,0.0,-0.9821667671203612,0.1717859506607055
-0.1220847144722938,0.6330163478851318,0.0442682541906833,-0.5252770781517029,-0.1500256210565567,0.0939947590231895,0.0,0.0,-0.9134382605552672,0.4727859497070312
-0.1215627640485763,0.6208721995353699,0.0475170835852623,-0.5392798185348511,-0.1453631967306137,0.0932485908269882,0.0,0.0,-0.9237179756164552,0.4812390804290771
-0.1210082024335861,0.6084132790565491,0.0508198738098144,-0.5532824993133545,-0.1407381296157837,0.0925015360116958,0.0,0.0,-0.9486355185508728,0.3601939678192138
-0.1204204559326171,0.5956398248672485,0.0541711449623107,-0.5672851204872131,-0.1361503303050995,0.0917557999491691,0.0,0.0,-0.9864891767501832,0.0910073518753051
-0.1197991371154785,0.5825515389442444,0.0575655177235603,-0.5812875628471375,-0.1315996944904327,0.0910127311944961,0.0,0.0,-0.9159142374992372,-0.1138163805007934
-0.1191438660025596,0.5691487193107605,0.0609977021813392,-0.5952900648117065,-0.1270860135555267,0.0902736261487007,0.0,0.0,-0.9212149381637572,0.6288446187973022
-0.1184088736772537,0.5554270148277283,0.0701447799801826,-0.6095725297927856,-0.1237511411309242,0.0666970908641815,0.0,0.0,-0.8096622228622437,-0.4636294245719909
-0.1176394447684288,0.5413904786109924,0.0736373141407966,-0.6235742568969727,-0.1204526275396347,0.0659701228141784,0.0,0.0,-0.4833031296730041,-0.7980191707611084
-0.1169005408883094,0.5270484089851379,0.0689392015337944,-0.6370322108268738,-0.1155325099825859,0.0984023511409759,0.0,0.0,-0.552085816860199,-0.4621201753616333
-0.1161266341805458,0.5123917460441589,0.072471760213375,-0.651034951210022,-0.1106478944420814,0.097692534327507,0.0,0.0,0.1678440570831298,-0.4861679077148437
-0.1153824776411056,0.4979899525642395,0.0700300484895706,-0.6397607326507568,-0.1062902733683586,0.0871523767709732,0.0,0.0,0.14889657497406,-0.6300860643386841
-0.1145173087716102,0.4840174317359924,0.080767422914505,-0.6206033229827881,-0.1005893051624298,0.1140192523598671,0.0,0.0,-0.1487067937850952,0.1170336008071899
-0.113616943359375,0.469730406999588,0.08432437479496,-0.6346067190170288,-0.0949220806360244,0.1133445650339126,0.0,0.0,-0.3060877323150635,-0.2322598695755005
-0.1126812919974327,0.4551288187503814,0.0878802686929702,-0.6486100554466248,-0.0892878621816635,0.1126844510436058,0.0,0.0,0.4932763576507568,-0.2517627477645874
-0.111668586730957,0.4412633776664734,0.0957241877913475,-0.615922212600708,-0.0837815552949905,0.110126182436943,0.0,0.0,-0.3125159740447998,-0.068695843219757
-0.1106205955147743,0.427083283662796,0.0992645695805549,-0.6299253702163696,-0.0783066153526306,0.1094986647367477,0.0,0.0,0.7460440397262573,-0.5541353821754456
-0.1094475761055946,0.4134999513626098,0.1104558333754539,-0.6033646464347839,-0.0715253725647926,0.1356248706579208,0.0,0.0,-0.098292589187622,0.24366295337677
-0.1082396507263183,0.3996020853519439,0.1139631420373916,-0.6173690557479858,-0.064773641526699,0.1350345909595489,0.0,0.0,0.1413624286651611,-0.4689509868621826
-0.1069201454520225,0.3862002789974212,0.1249575167894363,-0.5953494906425476,-0.05785658583045,0.1383413672447204,0.0,0.0,-0.0942006111145019,-0.1539341211318969
-0.1055663079023361,0.3724840879440307,0.1284151226282119,-0.6093540191650391,-0.0509669259190559,0.13779316842556,0.0,0.0,0.3990571498870849,0.3065325021743774
-0.1042551025748252,0.3592458665370941,0.1246512085199356,-0.5881623029708862,-0.0445826984941959,0.1276846677064895,0.0,0.0,0.393879771232605,0.2655587196350097
-0.102999210357666,0.3463510870933532,0.119667649269104,-0.5729352831840515,-0.0387244969606399,0.1171642392873764,0.0,0.0,0.0772216320037841,0.5116487741470337
-0.1016706451773643,0.3336908519268036,0.1280018389225006,-0.5625581741333008,-0.0339365936815738,0.0957580953836441,0.0,0.0,0.3806815147399902,-0.3561630249023437
-0.100272461771965,0.3213831484317779,0.1348931938409805,-0.5469045042991638,-0.0290708411484956,0.0973152294754982,0.0,0.0,-0.0883539319038391,0.2067118883132934
-0.0988417640328407,0.3087608218193054,0.138156771659851,-0.5609069466590881,-0.0242262408137321,0.0968918651342392,0.0,0.0,0.6618695259094238,0.5706374645233154
-0.0972120314836502,0.296852171421051,0.1589662134647369,-0.5292134881019592,-0.0202663615345954,0.0791976749897003,0.0,0.0,0.278767466545105,-0.2742636799812317
-0.0955187827348709,0.2855644226074219,0.1652414500713348,-0.5016257762908936,-0.0162351429462432,0.0806243419647216,0.0,0.0,0.1731095314025879,-0.5619009733200073
