x_pos,y_pos,x_vel,y_vel,angle,ang_vel,leg_1,leg_2,main_booster,lat_booster
-0.001649284386076,1.4031420946121216,-0.166874498128891,-0.3456948697566986,0.0017409152351319,0.0343399047851562,0.0,0.0,-0.0594149231910705,0.4723120927810669
-0.0034267425071448,1.394904613494873,-0.1793605685234069,-0.3661117851734161,0.0033306232653558,0.0317979976534843,0.0,0.0,0.0546218156814575,0.8951876163482666
-0.0051634786650538,1.386565327644348,-0.1734097898006439,-0.3706342279911041,0.0030680194031447,-0.0052523175254464,0.0,0.0,0.5632455348968506,0.9093458652496338
-0.007087898440659,1.3784494400024414,-0.1900777518749237,-0.360707551240921,0.000729952880647,-0.0467657782137393,0.0,0.0,-0.3490614891052246,0.780472993850708
-0.0090700145810842,1.3698534965515137,-0.1938585937023162,-0.3820432722568512,-0.0035647326149046,-0.085902065038681,0.0,0.0,0.0478107929229736,0.8340399265289307
-0.0110164638608694,1.3612903356552124,-0.1885954439640045,-0.3806202709674835,-0.0095440493896603,-0.1195975169539451,0.0,0.0,-0.6662935018539429,0.182461142539978
-0.0130970953032374,1.352244853973389,-0.2019546329975128,-0.4020713567733764,-0.015590101480484,-0.1209322214126586,0.0,0.0,-0.0634864568710327,0.9459285736083984
-0.0152201652526855,1.342718243598938,-0.2037657499313354,-0.4235152304172516,-0.0240319669246673,-0.1688522845506668,0.0,0.0,-0.5565128326416016,0.7056320905685425
-0.0174246784299612,1.3327159881591797,-0.2104826420545578,-0.444733589887619,-0.0338923409581184,-0.1972259432077407,0.0,0.0,-0.6509761214256287,0.7679228782653809
-0.0197054855525493,1.3222345113754272,-0.2165456265211105,-0.4661436975002289,-0.045313972979784,-0.2284533977508545,0.0,0.0,-0.4017814397811889,0.7181626558303833
-0.0220593456178903,1.3112685680389404,-0.2221677303314209,-0.4878206253051758,-0.0583962239325046,-0.2616689503192901,0.0,0.0,-0.5187949538230896,0.5860776901245117
-0.0244998931884765,1.2998170852661133,-0.2295107841491699,-0.5095841288566589,-0.0728027075529098,-0.2881563901901245,0.0,0.0,-0.640753448009491,0.7397706508636475
-0.0270082466304302,1.2878823280334473,-0.2344899922609329,-0.531309187412262,-0.0890110805630683,-0.3241975307464599,0.0,0.0,-0.1689760684967041,0.4182870388031006
-0.0296558383852243,1.2754685878753662,-0.2484234571456909,-0.5527750253677368,-0.1052278205752372,-0.3243645131587982,0.0,0.0,0.2044720649719238,0.2856051921844482
-0.0322775840759277,1.2634562253952026,-0.2463641464710235,-0.5350814461708069,-0.120961420238018,-0.3147010803222656,0.0,0.0,-0.1351240873336792,-0.2122664451599121
-0.0350396148860454,1.2509642839431765,-0.2604197561740875,-0.556554913520813,-0.1366886794567108,-0.3145737051963806,0.0,0.0,-0.529198408126831,0.2584084272384643
-0.0379422195255756,1.237992763519287,-0.2745257318019867,-0.578019380569458,-0.1524013131856918,-0.3142813146114349,0.0,0.0,-0.151781678199768,0.1601375341415405
-0.0409856811165809,1.2245421409606934,-0.2886807918548584,-0.5994850397109985,-0.1680919080972671,-0.3138400912284851,0.0,0.0,-0.3683674335479736,-0.1842157840728759
-0.0441704764962196,1.2106120586395264,-0.3028797209262848,-0.6209529042243958,-0.1837529093027115,-0.3132484555244446,0.0,0.0,-0.0853803753852844,0.3689707517623901
-0.0474967956542968,1.196202516555786,-0.3171193599700928,-0.6424211263656616,-0.1993770003318786,-0.312510222196579,0.0,0.0,0.2437469959259033,-0.5248744487762451
-0.0507904067635536,1.1821303367614746,-0.3151852190494537,-0.6274011135101318,-0.2136759012937545,-0.2860042452812195,0.0,0.0,-0.2070944905281067,-0.2866387367248535
-0.0542262084782123,1.1675777435302734,-0.3295015692710876,-0.6488732099533081,-0.2279246300458908,-0.2850005328655243,0.0,0.0,0.2551500797271728,0.2042236328125
-0.0576148033142089,1.15311598777771,-0.32534259557724,-0.6448885202407837,-0.2416567206382751,-0.274666428565979,0.0,0.0,0.4689946174621582,-0.7776432633399963
-0.0610733032226562,1.1385667324066162,-0.3340898156166076,-0.6486214995384216,-0.2536565065383911,-0.240017294883728,0.0,0.0,0.4250890016555786,0.0356699228286743
-0.0646541565656662,1.1243884563446045,-0.3458647131919861,-0.6323031187057495,-0.2661542296409607,-0.2499764710664749,0.0,0.0,0.1002850532531738,-0.4522714018821716
-0.0683523193001747,1.1104257106781006,-0.357256680727005,-0.622904896736145,-0.2790242731571197,-0.2574008703231811,0.0,0.0,0.077229619026184,-0.6832221150398254
-0.0721118003129959,1.096690058708191,-0.3648648262023926,-0.6126260757446289,-0.2904213070869446,-0.2279408276081085,0.0,0.0,-0.4938365221023559,-0.7874228954315186
-0.0760858505964279,1.0825133323669434,-0.3883250653743744,-0.6319113969802856,-0.2997781634330749,-0.1871366202831268,0.0,0.0,-0.1439201235771179,0.15937340259552
-0.0802038162946701,1.0678551197052002,-0.4028322100639343,-0.6533588767051697,-0.3090451061725616,-0.1853394657373428,0.0,0.0,-0.1101174354553222,0.5719826221466064
-0.0844247788190841,1.0526931285858154,-0.4121704995632171,-0.6760095357894897,-0.3193446397781372,-0.2059905230998993,0.0,0.0,0.4874845743179321,-0.0646735429763794
-0.0885344520211219,1.038127303123474,-0.4012446403503418,-0.64954674243927,-0.3294677436351776,-0.2024619132280349,0.0,0.0,0.1021472215652465,-0.1813849806785583
-0.0927427262067794,1.0235199928283691,-0.4110060334205627,-0.6514864563941956,-0.3397284150123596,-0.205213576555252,0.0,0.0,0.1264772415161132,-0.5370181798934937
-0.0970101356506347,1.009260892868042,-0.4180070459842682,-0.6358279585838318,-0.3488876223564148,-0.1831840574741363,0.0,0.0,-0.3193696737289428,-0.6940795183181763
-0.1014800071716308,0.9945446848869324,-0.4398689270019531,-0.6557995080947876,-0.3563709855079651,-0.1496678292751312,0.0,0.0,0.2535092830657959,0.7031428813934326
-0.1058629974722862,0.97998046875,-0.4299559593200683,-0.6493927836418152,-0.365164965391159,-0.1758796125650406,0.0,0.0,0.3286616802215576,-0.1571240425109863
-0.1101593002676963,0.965778648853302,-0.4214860796928406,-0.6332936882972717,-0.3737754821777344,-0.1722103208303451,0.0,0.0,0.5433392524719238,0.6272914409637451
-0.1144241318106651,0.95167338848114,-0.417210966348648,-0.6293574571609497,-0.3836200535297394,-0.1968913972377777,0.0,0.0,-0.0764231085777282,0.5916364192962646
-0.1187859550118446,0.9370628595352172,-0.4258527755737304,-0.652176022529602,-0.3946353793144226,-0.2203068286180496,0.0,0.0,0.5580825805664062,0.5900993347167969
-0.1229785904288292,0.9230735898017884,-0.4078853726387024,-0.6249504685401917,-0.4068309366703033,-0.2439113855361938,0.0,0.0,-0.3283973932266235,0.1825253963470459
-0.1273148506879806,0.9086031317710876,-0.4224291443824768,-0.6464005708694458,-0.4189020991325378,-0.2414240390062332,0.0,0.0,0.3830856084823608,-0.1953848004341125
-0.1316112577915191,0.8945988416671753,-0.4182319641113281,-0.6258428692817688,-0.4312611222267151,-0.2471807450056076,0.0,0.0,0.5539474487304688,-0.2363721132278442
-0.1357398033142089,0.8807114362716675,-0.402120977640152,-0.6205565333366394,-0.4429566264152527,-0.2339101731777191,0.0,0.0,-0.1981181502342224,-0.4794304370880127
-0.1400116980075836,0.8663423657417297,-0.4166319966316223,-0.6420050263404846,-0.4545249342918396,-0.2313664704561233,0.0,0.0,0.8965320587158203,-0.1291142702102661
-0.1440580338239669,0.8522345423698425,-0.394723892211914,-0.6302859783172607,-0.4654386043548584,-0.2182735949754715,0.0,0.0,0.7111915349960327,-0.4030303359031677
-0.1481480598449707,0.8380818963050842,-0.39909628033638,-0.6323609948158264,-0.4764195680618286,-0.2196193933486938,0.0,0.0,0.789645791053772,0.2633786201477051
-0.1521708518266677,0.8238958120346069,-0.3927376866340637,-0.6338145136833191,-0.4870432615280151,-0.2124739438295364,0.0,0.0,0.9645273685455322,-0.0566098690032959
-0.1560235917568206,0.8098810911178589,-0.3761903643608093,-0.6261118650436401,-0.4972050487995147,-0.2032357454299926,0.0,0.0,0.8139348030090332,-0.8534653186798096
-0.1597571372985839,0.7967439889907837,-0.3658315539360046,-0.586617648601532,-0.5056633353233337,-0.1691654473543167,0.0,0.0,0.8255999088287354,0.1108282804489135
-0.1633393317461013,0.7843737602233887,-0.3502457737922668,-0.5527554750442505,-0.5146756172180176,-0.1802466809749603,0.0,0.0,0.2414151430130005,-0.8023132085800171
-0.1669464111328125,0.7720777988433838,-0.3543616235256195,-0.5489027500152588,-0.521885335445404,-0.1441943943500518,0.0,0.0,0.8947341442108154,-0.5892449617385864
-0.1702566146850586,0.7600535154342651,-0.3263030648231506,-0.5362303853034973,-0.5272626876831055,-0.1075465902686119,0.0,0.0,0.9115078449249268,0.481309175491333
-0.1733368933200836,0.7487015128135681,-0.3031677007675171,-0.5064350366592407,-0.5328299403190613,-0.1113447174429893,0.0,0.0,0.9398667812347412,-0.7380666732788086
-0.1762246191501617,0.737475574016571,-0.2856499552726745,-0.5001662373542786,-0.5364110469818115,-0.0716225951910018,0.0,0.0,0.9267828464508056,-0.6650049090385437
-0.1788166016340255,0.7270076870918274,-0.2574213147163391,-0.465941846370697,-0.5384461283683777,-0.0407016314566135,0.0,0.0,0.8239494562149048,-0.4077881574630737
-0.1811314523220062,0.7166233062744141,-0.2304783314466476,-0.4619334042072296,-0.5396105647087097,-0.0232887100428342,0.0,0.0,0.8287508487701416,-0.9131925106048584
-0.1834810227155685,0.7065685391426086,-0.2355590611696243,-0.4466388821601867,-0.5389134287834167,0.013942708261311,0.0,0.0,0.84405517578125,-0.7309421300888062
-0.1854619085788726,0.6971377730369568,-0.2003561705350875,-0.4182449877262115,-0.5363056063652039,0.0521566681563854,0.0,0.0,0.883755087852478,-0.5578533411026001
-0.1870809495449066,0.6881225109100342,-0.1656997799873352,-0.3991814851760864,-0.5319535732269287,0.0870402231812477,0.0,0.0,0.940830945968628,-0.762681245803833
-0.1883134841918945,0.6798543334007263,-0.1287461221218109,-0.3653331696987152,-0.5256699919700623,0.1256720125675201,0.0,0.0,0.7115886211395264,-0.849437415599823
-0.1894042938947677,0.6722817420959473,-0.1161581650376319,-0.3338470458984375,-0.5176204442977905,0.1609905958175659,0.0,0.0,0.8326148986816406,-0.7523226737976074
-0.1904273033142089,0.6647545695304871,-0.1109750866889953,-0.3312742114067077,-0.5077759027481079,0.1968893110752105,0.0,0.0,0.8794100284576416,-0.7445427775382996
-0.191354364156723,0.6579274535179138,-0.102683201432228,-0.2997640669345855,-0.4965382814407348,0.2247526198625564,0.0,0.0,0.9595518112182616,-0.5108774304389954
-0.1920220404863357,0.6513450741767883,-0.0782507136464119,-0.2884609997272491,-0.4836947619915008,0.2568703293800354,0.0,0.0,0.2457454204559326,-0.8724623918533325
-0.1926487982273101,0.6449302434921265,-0.0759539976716041,-0.2805262804031372,-0.4689363241195678,0.2951688170433044,0.0,0.0,0.2114483118057251,0.078373908996582
-0.193268209695816,0.6384246945381165,-0.0754106938838958,-0.2846678793430328,-0.4540891349315643,0.2969440817832947,0.0,0.0,0.5934545993804932,-0.6816656589508057
-0.1939318627119064,0.6323286890983582,-0.0810476243495941,-0.2662421762943268,-0.4380205869674682,0.3213710486888885,0.0,0.0,0.2152061462402343,0.3746247291564941
-0.1944419890642166,0.6265983581542969,-0.0659124329686164,-0.2501255869865417,-0.4218301773071289,0.3238082826137543,0.0,0.0,0.2062373161315918,0.3624587059020996
-0.1949360817670822,0.6206437349319458,-0.0647144392132759,-0.2601595520973205,-0.4053210318088531,0.3301830589771271,0.0,0.0,-0.1903055906295776,0.459081768989563
-0.1955545395612716,0.6142098307609558,-0.0772825926542282,-0.2816221117973327,-0.3887780010700226,0.330860286951065,0.0,0.0,-0.0217077732086181,0.2147097587585449
-0.1962951719760894,0.6072968244552612,-0.0896449834108352,-0.3030851781368255,-0.3722091913223266,0.3313761055469513,0.0,0.0,-0.0518521666526794,-0.5197682976722717
-0.1971992552280426,0.5999324917793274,-0.1072762459516525,-0.3230155408382416,-0.3543875813484192,0.3564324378967285,0.0,0.0,0.4141483306884765,-0.1652243137359619
-0.1980114877223968,0.5928253531455994,-0.0983306095004081,-0.3117571771144867,-0.3364357948303222,0.3590356707572937,0.0,0.0,0.2311818599700927,-0.1121741533279419
-0.1988217383623123,0.5861783623695374,-0.0978188514709472,-0.2916074991226196,-0.3189289271831512,0.3501372933387756,0.0,0.0,-0.3575584888458252,-0.2727746963500976
-0.1997445076704025,0.5790528059005737,-0.1091587990522384,-0.3130747675895691,-0.3014325797557831,0.3499274849891662,0.0,0.0,-0.0213150382041931,0.4335037469863891
-0.2007768154144287,0.5714487433433533,-0.1201851814985275,-0.3345423936843872,-0.28395676612854,0.3495166003704071,0.0,0.0,0.1892999410629272,0.4080930948257446
-0.2018029242753982,0.5636825561523438,-0.119836613535881,-0.3419066369533539,-0.2662855684757232,0.3534248471260071,0.0,0.0,-0.4098458290100097,0.7599895000457764
-0.2028785198926925,0.5554081797599792,-0.1233869940042495,-0.3649557828903198,-0.2501214146614074,0.3232836425304413,0.0,0.0,0.5423934459686279,0.538217306137085
-0.203836053609848,0.5477228760719299,-0.1105113178491592,-0.3391278982162475,-0.2351147085428238,0.3001341521739959,0.0,0.0,-0.8412176966667175,0.701329231262207
-0.2048266381025314,0.5395428538322449,-0.1122234836220741,-0.3615131676197052,-0.2217695415019989,0.2669033706188202,0.0,0.0,0.6959704160690308,0.6395431756973267
-0.2057947665452957,0.5321409702301025,-0.1083786860108375,-0.3272766172885895,-0.210076704621315,0.2338563948869705,0.0,0.0,0.5408892631530762,0.6136242151260376
-0.2068662643432617,0.5247313380241394,-0.1171404123306274,-0.3279317021369934,-0.2000045478343963,0.2014431953430175,0.0,0.0,0.1221108436584472,0.9605504274368286
-0.2078047692775726,0.5176059007644653,-0.101849615573883,-0.3156256377696991,-0.1919604241847992,0.1608826220035553,0.0,0.0,0.6459174156188965,0.989377498626709
-0.2087450474500656,0.5108534097671509,-0.0998051464557647,-0.2993743121623993,-0.1861497312784195,0.1162138953804969,0.0,0.0,0.6081516742706299,0.8122043609619141
-0.2096279114484787,0.504593551158905,-0.092229776084423,-0.2777251601219177,-0.1821925491094589,0.0791437402367591,0.0,0.0,-0.840793788433075,0.915541172027588
-0.2105045765638351,0.4978370368480682,-0.0896790400147438,-0.3000436127185821,-0.1801733076572418,0.0403847210109233,0.0,0.0,-0.8736065626144409,0.7985895872116089
-0.2113679945468902,0.4905791282653808,-0.0863676592707634,-0.3225674331188202,-0.1801420897245407,0.000624120410066,0.0,0.0,-0.2494211196899414,0.9255597591400146
-0.2122088968753814,0.4828098714351654,-0.0820240750908851,-0.3455528616905212,-0.182214468717575,-0.04144749045372,0.0,0.0,0.2965854406356811,0.0771905183792114
-0.2129652053117752,0.4750050008296966,-0.0737192332744598,-0.3471196591854095,-0.1841326206922531,-0.0383630916476249,0.0,0.0,0.6554887294769287,-0.834035336971283
-0.2135579138994217,0.4675348699092865,-0.0591040439903736,-0.3320247232913971,-0.1843012571334839,-0.0033728249836713,0.0,0.0,-0.5758953094482422,-0.2699748277664184
-0.2141804695129394,0.4595828652381897,-0.0618796646595001,-0.3534707129001617,-0.1846806108951568,-0.0075869960710406,0.0,0.0,-0.3475181460380554,-0.1746362447738647
-0.2148253917694091,0.4511489272117615,-0.0638932734727859,-0.3749169409275055,-0.1852847933769226,-0.0120838088914752,0.0,0.0,0.388097882270813,-0.3188245296478271
-0.2153421342372894,0.4431655406951904,-0.0509537868201732,-0.3549070656299591,-0.1860076934099197,-0.0144580276682972,0.0,0.0,0.5563292503356934,0.0857282876968383
-0.2156344354152679,0.4355940520763397,-0.0287982523441314,-0.3365629017353058,-0.1864409297704696,-0.008664796128869,0.0,0.0,0.1603710651397705,-0.851245641708374
-0.2158701419830322,0.4278658628463745,-0.0246107764542102,-0.3433457612991333,-0.1853972524404525,0.0208735801279544,0.0,0.0,-0.631851077079773,-0.1124758124351501
-0.2160975039005279,0.4196558594703674,-0.0234977658838033,-0.364792913198471,-0.1846341043710708,0.0152629166841506,0.0,0.0,0.1270062923431396,-0.4135178327560425
-0.2161440402269363,0.4118160903453827,-0.0053902519866824,-0.3483442962169647,-0.1838979423046112,0.014723096974194,0.0,0.0,0.2836556434631347,-0.3100743293762207
-0.2161040306091308,0.4041516184806824,0.0036584299523383,-0.3405985236167907,-0.1835528463125229,0.00690199714154,0.0,0.0,-0.0501546263694763,-0.4308881759643554
-0.2160330712795257,0.3960055112838745,0.0070696324110031,-0.3620461225509643,-0.1835279315710067,0.0004982586833648,0.0,0.0,0.7380154132843018,-0.4235124588012695
-0.2156999558210373,0.3884353637695312,0.0331955142319202,-0.3364364504814148,-0.1834123134613037,0.0023122804705053,0.0,0.0,0.1091625690460205,0.1653460264205932
-0.2152651846408844,0.3811362683773041,0.0438717938959598,-0.3244517147541046,-0.1838079690933227,-0.0079131796956062,0.0,0.0,-0.54988694190979,0.0842217206954956
-0.2147785127162933,0.3733556270599365,0.0494139268994331,-0.3458999395370483,-0.1845604926347732,-0.01505056489259,0.0,0.0,0.4558429718017578,-0.2385830879211425
-0.2141745090484619,0.3657464683055877,0.0616146512329578,-0.3383358716964721,-0.185782715678215,-0.0244441200047731,0.0,0.0,-0.6378799676895142,-0.323908269405365
-0.2135059833526611,0.3576559126377105,0.0684430375695228,-0.3597846031188965,-0.1873842030763626,-0.0320296958088874,0.0,0.0,0.2483657598495483,-0.3379684090614319
-0.2128051221370697,0.3496988415718078,0.0725943222641944,-0.3539662659168243,-0.1899013817310333,-0.0503439493477344,0.0,0.0,0.6233490705490112,-0.4965312480926513
-0.2117927968502044,0.3422709703445434,0.103656992316246,-0.3304378092288971,-0.1923370957374572,-0.0487143211066722,0.0,0.0,-0.1580109000205993,-0.8565891981124878
-0.2107599228620529,0.3343718349933624,0.1045845001935958,-0.3512404561042785,-0.1936427950859069,-0.026113798841834,0.0,0.0,-0.3731088638305664,-0.1424805521965026
-0.2096409797668457,0.3259913921356201,0.1136064678430557,-0.3726900517940521,-0.1953671425580978,-0.0344870872795581,0.0,0.0,0.4268652200698852,-0.870855450630188
-0.2083897590637207,0.3181494772434234,0.1255472600460052,-0.3485879004001617,-0.1957898586988449,-0.0084543023258447,0.0,0.0,-0.8476040363311768,-0.7039521932601929
-0.2070840299129486,0.3098465204238891,0.13034488260746,-0.3689895570278168,-0.1955637633800506,0.0045219911262393,0.0,0.0,-0.3968929052352905,-0.0867949724197387
-0.2056794613599777,0.3010622262954712,0.1406753808259964,-0.3904394805431366,-0.1957811266183853,-0.0043472461402416,0.0,0.0,-0.1060751676559448,-0.593682587146759
-0.2042180001735687,0.2918164134025574,0.1456053555011749,-0.4108565151691437,-0.1952386200428009,0.0108501594513654,0.0,0.0,0.7149175405502319,-0.2734967470169067
-0.2024301588535308,0.2832738161087036,0.1784095466136932,-0.379618763923645,-0.1948627382516861,0.0075177028775215,0.0,0.0,-0.6810100674629211,-0.8833043575286865
-0.200593039393425,0.274263322353363,0.1822727769613266,-0.4002802670001983,-0.1934177726507187,0.0288995392620563,0.0,0.0,-0.2432339191436767,-0.9767242670059204
-0.1987347602844238,0.2647999823093414,0.182511419057846,-0.4201623201370239,-0.19008269906044,0.0667013674974441,0.0,0.0,0.5233567953109741,-0.9621331691741944
-0.1968791037797927,0.2556120157241821,0.180929884314537,-0.4077703058719635,-0.1854302585124969,0.0930484905838966,0.0,0.0,-0.1410776972770691,-0.7290276288986206
-0.194964975118637,0.2459591478109359,0.1857464611530304,-0.4283189177513122,-0.1797450333833694,0.1137046366930008,0.0,0.0,-0.3670605421066284,-0.8127332329750061
-0.1929921209812164,0.2358404994010925,0.1905512511730194,-0.4489167332649231,-0.1729883402585983,0.1351338326930999,0.0,0.0,-0.2959214448928833,-0.8628195524215698
-0.1909511536359787,0.2252472788095474,0.1964826881885528,-0.4699452817440033,-0.1653742343187332,0.1522819846868515,0.0,0.0,0.6410434246063232,-0.3169128894805908
-0.188579648733139,0.2151543647050857,0.2295916378498077,-0.4477513432502746,-0.1578088253736496,0.1513083577156067,0.0,0.0,-0.2496137022972107,-0.9395139217376708
-0.1861523687839508,0.2046065628528595,0.2338551580905914,-0.4678725898265838,-0.1489367932081222,0.1774399280548095,0.0,0.0,0.1685450077056884,-0.9825835824012756
