x_pos,y_pos,x_vel,y_vel,angle,ang_vel,leg_1,leg_2,main_booster,lat_booster
-0.0015064239269122,1.4035327434539795,-0.1533346474170684,-0.3283291757106781,0.0024087643250823,0.0475629158318042,0.0,0.0,-0.7641596794128418,0.6033647060394287
-0.0029441833030432,1.3960740566253662,-0.1455069482326507,-0.3315009474754333,0.0041204062290489,0.0342367254197597,0.0,0.0,-0.4875153303146362,0.931931972503662
-0.0042751310393214,1.388516902923584,-0.1332143098115921,-0.3358736336231231,0.0042498921975493,0.0025900299660861,0.0,0.0,-0.5175239443778992,0.3970513343811035
-0.0055884360335767,1.3808679580688477,-0.1321500837802887,-0.3399561047554016,0.0050592264160513,0.0161882378160953,0.0,0.0,0.137545108795166,0.8947992324829102
-0.0067123412154614,1.373805046081543,-0.1121615394949913,-0.3139134347438812,0.0048332521691918,-0.0045200348831713,0.0,0.0,-0.6127802133560181,0.6928529739379883
-0.0077518462203443,1.3666496276855469,-0.1027278155088424,-0.3180153667926788,0.0036227891687303,-0.0242115799337625,0.0,0.0,-0.2666552662849426,-0.1851652860641479
-0.0087739946320652,1.359402418136597,-0.101698949933052,-0.3220915198326111,0.0031189010478556,-0.0100787933915853,0.0,0.0,-0.2357194423675537,0.5081958770751953
-0.0097288135439157,1.3520653247833252,-0.094427153468132,-0.3260916173458099,0.0020728865638375,-0.020922165364027,0.0,0.0,-0.6808391809463501,0.2746061086654663
-0.0106663703918457,1.3446365594863892,-0.093431755900383,-0.3301702737808227,0.0017480761744081,-0.0064965798519551,0.0,0.0,-0.4275825023651123,0.7157987356185913
-0.0115305902436375,1.3371206521987915,-0.0853935480117797,-0.3340423703193664,0.0007337529095821,-0.0202882606536149,0.0,0.0,-0.843529999256134,0.2169078588485717
-0.0123778339475393,1.3295129537582395,-0.0844371542334556,-0.338121235370636,0.0004530102596618,-0.0056154979392886,0.0,0.0,-0.7354165315628052,0.5637364387512207
-0.0131586072966456,1.321812391281128,-0.0772772580385208,-0.3422500193119049,-0.0003381028072908,-0.0158237535506486,0.0,0.0,-0.8618391156196594,0.3387305736541748
-0.0139227863401174,1.3140199184417725,-0.0763666629791259,-0.3463287949562073,-0.0003853787202388,-0.0009459143620915,0.0,0.0,-0.9343937039375304,0.507256031036377
-0.0146260261535644,1.3061308860778809,-0.0698902159929275,-0.3506192564964294,-0.0008062626002356,-0.0084186093881726,0.0,0.0,-0.8872969150543213,-0.1572523117065429
-0.0153129575774073,1.2981503009796145,-0.0690323561429977,-0.354698121547699,-0.0004747265193145,0.0066311531700193,0.0,0.0,-0.9573177695274352,0.5250327587127686
-0.0159351341426372,1.2900716066360474,-0.0620626807212829,-0.3590530753135681,-0.0006188270053826,-0.0028822408057749,0.0,0.0,-0.940581202507019,0.7481169700622559
-0.0164690017700195,1.2819098234176636,-0.0521615967154502,-0.3627485930919647,-0.0018271472072228,-0.024168811738491,0.0,0.0,-0.6676373481750488,0.5123722553253174
-0.0169374458491802,1.2736515998840332,-0.045117400586605,-0.3670289218425751,-0.0035298054572194,-0.0340562984347343,0.0,0.0,-0.9317989349365234,0.5412533283233643
-0.0173410419374704,1.26530659198761,-0.038151241838932,-0.3708948493003845,-0.0057145748287439,-0.0436992011964321,0.0,0.0,-0.9578157663345336,0.1902778148651123
-0.0177298542112112,1.2568697929382324,-0.0374479629099369,-0.3749742209911346,-0.0071308780461549,-0.0283285733312368,0.0,0.0,-0.96288001537323,-0.4555477499961853
-0.0181042663753032,1.2483413219451904,-0.0367845334112644,-0.3790531456470489,-0.0077769756317138,-0.0129231242462992,0.0,0.0,-0.9178285598754884,0.2600346803665161
-0.0184646602720022,1.2397208213806152,-0.0361626036465168,-0.3831319212913513,-0.0076505565084517,0.0025286132004112,0.0,0.0,-0.9002858400344849,-0.5129625201225281
-0.0188431739807128,1.2310081720352173,-0.0395763739943504,-0.387222021818161,-0.0059500797651708,0.0340124629437923,0.0,0.0,-0.9373216032981871,0.3502064943313598
-0.019208526238799,1.2222037315368652,-0.0390455648303031,-0.3913009762763977,-0.0034741233102977,0.0495238788425922,0.0,0.0,-0.9948855638504028,0.8283940553665161
-0.0195111278444528,1.213309645652771,-0.0322774089872837,-0.3952931761741638,-0.0014793738955631,0.0398985408246517,0.0,0.0,-0.98556250333786,-0.0784969329833984
-0.0198014266788959,1.2043023109436035,-0.031840294599533,-0.4003263413906097,0.0012946127681061,0.0554795935750007,0.0,0.0,-0.8408879041671753,0.5902429819107056
-0.0200328826904296,1.195206880569458,-0.025546196848154,-0.404235303401947,0.0036677478346973,0.0474625304341316,0.0,0.0,-0.95263671875,0.3507109880447387
-0.0202528946101665,1.1860201358795166,-0.0251995436847209,-0.4083130657672882,0.0068223839625716,0.0630928575992584,0.0,0.0,-0.9193198084831238,0.1411458253860473
-0.0204620361328125,1.1767418384552002,-0.0249042846262455,-0.4123913645744324,0.0107595166191458,0.0787427797913551,0.0,0.0,-0.9667744636535645,0.5310869216918945
-0.0206202510744333,1.1673709154129028,-0.0195714440196752,-0.4165227711200714,0.0144607461988925,0.0740243345499038,0.0,0.0,-0.982073962688446,0.1062697172164917
-0.0207687374204397,1.1579084396362305,-0.0193842630833387,-0.4206019341945648,0.0189459398388862,0.089703619480133,0.0,0.0,-0.982602059841156,0.6710188388824463
-0.0208615306764841,1.1483521461486816,-0.0134474663063883,-0.4247826039791107,0.0230537485331296,0.0821560099720954,0.0,0.0,-0.9617190957069396,0.3928440809249878
-0.0209457390010356,1.138704538345337,-0.0133749339729547,-0.428862601518631,0.0279463194310665,0.0978517234325409,0.0,0.0,-0.9573479890823364,0.6898958683013916
-0.0209729187190532,1.1289616823196411,-0.0072274208068847,-0.4331077933311462,0.0323975794017314,0.089025042951107,0.0,0.0,-0.9626176953315736,0.9502007961273192
-0.0209155082702636,1.1191333532333374,0.002405512612313,-0.4368913471698761,0.0356924571096897,0.0658974274992942,0.0,0.0,-0.9643265008926392,0.6236574649810791
-0.0208005905151367,1.1092212200164795,0.0086601441726088,-0.4406122267246246,0.0384934917092323,0.0560206398367881,0.0,0.0,-0.97392338514328,0.2242071628570556
-0.0206793788820505,1.0992178916931152,0.0084867291152477,-0.444692462682724,0.0420790649950504,0.0717115849256515,0.0,0.0,-0.9496448040008544,0.5102101564407349
-0.020509909838438,1.08912992477417,0.0136200608685612,-0.4484477937221527,0.0453688837587833,0.0657962411642074,0.0,0.0,-0.9556551575660706,0.7728042602539062
-0.0202787406742572,1.078963279724121,0.02045688778162,-0.4519306421279907,0.0480035580694675,0.0526932477951049,0.0,0.0,-0.9843685626983644,0.1520349979400634
-0.0200432781130075,1.068705677986145,0.0200887005776166,-0.4560113847255707,0.0514208450913429,0.0683457404375076,0.0,0.0,-0.9592326879501344,0.8349404335021973
-0.0197502132505178,1.05836820602417,0.0264425687491893,-0.4595466554164886,0.0542515069246292,0.0566132254898548,0.0,0.0,-0.8437716960906982,0.8287729024887085
-0.0193753242492675,1.0479440689086914,0.0358505025506019,-0.4633526504039764,0.0558756068348884,0.0324816182255744,0.0,0.0,-0.9513074159622192,0.8065654039382935
-0.0189237594604492,1.037426233291626,0.0446032509207725,-0.4674829244613647,0.0564163550734519,0.0108150215819478,0.0,0.0,-0.9269691109657288,0.3967647552490234
-0.0184706691652536,1.0268170833587646,0.0439700856804847,-0.4715636372566223,0.0577345862984657,0.0263646598905324,0.0,0.0,-0.9249786138534546,0.7667520046234131
-0.017959976568818,1.0161128044128418,0.050393771380186,-0.4757747948169708,0.0584073327481746,0.0134547743946313,0.0,0.0,-0.9449408054351808,0.2741810083389282
-0.0174490921199321,1.005317211151123,0.0496292375028133,-0.4798556566238403,0.0598537363111972,0.0289280172437429,0.0,0.0,-0.9281025528907776,0.4673848152160644
-0.016938591375947,0.994430661201477,0.0487999692559242,-0.4839367568492889,0.062071543186903,0.0443561300635337,0.0,0.0,-0.8358259797096252,0.9162888526916504
-0.0163708683103323,0.9834683537483216,0.0552529506385326,-0.4872755706310272,0.0635724365711212,0.0300180725753307,0.0,0.0,-0.9390273094177246,0.6026120185852051
-0.0157681461423635,0.972423791885376,0.0589308813214302,-0.4909233152866363,0.0649029016494751,0.0266091562807559,0.0,0.0,-0.8883278965950012,0.351919412612915
-0.0151678081601858,0.9612883925437928,0.057913202792406,-0.495004653930664,0.0669964551925659,0.0418710336089134,0.0,0.0,-0.8515380024909973,0.6667612791061401
-0.0145054813474416,0.9500683546066284,0.0650156736373901,-0.498728334903717,0.068206138908863,0.0241936203092336,0.0,0.0,-0.6959834098815918,0.5017056465148926
-0.0138112064450979,0.9387640357017516,0.0683589428663253,-0.5024566650390625,0.0692677199840545,0.0212315656244754,0.0,0.0,-0.7704885005950928,0.8201037645339966
-0.0130445482209324,0.9273722767829896,0.0767846554517746,-0.5062966346740723,0.0691533163189888,-0.0022882749326527,0.0,0.0,-0.8882267475128174,-0.0448135733604431
-0.0122828483581542,0.9158892631530762,0.0755349621176719,-0.5103780031204224,0.0697868168354034,0.0126699041575193,0.0,0.0,-0.6066468358039856,0.5983004570007324
-0.0114675518125295,0.9043192863464355,0.0816350281238555,-0.5142147541046143,0.0696780979633331,-0.0021743536926805,0.0,0.0,-0.8436555862426758,-0.1129467487335205
-0.0106583591550588,0.8926583528518677,0.0802796855568885,-0.5182961225509644,0.0703076347708702,0.0125909047201275,0.0,0.0,-0.8043262958526611,0.6433929204940796
-0.0097974780946969,0.8809184432029724,0.086215078830719,-0.5217691659927368,0.0701874271035194,-0.0024045244790613,0.0,0.0,-0.7748673558235168,-0.0145260691642761
-0.0089437486603856,0.8690875172615051,0.0847618132829666,-0.5258504748344421,0.0707942619919776,0.0121366884559392,0.0,0.0,-0.8344651460647583,0.6638985872268677
-0.0080391885712742,0.8571786284446716,0.0906226187944412,-0.5292790532112122,0.0706341713666915,-0.0032021037768572,0.0,0.0,-0.862335741519928,0.6788026094436646
-0.007096195127815,0.8451895117759705,0.0949252918362617,-0.5328205823898315,0.0700059831142425,-0.0125638078898191,0.0,0.0,-0.8760316371917725,0.1120561361312866
-0.006162071134895,0.8331093192100525,0.0933402404189109,-0.5369017124176025,0.0700847879052162,0.0015759576344862,0.0,0.0,-0.843650758266449,0.5301830768585205
-0.005202293395996,0.8209444880485535,0.0960799902677536,-0.5406559109687805,0.0699823051691055,-0.0020492966286838,0.0,0.0,-0.767813503742218,0.3638272285461426
-0.0042522428557276,0.8086884617805481,0.0944172739982605,-0.5447369813919067,0.0705710351467132,0.0117745399475097,0.0,0.0,-0.8480080962181091,0.4181442260742187
-0.0033122063614428,0.7963414192199707,0.0927187353372573,-0.548818051815033,0.0718422830104827,0.0254247244447469,0.0,0.0,-0.9565272331237792,0.6877748966217041
-0.0023274421691894,0.7839041352272034,0.0979110151529312,-0.5527938604354858,0.072400763630867,0.0111699011176824,0.0,0.0,-0.8952996134757996,0.6164376735687256
-0.0013150215381756,0.7713803052902222,0.1009952872991561,-0.5566249489784241,0.0726474374532699,0.0049333022907376,0.0,0.0,-0.5649413466453552,0.0445212125778198
-0.00031385422335,0.758765459060669,0.0992008596658706,-0.5607059597969055,0.073547177016735,0.0179948471486568,0.0,0.0,-0.9536173939704896,0.6739377975463867
0.0007363319164142,0.7460581064224243,0.10500118881464,-0.5647713541984558,0.073566123843193,0.0003790036425925,0.0,0.0,-0.825575590133667,-0.4739370346069336
0.0017744064098224,0.7332596182823181,0.1031520366668701,-0.5688522458076477,0.0742155462503433,0.0129881482571363,0.0,0.0,-0.9231879115104676,0.7765353918075562
0.0028518675826489,0.7203723788261414,0.1077828854322433,-0.5727617144584656,0.0741792842745781,-0.0007254412048496,0.0,0.0,-0.9799520969390868,0.197242259979248
0.00391645450145,0.7073940634727478,0.1058857887983322,-0.5768425464630127,0.0747483074665069,0.0113804545253515,0.0,0.0,-0.8444212675094604,-0.6345223188400269
0.0049202917143702,0.6943204998970032,0.0979993343353271,-0.5811681151390076,0.0771077722311019,0.047189213335514,0.0,0.0,-0.6944050788879395,0.9644304513931274
0.0059698102995753,0.6811735033988953,0.1035117954015731,-0.584384560585022,0.0785317197442054,0.0284789092838764,0.0,0.0,-0.9950385093688964,0.2235088348388672
0.0070054056122899,0.6679354310035706,0.101554550230503,-0.5884653925895691,0.080518253147602,0.0397308021783828,0.0,0.0,-0.9278662204742432,0.8506863117218018
0.0080904960632324,0.6546072363853455,0.1075641140341758,-0.5924131274223328,0.0814540833234787,0.0187164638191461,0.0,0.0,-0.0019265413284301,0.700979471206665
0.0092229843139648,0.6411880254745483,0.1133348122239112,-0.596402108669281,0.0813688039779663,-0.0017055900534614,0.0,0.0,-0.9233272671699524,-0.3684871792793274
0.0103406906127929,0.6276776790618896,0.1113298088312149,-0.6004826426506042,0.0817973911762237,0.0085719991475343,0.0,0.0,-0.8357911109924316,0.1913045644760131
0.0114430431276559,0.6140760779380798,0.109311357140541,-0.6045631170272827,0.0827223286032676,0.0184985883533954,0.0,0.0,-0.5728904008865356,0.7261110544204712
0.0125945089384913,0.6003987193107605,0.1153818741440773,-0.6078723669052124,0.0824843943119049,-0.0047583999112248,0.0,0.0,-0.2855570316314697,-0.4211924076080322
0.0137302400544285,0.5866300463676453,0.1133398786187172,-0.611952543258667,0.0827058032155036,0.0044284709729254,0.0,0.0,-0.921381950378418,-0.232406735420227
0.0148497577756643,0.5727700591087341,0.1112876757979393,-0.6160327196121216,0.083367183804512,0.0132274879142642,0.0,0.0,-0.9641942977905272,-0.2346965074539184
0.0159528739750385,0.5588189363479614,0.1092262268066406,-0.6201127171516418,0.0844485610723495,0.0216274764388799,0.0,0.0,-0.8101703524589539,-0.0992155075073242
0.017039394006133,0.5447764992713928,0.1071564555168151,-0.6241926550865173,0.0859294533729553,0.029617890715599,0.0,0.0,-0.8302782773971558,0.1877050399780273
0.0181089397519826,0.5306428670883179,0.1050791963934898,-0.6282726526260376,0.0877889022231102,0.0371889807283878,0.0,0.0,-0.7829418778419495,0.5702391862869263
0.019205093383789,0.5164266228675842,0.1085072308778762,-0.6318994164466858,0.0888908430933952,0.0220389701426029,0.0,0.0,-0.8227618336677551,-0.3850026130676269
0.0202837940305471,0.5021190643310547,0.1064174026250839,-0.6359789967536926,0.0903281196951866,0.0287455227226018,0.0,0.0,-0.8115451335906982,0.4539608955383301
0.021344756707549,0.4877201020717621,0.1043224185705185,-0.6400585770606995,0.0920785591006279,0.0350088700652122,0.0,0.0,-0.517171323299408,0.4666039943695068
0.0223875045776367,0.4732299447059631,0.1022229343652725,-0.6441380977630615,0.0941197052597999,0.0408231280744075,0.0,0.0,-0.5721620321273804,0.4736148118972778
0.02341203764081,0.4586483240127563,0.1001196056604385,-0.648217499256134,0.0964288711547851,0.0461834780871868,0.0,0.0,-0.7041961550712585,0.6413333415985107
0.0244803428649902,0.4439795613288879,0.105850800871849,-0.6520111560821533,0.0974105075001716,0.0196325108408927,0.0,0.0,-0.1109259724617004,0.1698470115661621
0.0255299564450979,0.4292193353176117,0.1037414893507957,-0.6560900211334229,0.0986142829060554,0.0240755323320627,0.0,0.0,-0.0636200308799743,0.2633657455444336
0.0265604015439748,0.4143676161766052,0.1016299948096275,-0.6601687669754028,0.1000171452760696,0.0280575212091207,0.0,0.0,0.2104835510253906,0.3270193338394165
0.0276134498417377,0.4001676440238952,0.103292092680931,-0.6312480568885803,0.1020181030035018,0.0400190502405166,0.0,0.0,0.1726205348968505,0.1896136999130249
0.0286946296691894,0.3862328231334686,0.1056063771247863,-0.619497537612915,0.1045031920075416,0.0497020296752452,0.0,0.0,-0.180144727230072,0.2067738771438598
0.0297558791935443,0.3722065687179565,0.1034913808107376,-0.6235762238502502,0.1071184799075126,0.052305769175291,0.0,0.0,0.1538845300674438,0.6174767017364502
0.0308463089168071,0.3590131998062134,0.1074390187859535,-0.5864861011505127,0.1087070330977439,0.031771034002304,0.0,0.0,-0.1921866536140442,0.2222721576690673
0.0319164283573627,0.3457283079624176,0.105323776602745,-0.5905640721321106,0.1103806272149086,0.0334720090031623,0.0,0.0,0.149320363998413,-0.0358020663261413
0.0328189842402935,0.3331625461578369,0.0889139622449874,-0.5585788488388062,0.111716590821743,0.0267192982137203,0.0,0.0,-0.5165241360664368,-0.500051736831665
0.0336669906973838,0.3205019533634186,0.0825602039694786,-0.5628607869148254,0.1139460131525993,0.0445885136723518,0.0,0.0,0.1296296119689941,0.6073888540267944
0.0344426147639751,0.3085198402404785,0.0765771567821502,-0.5326144695281982,0.1149196177721023,0.0194723885506391,0.0,0.0,0.1075774431228637,0.3936449289321899
0.035084344446659,0.297184407711029,0.0634601786732673,-0.503850519657135,0.1156352758407592,0.014312645420432,0.0,0.0,0.5620303153991699,0.6937397718429565
0.0356796272099018,0.2864615023136139,0.0602720901370048,-0.4765156507492065,0.1148939058184623,-0.0148275792598724,0.0,0.0,0.4775447845458984,0.4669127464294433
0.0360881797969341,0.2764303386211395,0.0421218648552894,-0.4457319974899292,0.1136279180645942,-0.025319755077362,0.0,0.0,-0.2170348763465881,-0.2480874061584472
0.0364748947322368,0.266307383775711,0.0400175079703331,-0.4498085975646972,0.1123005822300911,-0.0265466421842575,0.0,0.0,0.5762090682983398,0.0080046653747558
0.0368635170161724,0.2571314573287964,0.0398068949580192,-0.4077470898628235,0.1113603934645652,-0.0188038423657417,0.0,0.0,0.112060546875,-0.0785368084907531
0.037243653088808,0.2482408136129379,0.0388609729707241,-0.3950769007205963,0.1105126366019249,-0.0169549193233251,0.0,0.0,0.3242226839065552,0.4527981281280517
0.0376497283577919,0.240189179778099,0.0410382971167564,-0.3578201234340668,0.1100864186882972,-0.008524402976036,0.0,0.0,0.2342355251312255,0.4759019613265991
0.0379528999328613,0.2329071611166,0.0309611763805151,-0.3236002624034881,0.1094477847218513,-0.0127726942300796,0.0,0.0,0.1701099872589111,-0.2244589328765869
0.0382680892944335,0.2264520525932312,0.0318409726023674,-0.2868694961071014,0.109126828610897,-0.0064188526012003,0.0,0.0,-0.2062325477600097,-0.322021484375
0.0385607704520225,0.2199050337076187,0.0297593418508768,-0.2909450232982635,0.1086404621601104,-0.0097275897860527,0.0,0.0,-0.2144665718078613,-0.0483656525611877
0.0388309471309185,0.2132660299539566,0.027682801708579,-0.2950204312801361,0.1079735532402992,-0.0133381467312574,0.0,0.0,0.3450591564178467,-0.2150450944900512
0.0390583984553813,0.2074990570545196,0.023384366184473,-0.2562604248523712,0.1073401123285293,-0.0126691283658146,0.0,0.0,-0.2315661907196045,0.3211120367050171
0.0392630584537982,0.2016401886940002,0.0213192962110042,-0.2603355944156647,0.1064979657530784,-0.0168432258069515,0.0,0.0,-0.5258162021636963,-0.5561329126358032
0.0393921844661235,0.1956817507743835,0.0126476036384701,-0.2648395001888275,0.1067680940032005,0.0054025002755224,0.0,0.0,0.3357526063919067,0.0306185483932495
0.0393509864807128,0.190235361456871,-0.0036735567264258,-0.2420293986797332,0.1063238531351089,-0.0088846730068326,0.0,0.0,-0.6590405106544495,0.3649277687072754
0.0392868034541606,0.1846969276666641,-0.0057177795097231,-0.2461042553186416,0.1056336462497711,-0.0138042066246271,0.0,0.0,-0.4529005289077759,0.5411438941955566
0.0392441749572753,0.1790725141763687,-0.0021726710256189,-0.2498290985822677,0.1035609245300293,-0.0414545908570289,0.0,0.0,-0.1841124892234802,-0.2965459823608398
0.0391786582767963,0.1733560413122177,-0.0042000724934041,-0.2539041340351105,0.1012206301093101,-0.0468054302036762,0.0,0.0,-0.0205392837524414,-0.1717055439949035
0.039090059697628,0.1675475239753723,-0.0062180734239518,-0.2579792737960815,0.0986029952764511,-0.0523527264595031,0.0,0.0,0.1715530157089233,-0.8276076912879944
0.0388770103454589,0.162502110004425,-0.0200588144361972,-0.224160686135292,0.0973592698574066,-0.0248744674026966,0.0,0.0,-0.6983168721199036,-0.0470122098922729
0.0386408790946006,0.1573645025491714,-0.0220558140426874,-0.2282354235649109,0.0958204194903373,-0.0307771656662225,0.0,0.0,-0.3350584506988525,-0.2556473016738891
0.0383818633854389,0.1521349102258682,-0.0240410044789314,-0.2323102056980133,0.0939784422516822,-0.0368392840027809,0.0,0.0,-0.1079023480415344,-0.6830629110336304
