x_pos,y_pos,x_vel,y_vel,angle,ang_vel,leg_1,leg_2,main_booster,lat_booster
-0.0014504432911053,1.4031671285629272,-0.1469221115112304,-0.3445897996425628,0.0016711273929104,0.0329579301178455,0.0,0.0,-0.2002201080322265,0.9528353214263916
-0.0027463913429528,1.394974946975708,-0.1291129142045974,-0.3640962541103363,0.0012000360293313,-0.0094217155128717,0.0,0.0,-0.5835872292518616,0.5908292531967163
-0.0039120675064623,1.3863205909729004,-0.114590585231781,-0.3846439123153686,-0.0007526469416916,-0.0390577465295791,0.0,0.0,-0.4120701551437378,0.039064884185791
-0.005004215054214,1.3772083520889282,-0.1071861386299133,-0.4049868285655975,-0.0027615788858383,-0.0401824042201042,0.0,0.0,-0.4343824386596679,0.1383655071258545
-0.0060231210663914,1.3676385879516602,-0.0997927039861679,-0.4253270328044891,-0.0048287385143339,-0.0413473546504974,0.0,0.0,-0.1871328353881836,0.6388227939605713
-0.0069070816971361,1.3576099872589111,-0.0846747606992721,-0.4457326829433441,-0.0085069239139556,-0.0735706761479377,0.0,0.0,-0.2591274380683899,-0.3663814067840576
-0.0077178953215479,1.3471239805221558,-0.0773069038987159,-0.4660728275775909,-0.0122449714690446,-0.0747676491737365,0.0,0.0,0.0158140659332275,-0.2250297665596008
-0.0083591463044285,1.336775302886963,-0.0607266835868358,-0.4599673449993133,-0.0156074995175004,-0.0672565847635269,0.0,0.0,-0.1207068562507629,-0.8158097267150879
-0.0089933397248387,1.3259795904159546,-0.061613880097866,-0.4798331260681152,-0.0173850189894437,-0.0355537608265876,0.0,0.0,-0.8616673946380615,-0.4810628890991211
-0.0095551488921046,1.3147261142730713,-0.0543215759098529,-0.5001705884933472,-0.0192279517650604,-0.0368618592619895,0.0,0.0,-0.7274605631828308,-0.7490552663803101
-0.0100956913083791,1.303017258644104,-0.0534027330577373,-0.5204055905342102,-0.0198643077164888,-0.0127283604815602,0.0,0.0,-0.7942600250244141,-0.7381188273429871
-0.0106160165742039,1.2908506393432615,-0.0526193603873252,-0.5407278537750244,-0.0192772932350635,0.011741236783564,0.0,0.0,-0.7327035665512085,-0.7604986429214478
-0.0111120222136378,1.278231859207153,-0.0513229370117187,-0.5608189702033997,-0.0175771228969097,0.0340064987540245,0.0,0.0,-0.4711604118347168,-0.9023590087890624
-0.0116004943847656,1.265148639678955,-0.0520918145775795,-0.5814400911331177,-0.0143633559346199,0.0642812848091125,0.0,0.0,-0.3320697546005249,-0.8489242196083069
-0.0120698930695652,1.2516179084777832,-0.0514206066727638,-0.6013284921646118,-0.0099311880767345,0.0886512994766235,0.0,0.0,-0.6626111268997192,-0.4099484086036682
-0.0124695776030421,1.237629771232605,-0.0443715415894985,-0.6216695308685303,-0.0055720279924571,0.087190918624401,0.0,0.0,-0.7615660429000854,-0.1909618973731994
-0.0128000257536768,1.22318434715271,-0.037371315062046,-0.6420106887817383,-0.0012863710289821,0.0857206732034683,0.0,0.0,-0.8033747673034668,-0.2345137596130371
-0.0130616184324026,1.208281397819519,-0.0304237492382526,-0.6623517274856567,0.002924604807049,0.0842270404100418,0.0,0.0,-0.0717427730560302,-0.2957773208618164
-0.013255214318633,1.192921161651611,-0.0235322657972574,-0.6826927661895752,0.0070600165054202,0.0827154293656349,0.0,0.0,-0.6273881793022156,0.2167600393295288
-0.0133811952546238,1.1771034002304075,-0.0167005397379398,-0.7030338644981384,0.0111190229654312,0.0811873599886894,0.0,0.0,-0.747093915939331,-0.1002976894378662
-0.0134402271360158,1.1608283519744873,-0.0099322609603405,-0.7233750224113464,0.0151008581742644,0.0796439796686172,0.0,0.0,-0.2816358804702759,0.3973749876022339
-0.0134330745786428,1.144095778465271,-0.0032312315888702,-0.7437161207199097,0.0190048441290855,0.0780864804983139,0.0,0.0,-0.4606151580810547,0.2129838466644287
-0.0133605003356933,1.1269055604934692,0.0033987239003181,-0.7640572190284729,0.0228303186595439,0.076516106724739,0.0,0.0,-0.4603546857833862,0.0791590213775634
-0.0132230762392282,1.109258055686951,0.0099537391215562,,0.02657669223845,0.0749341323971748,0.0,0.0,-0.4387529492378235,0.545590877532959
-0.0129887582734227,1.091156005859375,0.0205643344670534,-0.8045989871025085,0.0294141676276922,0.056754358112812,0.0,0.0,-0.1633397936820984,0.3031442165374756
-0.0126908300444483,1.0725746154785156,0.0270025692880153,-0.8258927464485168,0.0321720950305461,0.0551586970686912,0.0,0.0,-0.0880588293075561,0.5368330478668213
-0.0122879026457667,1.05354106426239,0.0386733263731002,-0.8459670543670654,0.0337755270302295,0.0320685803890228,0.0,0.0,0.525662899017334,-0.0080539584159851
-0.0119697572663426,1.035186529159546,0.0308311581611633,-0.8157849907875061,0.0347413159906864,0.0193157400935888,0.0,0.0,0.0709271430969238,0.0368118286132812
-0.0116931917145848,1.017122507095337,0.027160283178091,-0.8028561472892761,0.0352366007864475,0.0099057732149958,0.0,0.0,-0.4614064693450928,0.2669830322265625
-0.0113570215180516,0.9986009001731871,0.0331898778676986,-0.8231936097145081,0.035652931779623,0.0083265462890267,0.0,0.0,0.1171892881393432,0.6339712142944336
-0.0109187122434377,0.9804904460906982,0.0447519496083259,-0.8048880100250244,0.0347478464245796,-0.0181016437709331,0.0,0.0,0.2385011911392212,-0.5951101779937744
-0.0105457305908203,0.9624055027961732,0.0372141078114509,-0.8037751913070679,0.034831702709198,0.0016771974042057,0.0,0.0,-0.2007570266723632,0.5669400691986084
-0.0100778583437204,0.9438703656196594,0.047762993723154,-0.8237634897232056,0.0338637419044971,-0.0193592254072427,0.0,0.0,0.3964657783508301,0.5819392204284668
-0.0095778461545705,0.9253286719322203,0.052365206182003,-0.8240229487419128,0.0315345861017704,-0.0465832129120826,0.0,0.0,0.4256210327148437,-0.2885453104972839
-0.0090268133208155,0.907141387462616,0.0574682466685771,-0.8082687258720398,0.0291932206600904,-0.0468271374702453,0.0,0.0,0.033583641052246,-0.2218859195709228
-0.0084255216643214,0.8892066478729248,0.0625193938612937,-0.7970542907714844,0.0268279183655977,-0.0473061427474021,0.0,0.0,-0.3232602477073669,-0.8020592331886292
-0.0078390119597315,0.8708075881004333,0.0594382472336292,-0.8177233934402466,0.0260517057031393,-0.015524223446846,0.0,0.0,-0.3188227415084839,0.399437665939331
-0.0072023393586277,0.8519507050514221,0.064526543021202,-0.8380611538887024,0.0252001043409109,-0.0170319769531488,0.0,0.0,-0.1229715347290039,0.4261852502822876
-0.0065169334411621,0.8326365351676941,0.0694801583886146,-0.8583987951278687,0.0242737717926502,-0.018526591360569,0.0,0.0,0.4507719278335571,-0.0251342058181762
-0.0057722092606127,0.8136659264564514,0.0753664821386337,-0.843123197555542,0.0233881697058677,-0.0177119262516498,0.0,0.0,0.3579782247543335,0.4166994094848633
-0.0050842287018895,0.7951943278312683,0.0701832473278045,-0.8209368586540222,0.0220232717692852,-0.0272979773581028,0.0,0.0,-0.4012650847434997,-0.253820538520813
-0.0043516159057617,0.7762652039527893,0.074713222682476,-0.841274619102478,0.0205858536064624,-0.0287482347339391,0.0,0.0,-0.0754673480987548,-0.7293374538421631
-0.0036242485512048,0.7568690180778503,0.0730349272489547,-0.8620541095733643,0.0202937889844179,-0.0058415341190993,0.0,0.0,-0.2462173104286193,0.7446529865264893
-0.002786636352539,0.7370155453681946,0.0858816653490066,-0.8823429346084595,0.0182058475911617,-0.0417588017880916,0.0,0.0,0.2716684341430664,-0.612755537033081
-0.0019959448836743,0.7170349955558777,0.0800844132900238,-0.888009786605835,0.0172045193612575,-0.0200267843902111,0.0,0.0,0.5675585269927979,-0.554737389087677
-0.0011690140236169,0.6970669627189636,0.0825403779745101,-0.8874762058258057,0.0173551421612501,0.0030124695040285,0.0,0.0,0.7982949018478394,-0.3675652742385864
-0.0002470970212016,0.6773722171783447,0.0917969048023223,-0.8753172755241394,0.0177448261529207,0.0077934628352522,0.0,0.0,0.156272292137146,-0.5979636311531067
0.0005650520324707,0.6580981016159058,0.0798289626836776,-0.8566454648971558,0.0191141180694103,0.0273859314620494,0.0,0.0,0.7137775421142578,-0.1581366062164306
0.0012578964233398,0.6395884156227112,0.0686090886592865,-0.8226569294929504,0.0197806302458047,0.0133302314206957,0.0,0.0,0.0555001497268676,-0.4254624247550964
0.0019630431197583,0.6211082339286804,0.0699746534228324,-0.8213524222373962,0.020319489762187,0.0107772927731275,0.0,0.0,0.3036326169967651,-0.3357513546943664
0.0028029442764818,0.6028494238853455,0.0829822868108749,-0.8115106821060181,0.0213178787380456,0.019967645406723,0.0,0.0,-0.214088499546051,-0.731420636177063
0.003608512924984,0.5841360688209534,0.0779958590865135,-0.8317447304725647,0.023846548050642,0.0505732968449592,0.0,0.0,0.3299304246902466,0.3210415840148926
0.0045210840180516,0.5655049681663513,0.0883443802595138,-0.8280982375144958,0.0267203766852617,0.0574767105281353,0.0,0.0,0.7484098672866821,-0.0275858640670776
0.0054404260590672,0.5476822853088379,0.0890696942806243,-0.7921725511550903,0.0295489933341741,0.0565724372863769,0.0,0.0,0.4191493988037109,-0.5700836777687073
0.0064658164046704,0.530032217502594,0.0982707515358924,-0.7845412492752075,0.0337634831666946,0.0842897444963455,0.0,0.0,0.4273867607116699,-0.3363404273986816
0.0074177742935717,0.5125306844711304,0.0913728401064872,-0.7779329419136047,0.0375374816358089,0.0754800289869308,0.0,0.0,0.3454163074493408,0.2644847631454468
0.0084431646391749,0.4955489337444305,0.0984145104885101,-0.7548509240150452,0.0416081994771957,0.0814143419265747,0.0,0.0,0.5232200622558594,-0.1823927760124206
0.0095894811674952,0.4790496826171875,0.109975516796112,-0.7334349155426025,0.0462111569941043,0.0920592322945594,0.0,0.0,-0.3279333114624023,-0.2015566825866699
0.0107540134340524,0.4620931148529053,0.1118515729904174,-0.7537742853164673,0.0507589392364025,0.0909555554389953,0.0,0.0,0.8095498085021973,0.1932324171066284
0.0118082044646143,0.4459621012210846,0.1012730970978736,-0.7170789837837219,0.0548667758703231,0.0821566134691238,0.0,0.0,-0.0405954122543334,-0.0751670598983764
0.0128778461366891,0.4293736815452575,0.1028520688414573,-0.737417995929718,0.0589217096567153,0.081098735332489,0.0,0.0,0.7142194509506226,0.134432315826416
0.0138144493103027,0.4134083986282348,0.0901038870215416,-0.7097112536430359,0.0624435804784297,0.0704375281929969,0.0,0.0,0.5015754699707031,0.029651403427124
0.0148462299257516,0.3976999521255493,0.0991448611021041,-0.6983292698860168,0.0664341002702713,0.0798105597496032,0.0,0.0,0.406682014465332,-0.0144248604774475
0.0158743858337402,0.3823171555995941,0.098746970295906,-0.6838679909706116,0.070467971265316,0.0806771889328956,0.0,0.0,0.6363999843597412,0.3103895187377929
0.0168922431766986,0.3670717477798462,0.0977125093340873,-0.6777688264846802,0.0744893029332161,0.0804268568754196,0.0,0.0,0.6783715486526489,0.442592978477478
0.0177483558654785,0.3522529602050781,0.0821865499019622,-0.6587859392166138,0.0778817012906074,0.0678480267524719,0.0,0.0,0.8609392642974854,0.3973413705825805
0.018560791388154,0.338421106338501,0.0777560472488403,-0.614935040473938,0.0813398882746696,0.0691634714603424,0.0,0.0,0.5247933864593506,0.6558157205581665
0.0194921493530273,0.3245438635349273,0.0908262282609939,-0.6168943643569946,0.083621397614479,0.0456303507089614,0.0,0.0,0.2414674758911132,-0.2972204685211181
0.0203948970884084,0.3111704587936401,0.0879310965538024,-0.594508171081543,0.0859530866146087,0.0466337576508522,0.0,0.0,0.5067876577377319,0.4100534915924072
0.0211790092289447,0.2979735434055328,0.0764959007501602,-0.5866395831108093,0.0878450572490692,0.0378393940627574,0.0,0.0,0.6186485290527344,0.0334169864654541
0.0218178741633892,0.2852984964847564,0.0624496042728424,-0.5634228587150574,0.0892793238162994,0.0286850277334451,0.0,0.0,0.693016529083252,0.4873405694961548
0.0224330909550189,0.2731227874755859,0.059970486909151,-0.5412341356277466,0.0908189564943313,0.0307925008237361,0.0,0.0,0.7794528007507324,-0.1303882598876953
0.022828483954072,0.2618294656276703,0.0386697240173816,-0.5019801259040833,0.0916774198412895,0.0171694792807102,0.0,0.0,0.7891173362731934,0.1593263149261474
0.0232457164674997,0.2510234415531158,0.0405243672430515,-0.4803395569324493,0.0928657948970794,0.0237675253301858,0.0,0.0,0.7938998937606812,-0.5293075442314148
0.0235424041748046,0.2403787225484848,0.0275523476302623,-0.4732308685779571,0.0949631556868553,0.0419470258057117,0.0,0.0,0.2769455909729004,0.7502795457839966
0.0239320751279592,0.2296605408191681,0.0383219681680202,-0.4764046967029571,0.0956060662865638,0.0128580583259463,0.0,0.0,0.9275078773498536,-0.1073834300041198
0.0242447853088378,0.2190707474946975,0.0308303888887166,-0.4706860184669494,0.0960436835885047,0.0087524056434631,0.0,0.0,0.9519901275634766,0.5060105323791504
0.0244935993105173,0.2094313949346542,0.0255281832069158,-0.4283753335475921,0.0954057052731514,-0.0127596901729702,0.0,0.0,0.3740782737731933,-0.5788981914520264
0.0247004516422748,0.2003570944070816,0.0200384762138128,-0.4033444225788116,0.0960417240858078,0.0127202467992901,0.0,0.0,0.7454037666320801,-0.3349450230598449
0.0247020721435546,0.192097321152687,0.0001088629796868,-0.3671044409275055,0.0960980802774429,0.0011270873947069,0.0,0.0,0.7243057489395142,0.4900108575820923
0.0245311744511127,0.1838766634464264,-0.0164751876145601,-0.3653251528739929,0.0954997017979621,-0.011967783793807,0.0,0.0,0.7161843776702881,0.776623010635376
0.0243833549320697,0.1764467358589172,-0.0126815233379602,-0.330085277557373,0.0934120416641235,-0.0417533703148365,0.0,0.0,0.4207320213317871,0.840908408164978
0.0241518970578908,0.1692938953638076,-0.0191927403211593,-0.3176610171794891,0.089499644935131,-0.0782481878995895,0.0,0.0,-0.0276239514350891,0.1441794633865356
0.0239144321531057,0.1616836339235305,-0.0197706725448369,-0.3379998207092285,0.0855608731508255,-0.0787755697965622,0.0,0.0,0.4837808609008789,0.3981513977050781
0.0236063003540039,0.1545531153678894,-0.0267626736313104,-0.3166825175285339,0.081547275185585,-0.0802718251943588,0.0,0.0,0.3526570796966553,0.5556894540786743
0.0233740806579589,0.1476924568414688,-0.0181941706687212,-0.3046537935733795,0.0765728577971458,-0.0994885712862014,0.0,0.0,-0.0026885867118835,-0.0263862609863281
0.0231351852416992,0.1403744518756866,-0.0188426617532968,-0.3249934911727905,0.0715759843587875,-0.0999375060200691,0.0,0.0,0.4061582088470459,-0.4090744256973266
0.0229436866939067,0.1331204026937484,-0.0144468322396278,-0.3221863210201263,0.0669232606887817,-0.0930546447634697,0.0,0.0,0.4659469127655029,-0.8017661571502686
0.0227938648313283,0.1261752694845199,-0.0120876114815473,-0.3085448443889618,0.0640609413385391,-0.0572461783885955,0.0,0.0,0.3655532598495483,-0.8153771758079529
0.0226821899414062,0.1192606091499328,-0.010065359994769,-0.3072700798511505,0.0629621744155883,-0.0219749771058559,0.0,0.0,0.6235694885253906,-0.406262993812561
0.0225115772336721,0.1129931062459945,-0.0159028563648462,-0.2785091698169708,0.0618208423256874,-0.0228269547224044,0.0,0.0,0.0734312534332275,-0.9275760054588318
0.022254180163145,0.1070082783699035,-0.026437759399414,-0.2660218179225921,0.0625070258975029,0.0137239098548889,0.0,0.0,0.3095510005950928,0.5754609107971191
0.0221104621887207,0.1013739928603172,-0.0141146704554557,-0.2504036426544189,0.062253188341856,-0.005076783709228,0.0,0.0,-0.0190992355346679,0.3079314231872558
0.0219604484736919,0.0952820181846618,-0.0147345513105392,-0.2707413136959076,0.0619871653616428,-0.0053204796276986,0.0,0.0,0.4883730411529541,-0.7214347720146179
0.0216668136417865,0.0894071161746978,-0.0304377432912588,-0.2611531019210815,0.0630533322691917,0.0213235523551702,0.0,0.0,0.3177289962768554,-0.0809395313262939
0.021391486749053,0.0841111540794372,-0.0289138816297054,-0.2354350984096527,0.0644228011369705,0.0273895747959613,0.0,0.0,0.3493314981460571,0.4274567365646362
0.021061897277832,0.0790515765547752,-0.0342442616820335,-0.2249267846345901,0.0656968876719474,0.025481641292572,0.0,0.0,0.3247311115264892,-0.4494423866271972
0.0205859187990427,0.074479304254055,-0.0484070852398872,-0.2032484263181686,0.0665037706494331,0.0161377396434545,0.0,0.0,-0.2101050615310669,0.0572240352630615
0.0201055519282817,0.0694494098424911,-0.0488492511212825,-0.2235861718654632,0.0673067271709442,0.0160593260079622,0.0,0.0,0.1113996505737304,0.7723339796066284
0.0196066852658987,0.0647249296307563,-0.0491120181977748,-0.2099452316761016,0.0665384829044342,-0.0153649793937802,0.0,0.0,-0.0132940411567687,0.5441164970397949
0.0191412921994924,0.0595504157245159,-0.0448158308863639,-0.2299031764268875,0.0648343041539192,-0.0340833589434623,0.0,0.0,0.0319362878799438,0.8667395114898682
0.0187032707035541,0.054385982453823,-0.0403393320739269,-0.2293844670057296,0.0614059381186962,-0.0685674473643302,0.0,0.0,0.445233941078186,0.6538870334625244
0.0181705467402935,0.0495469197630882,-0.0482663698494434,-0.2148714214563369,0.0564587824046611,-0.0989430248737335,0.0,0.0,0.376990795135498,0.5653910636901855
0.0175201408565044,0.0448954664170742,-0.0586000680923461,-0.2065034806728363,0.0500922426581382,-0.127330869436264,0.0,0.0,-0.0137690901756286,0.2994134426116943
0.0168690681457519,0.0397869683802127,-0.0586742758750915,-0.2268446236848831,0.0437320172786712,-0.1272045522928238,0.0,0.0,0.8395829200744629,0.5391535758972168
0.0163154602050781,0.0348399728536605,-0.0480558052659034,-0.2196701169013977,0.0365144982933998,-0.1443504989147186,0.0,0.0,0.5239251852035522,-0.037132978439331
0.0158707611262798,0.0304982997477054,-0.0377969071269035,-0.192818596959114,0.0299254227429628,-0.1317812502384185,0.0,0.0,0.6746704578399658,-0.5945672988891602
0.0153322219848632,0.0268804654479026,-0.0483276769518852,-0.1606894135475158,0.0244670882821083,-0.109166994690895,0.0,0.0,-0.0718347430229187,0.3677008152008056
0.0147962570190429,0.0228055100888013,-0.0480765923857688,-0.1810296475887298,0.0190213434398174,-0.1089148372411727,0.0,0.0,0.6593378782272339,-0.7456681728363037
0.0142779350280761,0.0191470477730035,-0.04800346493721,-0.1625541150569915,0.0152390766888856,-0.0756454095244407,0.0,0.0,0.2333053350448608,-0.0516893863677978
0.0137494085356593,0.0159452054649591,-0.0490093529224395,-0.1422701925039291,0.0114472964778542,-0.075835570693016,0.0,0.0,-0.1170567274093627,0.4270540475845337
0.0132264140993356,0.0122860288247466,-0.0484797656536102,-0.1626091450452804,0.007672228384763,-0.0755012407898902,0.0,0.0,0.6211400032043457,-0.2447229623794555
0.012785529717803,0.0088450405746698,-0.0406598262488842,-0.1529183685779571,0.0042808256112039,-0.0678279623389244,0.0,0.0,0.3249040842056274,-0.5371618270874023
0.0122007373720407,0.0056902621872723,-0.0559080354869365,-0.1402053534984588,0.001739832223393,-0.0508197732269763,0.0,0.0,0.4084891080856323,0.7318544387817383
0.0115598682314157,0.002734289271757,-0.0598636157810688,-0.1313780397176742,-0.0024323808029294,-0.0834443867206573,0.0,0.0,0.2410640716552734,0.5365973711013794
0.0109542850404977,-4.422902929945849e-05,-0.0552269145846366,-0.1235059574246406,-0.0076872473582625,-0.1050972193479538,0.0,0.0,0.2404757738113403,0.2684981822967529
0.0104844095185399,-0.0019822143949568,-0.0610698759555816,-0.0861212462186813,0.006203421857208,0.2778101563453674,1.0,0.0,0.8628482818603516,0.9261332750320436
0.0102221490815281,-0.0026809119153767,-0.0319039225578308,-0.031138913705945,0.0116164116188883,0.1080211400985717,1.0,1.0,-0.0902479887008667,0.9792705774307252
0.0101260188966989,-0.0027461790014058,-0.010779807344079,-0.0030296072363853,0.0122385434806346,0.0117768989875912,1.0,1.0,-0.4256950616836548,0.8740866184234619
0.0100666042417287,-0.0022795463446527,-0.0023335427977144,0.0207624621689319,0.0086721833795309,-0.0713443011045456,1.0,1.0,-0.965095043182373,-0.1690914630889892
0.0099756242707371,-0.0014603281160816,-0.0028776410035789,0.0364305339753627,0.0025188256986439,-0.1230801790952682,1.0,1.0,-0.4084310531616211,0.0615084171295166
