x_pos,y_pos,x_vel,y_vel,angle,ang_vel,leg_1,leg_2,main_booster,lat_booster
-0.0015241622459143,1.4031884670257568,-0.1543501168489456,-0.3436335027217865,0.001735417288728,0.034230537712574,0.0,0.0,0.5182430484513569,0.8117941824100894
-0.0029332160484045,1.3956758975982666,-0.1410589069128036,-0.333889365196228,0.0018800650723278,0.0028939982876181,0.0,0.0,0.7850467617434285,0.5386798549446491
-0.0041489601135253,1.388378024101257,-0.1210655197501182,-0.3243495225906372,0.0013876395532861,-0.0098496004939079,0.0,0.0,0.911882645807911,-0.6748077105449481
-0.0055689811706542,1.3815085887908936,-0.1424349993467331,-0.3053099811077118,0.0018069489160552,0.0083870198577642,0.0,0.0,-0.7121302228046535,-0.726871281344709
-0.0070368768647313,1.3742049932479858,-0.1483343988656997,-0.3246029019355774,0.0033368768636137,0.0306013412773609,0.0,0.0,-0.555684025980659,-0.8847219024680397
-0.0085618020966649,1.3664640188217163,-0.1553948074579239,-0.3440541625022888,0.0062041552737355,0.0573509223759174,0.0,0.0,-0.2008518785492283,0.7947700162471583
-0.0100301746279001,1.3582875728607178,-0.148204892873764,-0.3634061813354492,0.0075467508286237,0.0268542170524597,0.0,0.0,-0.309442384536992,0.5349441868026522
-0.0114500997588038,1.3496770858764648,-0.1420139223337173,-0.3826869130134582,0.007565074134618,0.0003668684221338,0.0,0.0,0.3483112519896869,-0.9126400451579872
-0.0129627231508493,1.341663837432861,-0.1530995815992355,-0.35615274310112,0.0093828700482845,0.0363591164350509,0.0,0.0,-0.2842808428038728,0.7047938791995862
-0.0144245149567723,1.3332196474075315,-0.1466138660907745,-0.3753055930137634,0.0098141403868794,0.0086259748786687,0.0,0.0,0.4486557079578284,-0.7632287484792546
-0.0158720966428518,1.3251221179962158,-0.1468808352947235,-0.3599070608615875,0.0119172735139727,0.0420663058757782,0.0,0.0,0.3927680076135595,0.715869012062575
-0.0172071456909179,1.317257046699524,-0.1343365609645843,-0.3495683372020721,0.0127395279705524,0.0164468921720981,0.0,0.0,-0.5131036420404935,0.5912500287788264
-0.0184903144836425,1.3089599609375,-0.1277486681938171,-0.368759274482727,0.0121681485325098,-0.0114283543080091,0.0,0.0,-0.3077916204258322,0.8200178122677593
-0.0197063442319631,1.3002203702926636,-0.1192254647612571,-0.3884060084819793,0.0098243625834584,-0.0468802973628044,0.0,0.0,-0.2851815390265844,-0.8890189052192397
-0.0209809299558401,1.2910531759262085,-0.1264922171831131,-0.4074249267578125,0.0088791558519005,-0.0189057942479848,0.0,0.0,-0.263669113800679,0.9588284835617686
-0.0221704486757516,1.2814399003982544,-0.1157895773649215,-0.4272423386573791,0.0057411198504269,-0.0627664476633071,0.0,0.0,0.5345200603389917,0.5756687573106953
-0.0231851581484079,1.2725908756256104,-0.0975548923015594,-0.3932856917381286,0.0018666044343262,-0.0774971395730972,0.0,0.0,-0.0627093605521131,0.8249223689217882
-0.0241233818233013,0.0,-0.0879389345645904,-0.4129786193370819,-0.0039584436453878,-0.1165112257003784,0.0,0.0,0.9359610824890348,-0.9619079026823324
-0.0250116344541311,1.254991054534912,-0.0851730480790138,-0.3692545890808105,-0.0075642899610102,-0.0721234157681465,0.0,0.0,0.4077061400065556,0.9237489496387978
-0.0259051322937011,1.2469699382781982,-0.0838646069169044,-0.3565281927585602,-0.0129890590906143,-0.1085051745176315,0.0,0.0,0.6486039362858951,0.6345678275749891
-0.0266036987304687,1.2396395206451416,-0.0635307356715202,-0.3258649110794067,-0.0192429907619953,-0.125090017914772,0.0,0.0,0.622175768620405,0.6459972098887743
-0.0272328369319438,1.2325193881988523,-0.055430956184864,-0.3165600895881653,-0.0266399048268795,-0.147951453924179,0.0,0.0,-0.015524446341703,0.7188663582835814
-0.0277946479618549,1.2249603271484375,-0.0470771864056587,-0.3361466825008392,-0.0356504395604133,-0.1802269518375396,0.0,0.0,0.4124558877906228,0.8228255559638916
-0.0282160751521587,1.2173501253128052,-0.0316050872206687,-0.338512122631073,-0.0460771322250366,-0.2085527926683426,0.0,0.0,-0.3887895324203789,-0.9037499049628936
-0.0287261959165334,1.2093133926391602,-0.042865477502346,-0.357456237077713,-0.05413768440485,-0.1612250506877899,0.0,0.0,-0.3496836947302404,-0.5999957407290063
-0.0292957313358783,1.200827717781067,-0.0504565425217151,-0.3773878812789917,-0.0605623237788677,-0.1284928023815155,0.0,0.0,0.5229845056704501,0.5610464695221717
-0.0297758094966411,1.1929084062576294,-0.040545891970396,-0.352293848991394,-0.0679308474063873,-0.1473707109689712,0.0,0.0,0.5019148175410624,0.6772093785733089
-0.0302794463932514,1.1856911182403564,-0.0414776429533958,-0.3211913704872131,-0.0767295733094215,-0.1759746819734573,0.0,0.0,0.8626636175276066,-0.5644068669617933
-0.0309142116457223,1.1793725490570068,-0.0554714314639568,-0.281257688999176,-0.0846560820937156,-0.1585302054882049,0.0,0.0,-0.121438699530052,-0.7822887321181323
-0.0316094383597373,1.172623634338379,-0.0633450299501419,-0.3003202676773071,-0.0907761454582214,-0.1224012821912765,0.0,0.0,-0.2465555777736496,0.8603390099468794
-0.0322295203804969,1.1654390096664429,-0.0542684979736804,-0.3198059499263763,-0.0984559133648872,-0.153595358133316,0.0,0.0,-0.875642716884613,-0.8775078654289246
-0.0329223647713661,1.1578251123428345,-0.0637502521276474,-0.338772177696228,-0.1039466336369514,-0.109814204275608,0.0,0.0,-0.9840998649597168,-0.0927705764770507
-0.0336084365844726,1.149775147438049,-0.0633034482598304,,-0.1092113852500915,-0.1052954047918319,0.0,0.0,-0.9196152091026306,0.0306434631347656
-0.0342865958809852,1.1412891149520874,-0.0627480298280716,-0.3775354325771332,-0.1142398566007614,-0.1005696058273315,0.0,0.0,-0.8410042524337769,0.1953924894332885
-0.0349555015563964,1.1323668956756592,-0.0620788745582103,-0.3969164490699768,-0.119021788239479,-0.0956384986639022,0.0,0.0,-0.8900050520896912,-0.6732444763183594
-0.0356647484004497,1.1230225563049316,-0.0676888823509216,-0.41556116938591,-0.1222417429089546,-0.0643988996744155,0.0,0.0,-0.9351823329925536,-0.5850235223770142
-0.0364104285836219,1.1132477521896362,-0.0728188455104827,-0.4345798790454864,-0.1239775121212005,-0.0347156748175621,0.0,0.0,-0.5987319946289062,-0.3443756699562073
-0.0371429435908794,1.1030365228652954,-0.0717790871858596,-0.4539584815502167,-0.1254367381334304,-0.0291848517954349,0.0,0.0,-0.8497259020805359,-0.4287213087081909
-0.0378608703613281,1.0923887491226196,-0.0706068500876426,-0.4733369052410126,-0.1266097724437713,-0.0234606377780437,0.0,0.0,-0.8749115467071533,-0.7373293042182922
-0.0386176109313964,1.0813158750534058,-0.0762124806642532,-0.4920863509178161,-0.1260834783315658,0.0105262994766235,0.0,0.0,-0.8677374720573425,-0.2389571070671081
-0.0393568985164165,1.069806456565857,-0.0747630447149276,-0.5114644169807434,-0.125252217054367,0.0166252087801694,0.0,0.0,-0.9096121191978456,-0.1404774188995361
-0.040077019482851,1.0578603744506836,-0.0731694176793098,-0.5308424830436707,-0.1241069883108139,0.0229049362242221,0.0,0.0,-0.9302406311035156,-0.2513546943664551
-0.040776539593935,1.0454777479171753,-0.0714282095432281,-0.5502204895019531,-0.1226389482617378,0.0293607208877801,0.0,0.0,-0.9005783200263977,-0.3745433092117309
-0.0414537414908409,1.032658338546753,-0.0695363283157348,-0.5695985555648804,-0.1208395734429359,0.0359875783324241,0.0,0.0,-0.9535979628562928,-0.245664894580841
-0.0421072021126747,1.0194025039672852,-0.0674909874796867,-0.5889766812324524,-0.1187005490064621,0.0427803508937358,0.0,0.0,-0.976887047290802,-0.0135580897331237
-0.0427350029349327,1.0057101249694824,-0.0652896910905838,-0.6083548665046692,-0.1162138730287551,0.0497336946427822,0.0,0.0,-0.9828943610191344,0.2236769199371338
-0.0433358177542686,0.9915812015533448,-0.0629303008317947,-0.6277331709861755,-0.113371767103672,0.056842166930437,0.0,0.0,-0.9001084566116333,0.0765777826309204
-0.0439076423645019,0.977015733718872,-0.0604109838604927,-0.6471116542816162,-0.1101667433977127,0.0641001909971237,0.0,0.0,-0.9847645163536072,0.1592515707015991
-0.0444489493966102,0.962013840675354,-0.0577302388846874,-0.666490375995636,-0.1065916344523429,0.0715021416544914,0.0,0.0,-0.9199103713035583,0.5879306793212891
-0.0449134819209575,0.9465664625167848,-0.0492975488305091,-0.6863439083099365,-0.1037716045975685,0.0564003959298133,0.0,0.0,-0.9458556175231934,-0.1004910469055175
-0.0453440658748149,0.9306825995445251,-0.0462907440960407,-0.7057225704193115,-0.100567951798439,0.0640731006860733,0.0,0.0,-0.935308873653412,0.3182957172393799
-0.0457389838993549,0.9143624901771544,-0.0431201048195362,-0.7251014113426208,-0.0969743281602859,0.0718725398182869,0.0,0.0,-0.8847015500068665,0.2136231660842895
-0.0460966117680072,0.8976058959960938,-0.0397855080664157,-0.744480550289154,-0.0929846763610839,0.0797930061817169,0.0,0.0,-0.6080487370491028,0.4457578659057617
-0.0464152321219444,0.8804128766059875,-0.0362871885299682,-0.7638600468635559,-0.0885932222008705,0.0878288671374321,0.0,0.0,-0.4006682634353637,0.4122534990310669
-0.0466930381953716,0.862783670425415,-0.0326257273554801,-0.7832399606704712,-0.0837944969534874,0.0959743186831474,0.0,0.0,-0.2607799768447876,0.6312239170074463
-0.0468867309391498,0.8447101712226868,-0.0235624592751264,-0.803039014339447,-0.0796421766281127,0.0830462351441383,0.0,0.0,-0.1663450002670288,0.6310584545135498
-0.04697847366333,0.8261993527412415,-0.0123250465840101,-0.8225460052490234,-0.0765240639448165,0.0623623132705688,0.0,0.0,0.0111995935440063,0.7890205383300781
-0.0468319877982139,0.8078540563583374,0.0126227168366312,-0.8152453303337097,-0.0745238810777664,0.0400038622319698,0.0,0.0,-0.107984721660614,0.6514346599578857
-0.0465800277888774,0.7890724539756775,0.0242094155400991,-0.8346878290176392,-0.0735537260770797,0.0194032676517963,0.0,0.0,-0.5189850926399231,-0.0323574542999267
-0.046279240399599,0.7698543667793274,0.0286672655493021,-0.8540665507316589,-0.0721529349684715,0.0280158855020999,0.0,0.0,0.1848171949386596,0.4707367420196533
-0.0458722114562988,0.7505932450294495,0.0386838465929031,-0.8559551239013672,-0.0701477825641632,0.0401029177010059,0.0,0.0,-0.6066965460777283,0.7112200260162354
-0.04536609724164,0.7308943867683411,0.049334742128849,-0.8754454851150513,-0.068883903324604,0.0252776183187961,0.0,0.0,-0.4565339684486389,0.4075984954833984
-0.044806383550167,0.7107589244842529,0.0542441233992576,-0.8948243260383606,-0.0671784505248069,0.0341092199087142,0.0,0.0,-0.5067995190620422,0.1670219898223877
-0.0441916473209857,0.6901871562004089,0.0592981353402137,-0.9142033457756042,-0.0650282427668571,0.0430041328072547,0.0,0.0,0.22780442237854,0.3204727172851562
-0.043495275080204,0.6696242690086365,0.0669831559062004,-0.913788676261902,-0.0624034814536571,0.0524952821433544,0.0,0.0,0.5657627582550049,-0.0235017538070678
-0.0428231246769428,0.6494746804237366,0.064650759100914,-0.8954343795776367,-0.0598710589110851,0.0506484694778919,0.0,0.0,0.2158907651901245,-0.4220709204673767
-0.0420383438467979,0.6298303008079529,0.0753922536969184,-0.87296062707901,-0.0568126551806926,0.0611679553985595,0.0,0.0,0.3016780614852905,-0.0769990682601928
-0.0411151871085166,0.6100892424583435,0.0884538069367408,-0.8772379755973816,-0.0529999211430549,0.0762545987963676,0.0,0.0,0.592195987701416,-0.5270482897758484
-0.0401001945137977,0.5911516547203064,0.096049278974533,-0.8414886593818665,-0.0476065650582313,0.1078669279813766,0.0,0.0,0.028314471244812,0.156070590019226
-0.0390665046870708,0.5722237229347229,0.0977231711149215,-0.8410741090774536,-0.0420250855386257,0.1116296499967575,0.0,0.0,0.6066720485687256,0.0700266361236572
-0.038029957562685,0.5538522601127625,0.097953975200653,-0.8163576126098633,-0.03639592602849,0.1125831976532936,0.0,0.0,0.0680897235870361,-0.4585990905761719
-0.0368934646248817,0.5356470942497253,0.1073945760726928,-0.8089809417724609,-0.0302125327289104,0.1236679330468177,0.0,0.0,-0.0146991610527038,-0.0974176526069641
-0.0356903076171875,0.5170061588287354,0.1135859489440918,-0.8283642530441284,-0.0235656145960092,0.132938414812088,0.0,0.0,0.5627925395965576,-0.4981343150138855
-0.0343371406197547,0.498746395111084,0.1277955472469329,-0.8114461302757263,-0.0161325801163911,0.1486608982086181,0.0,0.0,0.6187185049057007,0.3531986474990845
-0.0329420082271099,0.4806267619132995,0.1316664367914199,-0.8052555918693542,-0.0083868419751524,0.1549145579338073,0.0,0.0,0.7967603206634521,-0.2217908501625061
-0.0314002037048339,0.4626010954380035,0.1455105245113372,-0.8011137843132019,0.0001672064390731,0.1710810661315918,0.0,0.0,0.9595849514007568,0.2389497756958007
-0.0298253055661916,0.4447443783283233,0.148524209856987,-0.7936619520187378,0.0090146567672491,0.1769488751888275,0.0,0.0,0.8811337947845459,0.3997917175292969
-0.0281966216862201,0.4278072118759155,0.1534860879182815,-0.7528489232063293,0.0182851497083902,0.1854099184274673,0.0,0.0,0.7917765378952026,0.6175460815429688
-0.026369571685791,0.4117720127105713,0.1738489866256714,-0.7128068804740906,0.0270326565951108,0.1749501228332519,0.0,0.0,0.2117069959640503,-0.0540470480918884
-0.0245677940547466,0.3961974680423736,0.1712368726730346,-0.6923884749412537,0.0358667783439159,0.1766822040081024,0.0,0.0,0.2882338762283325,0.223513126373291
-0.0228020660579204,0.3805699348449707,0.1676269173622131,-0.6948005557060242,0.0447013936936855,0.1766922622919082,0.0,0.0,0.630770206451416,-0.1668248176574707
-0.0209568031132221,0.3656794428825378,0.1749328076839447,-0.6621106863021851,0.0541870184242725,0.1897125989198684,0.0,0.0,-0.2932159900665283,-0.0455454587936401
-0.0190361030399799,0.3503545224666595,0.1820006221532821,-0.6815016865730286,0.0641389638185501,0.1990388184785843,0.0,0.0,0.8070595264434814,0.0104316473007202
-0.0171468742191791,0.3356992900371551,0.1786812394857406,-0.651814341545105,0.0742791071534156,0.2028030604124069,0.0,0.0,0.6195378303527832,0.5903728008270264
-0.0151980398222804,0.3216418623924255,0.1853923499584198,-0.6252723932266235,0.0836764797568321,0.1879475116729736,0.0,0.0,0.6444354057312012,0.7278445959091187
-0.0130681991577148,0.3080347776412964,0.2042948901653289,-0.6052653193473816,0.0922788083553314,0.1720470190048217,0.0,0.0,0.3369718790054321,0.1230980157852172
-0.0108672138303518,0.2944096326828003,0.2108698338270187,-0.606155514717102,0.1014321893453598,0.1830676645040512,0.0,0.0,0.5137392282485962,0.4228830337524414
-0.0085409162566065,0.280913770198822,0.2225516140460968,-0.6005327105522156,0.1114395335316658,0.2001469135284423,0.0,0.0,0.6294560432434082,0.2934780120849609
-0.0060544968582689,0.2678478360176086,0.2374384105205536,-0.5815867781639099,0.1225771605968475,0.2227525264024734,0.0,0.0,0.8097763061523438,-0.3986303806304931
-0.0033905028831213,0.2550194263458252,0.2540497183799743,-0.5712110996246338,0.1348782479763031,0.2460217028856277,0.0,0.0,0.7234840393066406,0.5183289051055908
-0.0007184982532635,0.2429334074258804,0.2554610967636108,-0.5382643342018127,0.1465791165828704,0.234017014503479,0.0,0.0,0.5006847381591797,-0.0771255493164062
0.001960277557373,0.2314426004886627,0.2555725276470184,-0.5119597315788269,0.1588624715805053,0.2456673830747604,0.0,0.0,0.4701809883117676,0.1692415475845337
0.004734325222671,0.2204242348670959,0.2641693949699402,-0.4911700189113617,0.1721083223819732,0.2649170160293579,0.0,0.0,0.6027190685272217,0.4776493310928345
0.0076304436661303,0.2094664424657821,0.2755196690559387,-0.4887077212333679,0.1862536668777465,0.2829066514968872,0.0,0.0,0.561032772064209,0.7201483249664307
0.0105202673003077,0.1987840235233307,0.2760131657123565,-0.4764580130577087,0.1992954164743423,0.2608347535133362,0.0,0.0,0.4798777103424072,0.4964724779129028
0.0134117128327488,0.1888277381658554,0.2754316627979278,-0.4444045722484588,0.2131280899047851,0.2766535878181457,0.0,0.0,0.4519412517547607,0.2620744705200195
0.0162578579038381,0.1791660636663437,0.2705977857112884,-0.4314941465854645,0.2273024767637252,0.2834872901439667,0.0,0.0,0.0899033546447753,-0.1237685084342956
0.0189862251281738,0.1698113828897476,0.2588191628456116,-0.4179891049861908,0.2415295243263244,0.2845406532287597,0.0,0.0,0.5003063678741455,-0.2801899909973144
0.0217203143984079,0.1609761863946914,0.258660227060318,-0.3951723277568817,0.256550133228302,0.3004118800163269,0.0,0.0,-0.3058897256851196,-0.3692596554756164
0.0245348922908306,0.1517092585563659,0.2663517296314239,-0.4145809412002563,0.2719938158988952,0.3088744580745697,0.0,0.0,0.437578797340393,-0.4262752532958984
0.0271856300532817,0.1429231911897659,0.2499384135007858,-0.3933795392513275,0.2875224649906158,0.3105730712413788,0.0,0.0,0.4637888669967651,-0.4160457849502563
0.0297703742980957,0.1343311220407486,0.2431143224239349,-0.3849807381629944,0.3033615350723266,0.3167818784713745,0.0,0.0,0.2944356203079223,-0.5082325339317322
0.0321614257991313,0.1259205639362335,0.2226627171039581,-0.3773273527622223,0.3204185366630554,0.3411408066749573,0.0,0.0,0.6729989051818848,0.3823640346527099
0.0343207344412803,0.1177622899413108,0.1998718976974487,-0.3662334680557251,0.3371706306934356,0.3350417613983154,0.0,0.0,0.6539919376373291,0.6127946376800537
0.0364746078848838,0.1102756336331367,0.1999792158603668,-0.33642578125,0.3533276617527008,0.3231407701969147,0.0,0.0,0.3101143836975097,-0.1697199344635009
0.0386524200439453,0.1027949899435043,0.2018822878599167,-0.3364678621292114,0.3700953423976898,0.3353536128997803,0.0,0.0,0.4994732141494751,0.5943533182144165
0.040834616869688,0.0959590077400207,0.202922061085701,-0.3078610301017761,0.3863265514373779,0.3246241211891174,0.0,0.0,0.5430657863616943,0.4098553657531738
0.0428027138113975,0.0896869972348213,0.1813699603080749,-0.2830272018909454,0.4028281271457672,0.330031543970108,0.0,0.0,0.3043413162231445,-0.119791030883789
0.0446883216500282,0.0839816182851791,0.1724220812320709,-0.2582599520683288,0.4202108383178711,0.3476544022560119,0.0,0.0,0.3325512409210205,-0.0104882717132568
0.0465172752737998,0.0785237848758697,0.1663000881671905,-0.2476260066032409,0.4382285177707672,0.3603536486625671,0.0,0.0,0.1128197908401489,0.410733699798584
0.0481858253479003,0.073379598557949,0.1501093208789825,-0.2339758276939392,0.4565636813640594,0.366703450679779,0.0,0.0,0.4775712490081787,0.8097255229949951
0.0497300140559673,0.0688417255878448,0.1389743387699127,-0.2068372517824173,0.4736048579216003,0.3408240675926208,0.0,0.0,-0.0816206932067871,0.8418161869049072
0.0514184013009071,0.0639200508594513,0.1550325155258178,-0.2235329002141952,0.4889670312404632,0.3072437345981598,0.0,0.0,0.6229939460754395,0.9056899547576904
0.0528407096862793,0.0593275390565395,0.1301179379224777,-0.2084725797176361,0.5025569200515747,0.2717981040477752,0.0,0.0,0.5729935169219971,0.7928879261016846
0.0540388114750385,0.0548920258879661,0.1091915518045425,-0.2010746151208877,0.5145595669746399,0.2400527894496917,0.0,0.0,-0.0322540402412414,0.8967540264129639
0.0553709976375103,0.0500730611383914,0.1240201741456985,-0.2176762074232101,0.5250108242034912,0.2090256959199905,0.0,1.0,0.9815888404846193,0.9997786283493042
0.0565196983516216,0.0467448346316814,0.1165941134095192,-0.1483767330646515,0.5194445848464966,-0.1169017702341079,0.0,1.0,0.9948770999908448,0.9998875856399536
0.0575829520821571,0.0446700900793075,0.1276786923408508,-0.084317423403263,0.4951836168766022,-0.4854204654693603,0.0,1.0,0.9705533981323242,0.833441972732544
0.0583743080496788,0.043957196176052,0.1114533171057701,-0.0205011293292045,0.4591709673404693,-0.7203346490859985,0.0,1.0,0.6768848896026611,0.0324012041091918
0.0588180534541606,0.0439441055059433,0.0772871822118759,0.0098024709150195,0.4231626093387604,-0.7202585339546204,0.0,1.0,0.2227833271026611,0.1723655462265014
0.0592387206852436,0.043834026902914,0.0739472061395645,0.0042822593823075,0.3888653218746185,-0.6859735250473022,0.0,0.0,-0.9997765421867372,-0.5963969230651855
