x_pos,y_pos,x_vel,y_vel,angle,ang_vel,leg_1,leg_2,main_booster,lat_booster
-0.0014446259010583,1.403381586074829,-0.1463427990674972,-0.3350528180599212,0.0016786161577329,0.0331061109900474,0.0,0.0,-0.4930163215588454,-0.8270749102148954
-0.0028691291809082,1.395618915557861,-0.1455605328083038,-0.3450151085853576,0.0047557349316775,0.0615489296615123,0.0,0.0,-0.1515239141305044,-0.2584463652936803
-0.0042136190459132,1.3876127004623413,-0.1374931633472442,-0.3558415472507477,0.0077653746120631,0.0601983144879341,0.0,0.0,0.6029295164242892,0.7183493569821837
-0.0055519104935228,1.3800873756408691,-0.1350745111703872,-0.3344633281230926,0.0090019088238477,0.0247325338423252,0.0,0.0,0.5106671567130132,-0.9225739764284268
-0.0067541124299168,1.373217225074768,-0.1234021782875061,-0.3053693175315857,0.0121492473408579,0.0629523247480392,0.0,0.0,-0.4922958374856363,-0.0521887212087037
-0.0078757284209132,1.3661038875579834,-0.1152315139770507,-0.3161765336990356,0.0151926409453153,0.0608733706176281,0.0,0.0,-0.3613514980968504,0.383636682497859
-0.0089163780212402,1.3587476015090942,-0.1070307716727256,-0.326976478099823,0.0181225799024105,0.0586038120090961,0.0,0.0,-0.5856042373699517,-0.8456359418632836
-0.0099261282011866,1.351149559020996,-0.1050891652703285,-0.3377460539340973,0.0221870988607406,0.0812981501221656,0.0,0.0,0.5799788253243539,0.5821930655554529
-0.0108393672853708,1.3445161581039429,-0.094087541103363,-0.2948625385761261,0.0249291285872459,0.0548455938696861,0.0,0.0,-0.9004137793077276,-0.5502822997558922
-0.0117147443816065,1.3376412391662598,-0.0912607461214065,-0.3056127727031708,0.0286167711019516,0.0737595558166503,0.0,0.0,0.6719750965129514,-0.8850264432202654
-0.0124984737485647,1.3314275741577148,-0.0838816314935684,-0.2762771844863891,0.0340638272464275,0.1089510321617126,0.0,0.0,-0.7810174444859104,0.8495929435891737
-0.0131260873749852,1.3249728679656982,-0.0661907792091369,-0.286953866481781,0.03746173158288,0.0679639056324958,0.0,0.0,-0.904276245395958,-0.2660849693602677
-0.0136721609160304,1.3182754516601562,-0.0578609183430671,-0.297753244638443,0.0406853184103965,0.0644776001572609,0.0,0.0,0.1700052494547401,0.421948596149901
-0.0140979764983057,1.3117146492004397,-0.0458844676613807,-0.2916763424873352,0.0439550206065177,0.0653999596834182,0.0,0.0,-0.4200092868454887,-0.8395807043399698
-0.0144930835813283,1.3049163818359375,-0.0439094938337802,-0.3022831976413727,0.0483069866895675,0.0870470851659774,0.0,0.0,-0.4417803027646687,0.95742678123396
-0.0147170070558786,1.2978702783584597,-0.0243160799145698,-0.3132239878177643,0.0502138584852218,0.0381408259272575,0.0,0.0,-0.6016907468082073,0.4355990499419091
-0.0148591045290231,1.290580987930298,-0.0159283988177776,-0.3240260779857635,0.0519146360456943,0.0340188592672348,0.0,0.0,-0.5951648683883966,-0.2136764540617661
-0.0149193760007619,1.2830485105514526,-0.0075309472158551,-0.3348281979560852,0.0534008666872978,0.0297271162271499,0.0,0.0,0.1057036863883107,-0.3139448335694725
-0.0148614887148141,1.2760827541351318,0.0041943276301026,-0.3096450567245483,0.0549708530306816,0.0314028114080429,0.0,0.0,-0.5502320287886449,-0.8659685721496142
-0.0147994039580225,1.268867015838623,0.0028934038709849,-0.3208284974098205,0.0582656562328338,0.0659018084406852,0.0,0.0,0.3655105348297502,0.1009797406135093
-0.0145863536745309,1.262347936630249,0.0177223794162273,-0.2898788750171661,0.0618194639682769,0.0710822492837905,0.0,0.0,-0.236619179236406,0.3732309512947602
-0.0142915723845362,1.2555856704711914,0.026143779978156,-0.3006893694400787,0.0651357769966125,0.0663320124149322,0.0,0.0,-0.6309278171873292,-0.4824252841147139
-0.0139148710295557,1.2485803365707395,0.0345694050192832,-0.3114894330501556,0.0682100430130958,0.0614907033741474,0.0,0.0,-0.2943541696854315,0.9603950703378328
-0.0133711816743016,1.2413296699523926,0.0536590106785297,-0.3222823143005371,0.068907082080841,0.0139421867206692,0.0,0.0,-0.7038520328125693,-0.3972761028270853
-0.0127456663176417,1.2338355779647827,0.0620984137058258,-0.3330837488174438,0.0693544819951057,0.0089486539363861,0.0,0.0,-0.0829529244594609,0.3255685241833378
-0.0120373722165822,1.2260770797729492,0.0706387609243393,-0.3448367416858673,0.0695471316576004,0.0038530007004737,0.0,0.0,0.3259418745611182,-0.6810302510291599
-0.0113383289426565,1.2189465761184692,0.0685996264219284,-0.3169709146022796,0.070842906832695,0.0259153954684734,0.0,0.0,0.7605704063219698,-0.8195173919607263
-0.0108377458527684,1.2128740549087524,0.0476597808301448,-0.2700030505657196,0.0732180997729301,0.0475034937262535,0.0,0.0,-0.5066608503774139,-0.0175428389273556
-0.0102554317563772,1.2065584659576416,0.056098323315382,-0.2808026671409607,0.0753307864069938,0.0422535315155983,0.0,0.0,-0.3278139082784523,0.8019104246645995
-0.0095302583649754,1.2000033855438232,0.07221220433712,-0.2913503348827362,0.0756381824612617,0.0061478205025196,0.0,0.0,0.9420078360954371,-0.8681235711366294
-0.0088435169309377,1.1946983337402344,0.066839188337326,-0.2358748763799667,0.0774528458714485,0.0362935289740562,0.0,0.0,-0.9241235852241516,0.9380309581756592
-0.0080104824155569,1.1891521215438845,0.0833799242973327,-0.2464981973171234,0.0773734077811241,-0.0015887096524238,0.0,0.0,-0.8131261467933655,0.2776563167572021
-0.0070960046723484,1.183362603187561,0.0917989164590835,-0.2572971284389496,0.0770235657691955,-0.0069967256858944,0.0,0.0,-0.7998387813568115,0.6914558410644531
-0.0060510635375976,1.1773290634155271,0.1063633561134338,-0.2680595517158508,0.0751721262931823,-0.0370288453996181,0.0,0.0,-0.8256566524505615,-0.0236463546752929
-0.0049248696304857,1.17105233669281,0.1147656440734863,-0.2788587510585785,0.0730473324656486,-0.0424960181117057,0.0,0.0,-0.9126651883125304,-0.0018534660339355
-0.0037175179459154,1.1645324230194092,0.1231576055288314,-0.2896580994129181,0.0706478953361511,-0.0479887202382087,0.0,0.0,-0.8165063261985779,-0.5681338310241699
-0.0024759292136877,1.1577614545822144,0.12567900121212,-0.3008637428283691,0.0691539272665977,-0.0298794005066156,0.0,0.0,-0.8319840431213379,-0.5050930976867676
-0.0011909485328942,1.1507471799850464,0.1293412744998932,-0.3117070198059082,0.0683242157101631,-0.0165940467268228,0.0,0.0,-0.753348171710968,-0.086941123008728
0.0001748085051076,1.1434895992279053,0.1376934647560119,-0.3225062191486358,0.0672167837619781,-0.0221485942602157,0.0,0.0,-0.933251678943634,-0.869667112827301
0.0015556334983557,1.1359832286834717,0.1378127783536911,-0.3336248695850372,0.067480631172657,0.0052772858180105,0.0,0.0,-0.7470061779022217,-0.5957782864570618
0.0029611587524414,1.1282330751419067,0.1391589045524597,-0.344514399766922,0.0688604190945625,0.0275956001132726,0.0,0.0,-0.1737444996833801,-0.3004336357116699
0.0044468878768384,1.1202398538589478,0.1474559009075164,-0.355313628911972,0.0699603036046028,0.021997844800353,0.0,0.0,-0.5616990327835083,0.2236459255218505
0.0060125351883471,1.1120030879974363,0.1557303965091705,-0.3661127984523773,0.070779763162136,0.0163892470300197,0.0,0.0,-0.740094780921936,-0.3296676278114319
0.0076578138396143,1.1035231351852417,0.1639800667762756,-0.3769119083881378,0.0713183134794235,0.0107713434845209,0.0,0.0,-0.5119580030441284,-0.7605041861534119
0.009318733587861,1.0947840213775637,0.1642042249441146,-0.3884937465190887,0.0731944292783737,0.0375220850110054,0.0,0.0,-0.9285494685173036,-0.5433887243270874
0.0110195158049464,1.0857919454574585,0.1674526780843734,-0.3997816443443298,0.0757898986339569,0.0519094765186309,0.0,0.0,-0.8805911540985107,-0.7267740964889526
0.0127476695924997,1.0765466690063477,0.1691649705171585,-0.411084771156311,0.0794053748250007,0.0723093897104263,0.0,0.0,-0.9109838008880616,-0.3874827623367309
0.0145542146638035,1.0670584440231323,0.1772879213094711,-0.4218846559524536,0.0827388390898704,0.0666692778468132,0.0,0.0,-0.8626141548156738,-0.543481171131134
0.0163862220942974,1.05732524394989,0.1787817776203155,-0.4328347444534302,0.0871099233627319,0.0874216705560684,0.0,0.0,-0.8490502238273621,-0.615493893623352
0.0182456020265817,1.0473408699035645,0.1805289089679718,-0.444080501794815,0.0924688577651977,0.1071787700057029,0.0,0.0,-0.9223079085350036,-0.4341213703155517
0.0201820377260446,1.0371131896972656,0.1885202974081039,-0.4548813998699188,0.0975456908345222,0.1015367284417152,0.0,0.0,-0.9829343557357788,-0.2201257348060608
0.0221948623657226,1.0266427993774414,0.1964589953422546,-0.4656819403171539,0.1023405268788337,0.0958968475461006,0.0,0.0,-0.96559876203537,-0.6334202885627747
0.0242432598024606,1.015919208526611,0.1992427408695221,-0.4769887924194336,0.1078885868191719,0.1109611392021179,0.0,0.0,-0.9569212794303894,-0.4561723470687866
0.026366900652647,1.0049527883529663,0.2070604562759399,-0.487789511680603,0.1131550446152687,0.1053296104073524,0.0,0.0,-0.9400887489318848,-0.813469648361206
0.0285172462463378,0.9937321543693542,0.2087914943695068,-0.4991828203201294,0.1193629503250122,0.1241577267646789,0.0,0.0,-0.9211992025375366,-0.7436785101890564
0.0306740757077932,0.9822531342506408,0.2079943418502807,-0.5108094215393066,0.127011239528656,0.1529659032821655,0.0,0.0,-0.8588681221008301,-0.6481460332870483
0.0328604690730571,0.9705293774604796,0.210146427154541,-0.521807849407196,0.1354686021804809,0.1691473573446273,0.0,0.0,-0.8832346200942993,-0.2124119997024536
0.0351189598441123,0.9585628509521484,0.2176451981067657,-0.5326113104820251,0.1436461210250854,0.1635503619909286,0.0,0.0,-0.9854732155799866,-0.5259076356887817
0.0374119766056537,0.9463512897491456,0.2204656153917312,-0.5436124801635742,0.1524626016616821,0.1763296723365783,0.0,0.0,-0.952496349811554,-0.6439223885536194
0.039717674255371,0.9338898062705994,0.2205798178911209,-0.5548983812332153,0.1624487042427063,0.1997220963239669,0.0,0.0,-0.8442158699035645,-0.4629632234573364
0.0420922264456748,0.9211861491203308,0.2277517765760421,-0.5657035112380981,0.1721571534872055,0.1941693127155304,0.0,0.0,-0.7290834784507751,-0.7579818964004517
0.0444648750126361,0.908226191997528,0.2260979861021042,-0.5773383378982544,0.1833583712577819,0.2240241318941116,0.0,0.0,-0.5676940083503723,-0.399523913860321
0.0469036102294921,0.8950241208076477,0.2329992800951004,-0.5881451964378357,0.1942838877439499,0.2185107469558715,0.0,0.0,-0.5605065822601318,-0.469550609588623
0.0494068153202533,0.8815798759460449,0.2397463619709015,-0.5989512801170349,0.2049349099397659,0.2130208015441894,0.0,0.0,-0.3266977071762085,-0.7681759595870972
0.0519150719046592,0.8678694367408752,0.2390296161174774,-0.6110257506370544,0.2168410420417785,0.2381223887205124,0.0,0.0,-0.6683289408683777,-0.6059048175811768
0.0544279105961322,0.8538991808891296,0.2383378446102142,-0.6228588819503784,0.2299453467130661,0.2620860934257507,0.0,0.0,-0.5267903208732605,0.0602924823760986
0.0569996833801269,0.8396872282028198,0.2445399463176727,-0.6336684823036194,0.2427793145179748,0.2566793859004974,0.0,0.0,-0.0555909276008605,-0.1715589761734008
0.059628389775753,0.8252334594726562,0.250528872013092,-0.6444771885871887,0.2553446292877197,0.2513063549995422,0.0,0.0,-0.4233059883117676,0.5330390930175781
0.0623530372977256,0.8105601668357849,0.2615381479263305,-0.6540879607200623,0.2665113508701324,0.2233344763517379,0.0,0.0,-0.2528777122497558,0.8275102376937866
0.0651837363839149,0.7956626415252686,0.2738029360771179,-0.6638299822807312,0.2760026454925537,0.1898256093263626,0.0,0.0,-0.6775482892990112,0.8976013660430908
0.0681211501359939,0.7805503010749817,0.2862508594989776,-0.6730985045433044,0.2836850583553314,0.1536482870578766,0.0,0.0,-0.0749690532684326,0.5709712505340576
0.0711505860090255,0.7652152180671692,0.2969138920307159,-0.6827393174171448,0.2898876965045929,0.1240526884794235,0.0,0.0,0.2339496612548828,0.6594383716583252
0.0739891082048416,0.7505266070365906,0.2795489430427551,-0.6536915302276611,0.2943265438079834,0.0887768417596817,0.0,0.0,0.3602122068405151,0.2663483619689941
0.0767885223031044,0.7363030314445496,0.2756096422672272,-0.6330393552780151,0.2987894117832184,0.0892578661441803,0.0,0.0,0.4619007110595703,0.5144482851028442
0.0795322433114051,0.7223316431045532,0.2713893055915832,-0.6215686798095703,0.301877349615097,0.0617587976157665,0.0,0.0,0.1758230924606323,0.237844705581665
0.082287311553955,0.7084693908691406,0.2725508511066437,-0.6167235970497131,0.3049387633800506,0.0612282827496528,0.0,0.0,0.6294310092926025,0.2296282052993774
0.0849424377083778,0.6948280334472656,0.2629269957542419,-0.606825053691864,0.3076085150241852,0.0533948317170143,0.0,0.0,0.6108589172363281,0.5688695907592773
0.0874228477478027,0.6820695996284485,0.2468486577272415,-0.5672951340675354,0.3088480830192566,0.0247911717742681,0.0,0.0,0.7793859243392944,0.7121186256408691
0.0897997841238975,0.6703977584838867,0.2379276305437088,-0.5186963081359863,0.3085940778255462,-0.0050798072479665,0.0,0.0,0.8919414281845093,0.136508822441101
0.0917880088090896,0.6597610712051392,0.199874922633171,-0.4725200533866882,0.3075077533721924,-0.0217272751033306,0.0,0.0,0.9283385276794434,0.7784078121185303
0.0935767143964767,0.6493788361549377,0.1820147335529327,-0.4607699513435364,0.304251879453659,-0.0651168376207351,0.0,0.0,0.9563915729522704,0.9719524383544922
0.095216080546379,0.6401588916778564,0.1691489517688751,-0.4086908102035522,0.2988658249378204,-0.1077219024300575,0.0,0.0,0.9706543684005736,0.9260566234588624
0.0966008156538009,0.6316530704498291,0.1459707915782928,-0.376514583826065,0.2911266088485718,-0.154784619808197,0.0,0.0,0.9658124446868896,0.9683678150177002
0.0977575331926345,0.6240689158439636,0.1254452764987945,-0.335152119398117,0.2810696065425873,-0.2011407613754272,0.0,0.0,0.4598844051361084,0.9950169324874878
0.0988013297319412,0.6171654462814331,0.1163824051618576,-0.3045562207698822,0.2687603533267975,-0.2461849153041839,0.0,0.0,0.8199013471603394,0.9715962409973145
0.0998433083295822,0.6110206842422485,0.1182220801711082,-0.2705879807472229,0.2544266283512115,-0.2866746187210083,0.0,0.0,0.2432312965393066,0.9631876945495604
0.1009023636579513,0.6050368547439575,0.1221023648977279,-0.2632358074188232,0.2379483580589294,-0.3295653462409973,0.0,0.0,-0.8568882346153259,0.5008301734924316
0.1019886955618858,0.5988256335258484,0.1262361854314804,-0.2733108103275299,0.2200998663902282,-0.3569698333740234,0.0,0.0,0.8037617206573486,-0.4369584321975708
0.1030735969543457,0.5933399796485901,0.1256353259086609,-0.2413440346717834,0.2027917355298996,-0.3461626768112182,0.0,0.0,-0.7891643047332764,0.0849595069885253
0.1041323691606521,0.5876147150993347,0.1232833266258239,-0.2521659135818481,0.1852852404117584,-0.3501302301883697,0.0,0.0,0.9516812562942504,0.1707942485809326
0.1049910560250282,0.5829566121101379,0.1035513505339622,-0.2049145102500915,0.1675537675619125,-0.3546297550201416,0.0,0.0,-0.952854871749878,0.3250095844268799
0.1058157905936241,0.5780592560768127,0.1004024296998977,-0.2157384902238845,0.1496327966451645,-0.3584195971488952,0.0,0.0,-0.9682273864746094,-0.0508930087089538
0.1066029518842697,0.5729227662086487,0.0968786254525184,-0.226563423871994,0.1315268874168396,-0.362118512392044,0.0,0.0,-0.9960663318634032,-0.5474904775619507
0.1073138266801834,0.567534327507019,0.0885599553585052,-0.238038882613182,0.1141538396477699,-0.3474612534046173,0.0,0.0,-0.776611328125,-0.3724731206893921
0.1079804450273513,0.561906635761261,0.0843382477760315,-0.2488629966974258,0.0966050773859024,-0.3509752154350281,0.0,0.0,-0.3297054767608642,-0.2090917825698852
0.1085995659232139,0.5560398101806641,0.0797953009605407,,0.078885406255722,-0.3543934822082519,0.0,0.0,-0.982225239276886,-0.972019374370575
0.1090887039899826,0.5499237179756165,0.0649570971727371,-0.2710556089878082,0.0630107969045639,-0.3174925446510315,0.0,0.0,-0.988207757472992,-0.9873867034912108
0.1094303131103515,0.5435675382614136,0.0479824766516685,-0.2819730043411255,0.0493445694446563,-0.2733247578144073,0.0,0.0,-0.9989801645278932,-0.9565379619598388
0.1096513718366622,0.5369704365730286,0.034455195069313,-0.2928417921066284,0.0371495075523853,-0.2439009845256805,0.0,0.0,-0.972368597984314,-0.983445644378662
0.1097296699881553,0.5301342606544495,0.0181677006185054,-0.3036015331745147,0.0269328095018863,-0.2043341100215912,0.0,0.0,-0.9895784854888916,-0.9908171892166138
0.1096583381295204,0.5230597853660583,0.001094720326364,-0.3142955601215362,0.0188112631440162,-0.1624308228492736,0.0,0.0,-0.9940139651298524,-0.8362165689468384
0.109455868601799,0.5157382488250732,-0.0136346947401762,-0.3253338038921356,0.0122817866504192,-0.1305895745754242,0.0,0.0,-0.9981094002723694,-0.8422462344169617
0.1091094985604286,0.5081734657287598,-0.029903745278716,-0.3361822366714477,0.0076177529990673,-0.0932808741927146,0.0,0.0,-0.9977311491966248,-0.3635581731796264
0.1086972206830978,0.5003659129142761,-0.0363723896443843,-0.3469846844673157,0.0028260492254048,-0.0958339869976043,0.0,0.0,-0.941271185874939,-0.8822250366210938
0.1081598252058029,0.4923205375671386,-0.0502292923629283,-0.357569009065628,-0.0006411391077563,-0.069344125688076,0.0,0.0,-0.9973903298377992,-0.8954229354858398
0.1074896827340126,0.4840245246887207,-0.0650070235133171,-0.3687150776386261,-0.0026235233526676,-0.0396475344896316,0.0,0.0,-0.9168090224266052,-0.795211672782898
0.106701374053955,0.4754918813705444,-0.0779346004128456,-0.3792310059070587,-0.0035126244183629,-0.0177819728851318,0.0,0.0,-0.9892154932022096,-0.5030941963195801
0.1057999581098556,0.4667206108570099,-0.0901846066117286,-0.3898336291313171,-0.0034628624562174,0.0009951351676136,0.0,0.0,-0.9460515975952148,-0.532611608505249
0.1047937422990799,0.4577126801013946,-0.1014046892523765,-0.4003503024578094,-0.0026965753640979,0.0153259057551622,0.0,0.0,-0.9958738684654236,-0.2714865207672119
0.103713609278202,0.4484617710113525,-0.1087013706564903,-0.4111510813236236,-0.0020136279053986,0.0136591289192438,0.0,0.0,-0.953774631023407,-0.4074101448059082
0.1025588065385818,0.4389678239822387,-0.1160993129014968,-0.4219518601894378,-0.0014052700717002,0.0121669266372919,0.0,0.0,-0.9043429493904114,0.0289316177368164
0.1013283729553222,0.4292308390140533,-0.1235900521278381,-0.4327526092529297,-0.0008624042384326,0.0108572822064161,0.0,0.0,-0.9781959056854248,0.1322662830352783
0.1000216454267501,0.419250875711441,-0.1311658173799514,-0.4435533583164215,-0.0003754949721042,0.0097382199019193,0.0,0.0,-0.95743727684021,-0.2183361053466797
0.0986379608511924,0.4090279340744018,-0.1388194859027862,-0.4543540775775909,6.537061562994495e-05,0.0088174445554614,0.0,0.0,-0.9759970903396606,-0.2643362283706665
0.0971766486763954,0.398561954498291,-0.1465444862842559,-0.465154767036438,0.0004704807070083,0.0081023443490266,0.0,0.0,-0.8923302888870239,0.3481413125991821
0.0956371277570724,0.3878530263900757,-0.1543347984552383,-0.475955456495285,0.0008504675352014,0.00759968906641,0.0,0.0,-0.8152665495872498,0.8243085145950317
0.0940871238708496,0.3768995106220245,-0.1536465734243393,-0.4868188500404358,-0.0004936443874612,-0.0268823709338903,0.0,0.0,-0.8597767949104309,-0.3944731950759887
0.0924578681588172,0.3657031059265136,-0.1615514457225799,-0.4976197183132171,-0.0018407525494694,-0.0269423238933086,0.0,0.0,-0.86295086145401,-0.3307486176490783
0.0907492637634277,0.3542637526988983,-0.1695064306259155,-0.5084205865859985,-0.0031794453971087,-0.0267737843096256,0.0,0.0,-0.8811253309249878,-0.0325011610984802
0.0889608412981033,0.3425813317298889,-0.1775073111057281,-0.5192214250564575,-0.0044981120154261,-0.0263734217733144,0.0,0.0,-0.8082176446914673,-0.2453693747520446
0.0870923027396202,0.3306558728218078,-0.1855501681566238,-0.5300222635269165,-0.0057850615121424,-0.0257388856261968,0.0,0.0,0.1055985689163208,0.1790477037429809
