x_pos,y_pos,x_vel,y_vel,angle,ang_vel,leg_1,leg_2,main_booster,lat_booster
-0.0016013145213946,1.4029406309127808,-0.1618643403053283,-0.3546477556228637,0.0015539651503786,0.0306377504020929,0.0,0.0,0.8162257648696098,0.7354237501223158
-0.0031622885726392,1.3950576782226562,-0.1560390144586563,-0.3503561019897461,0.0014950755285099,-0.0011772440047934,0.0,0.0,-0.0994707937405474,-0.8124797501467116
-0.0048521040007472,1.3864840269088743,-0.1699148714542389,-0.3810520470142364,0.0024195611476898,0.0184914618730545,0.0,0.0,0.5309887410591485,-0.6550411661025153
-0.0067946435883641,1.3779182434082031,-0.195952832698822,-0.3807074427604675,0.0040971464477479,0.0335547812283039,0.0,0.0,-0.7897643628755973,-0.6679449300629825
-0.0088584898039698,1.3686702251434326,-0.208863765001297,-0.4110315144062042,0.006546473596245,0.0489911623299121,0.0,0.0,0.8219488820861536,-0.8220206690960805
-0.0109051708132028,1.359636664390564,-0.2088867872953415,-0.4015158116817474,0.0107087977230548,0.0832545012235641,0.0,0.0,-0.2506271173153926,-0.8933987820531457
-0.013105678372085,1.349918007850647,-0.2258443534374237,-0.4319868385791778,0.0164379887282848,0.1145942360162735,0.0,0.0,-0.2687731326369511,-0.930125366449609
-0.0154424663633108,1.339517593383789,-0.2406021654605865,-0.4623380005359649,0.0232859384268522,0.1369717121124267,0.0,0.0,-0.0390846475831603,0.7340355976015094
-0.0178041458129882,1.3284435272216797,-0.2413841485977172,-0.4922736585140228,0.0284417513757944,0.1031257659196853,0.0,0.0,0.7246883268451276,-0.8593060671853022
-0.020337676629424,1.317825198173523,-0.2600207328796386,-0.4720650315284729,0.035033356398344,0.1318443268537521,0.0,0.0,-0.3937591131833244,-0.6097301510226609
-0.022994328290224,1.3065216541290283,-0.2731040418148041,-0.5025756359100342,0.0423947013914585,0.1472401767969131,0.0,0.0,0.6527623812520922,0.8323880210783317
-0.0256114955991506,1.295333981513977,-0.2673591673374176,-0.4973997175693512,0.0479823909699916,0.1117639765143394,0.0,0.0,-0.958002697137188,0.7505681512077879
-0.0282390601933002,1.2834714651107788,-0.2663023173809051,-0.5273460745811462,0.0514959320425987,0.0702768638730049,0.0,0.0,0.2007796308996967,-0.7719716189690666
-0.0309655182063579,1.2713041305541992,-0.2775420546531677,-0.5409408807754517,0.056341852992773,0.0969274565577507,0.0,0.0,-0.997114496011847,-0.6803074869306643
-0.0338157638907432,1.2584567070007324,-0.290685623884201,-0.5712236166000366,0.0619574375450611,0.112321987748146,0.0,0.0,0.3401186772322224,0.7771822852979612
-0.0366017334163188,1.2452921867370603,-0.2825857996940613,-0.5852571129798889,0.0659074336290359,0.0790068283677101,0.0,0.0,0.922918929647072,0.9057106726884154
-0.0392884239554405,1.232968807220459,-0.2709167599678039,-0.5478018522262573,0.0681371018290519,0.0445974133908748,0.0,0.0,0.0004503768626682,-0.9401791963130576
-0.0420428290963172,1.220295786857605,-0.2792872786521911,-0.5634228587150574,0.0719402879476547,0.0760707855224609,0.0,0.0,0.7745878450126891,-0.7479097759041272
-0.0448873527348041,1.2082420587539673,-0.2897687554359436,-0.535991907119751,0.0772167220711708,0.1055383458733558,0.0,0.0,-0.5263299251215987,0.7740748341578401
-0.0477611534297466,1.1955097913742063,-0.2911013960838318,-0.5660747289657593,0.0809002816677093,0.0736777558922767,0.0,0.0,0.320984535698436,-0.667368202210133
-0.0507058128714561,1.18300461769104,-0.2994398772716522,-0.5560612082481384,0.0858480781316757,0.0989648848772049,0.0,0.0,0.5850614993270624,-0.6816326629240619
-0.0538098327815532,1.1704407930374146,-0.3165275454521179,-0.558759868144989,0.0919213518500328,0.1214762926101684,0.0,0.0,0.5343716284844435,0.6910842182546664
-0.0568559654057025,1.157973051071167,-0.3093408942222595,-0.5544219613075256,0.0966253653168678,0.0940886810421943,0.0,0.0,-0.8813993409596956,-0.9221373664878384
-0.0600469596683979,1.1448017358779907,-0.3252186775207519,-0.5857973098754883,0.1027018427848815,0.1215401515364646,0.0,0.0,0.9644363246639952,-0.6522279317635702
-0.0636293441057205,1.132054567337036,-0.3649165034294128,-0.5670133233070374,0.1093456074595451,0.1328870058059692,0.0,0.0,0.340159996444874,-0.8639393905626578
-0.0675555244088172,1.1194252967834473,-0.4006575644016266,-0.5619105696678162,0.1173271685838699,0.1596310585737228,0.0,0.0,-0.4618355735220754,0.8110890034471758
-0.0714985877275466,1.1061286926269531,-0.4004344046115875,-0.591452956199646,0.1234237104654312,0.121930718421936,0.0,0.0,-0.0199030764063674,-0.630972917495672
-0.0755825042724609,1.0921437740325928,-0.4158047139644623,-0.6221859455108643,0.1307966858148574,0.1474595963954925,0.0,0.0,0.3594902307905883,-0.9345184501829298
-0.0800255760550499,1.0783922672271729,-0.4532308578491211,-0.6119850873947144,0.1396868079900741,0.1778025925159454,0.0,0.0,0.8609384255241683,-0.9280385687857314
-0.0847225189208984,1.064749240875244,-0.4801791608333587,-0.6073759198188782,0.1501352339982986,0.2089689671993255,0.0,0.0,-0.3765738592067396,0.8119015120644242
-0.089433766901493,1.05044686794281,-0.4796544015407562,-0.6365459561347961,0.158650740981102,0.1703106462955474,0.0,0.0,-0.2474430979242461,-0.8256521256953601
-0.0942955017089843,1.0354390144348145,-0.4962940812110901,-0.6681308746337891,0.168781965970993,0.2026242017745971,0.0,0.0,0.3222572534090573,-0.8374178634451866
-0.0994827300310134,1.0206689834594729,-0.5301716327667236,-0.6577876210212708,0.1802573055028915,0.2295069247484207,0.0,0.0,-0.2831103936841794,0.8088524275507194
-0.1046896949410438,1.0052239894866943,-0.5304316282272339,-0.6876533031463623,0.1900340169668197,0.1955338418483734,0.0,0.0,0.5418464191683257,-0.9640030533306324
-999.0,0.9899434447288512,-0.5565780997276306,-0.6806346774101257,0.2015096247196197,0.2295122593641281,0.0,0.0,0.2834357649397547,-0.9219138423448374
-0.1158424392342567,0.9748336672782898,-0.5830655694007874,-0.6733633875846863,0.2145898789167404,0.2616049647331238,0.0,0.0,0.2855781235545238,0.8607136598609331
-0.1216491684317588,0.9595703482627868,-0.5916268825531006,-0.679997980594635,0.2256701439619064,0.221604973077774,0.0,0.0,0.4988715415304392,0.9793237460024096
-0.1275712996721267,0.9446799159049988,-0.6009737849235535,-0.6631662845611572,0.2345543652772903,0.1776843070983886,0.0,0.0,0.1813029171638653,-0.7017448861557223
-0.1337917298078537,0.9299622178077698,-0.631896436214447,-0.6557270884513855,0.2445584833621978,0.2000826299190521,0.0,0.0,-0.1800403329746798,-0.9376099321141262
-0.1401522606611251,0.9145365953445436,-0.647388219833374,-0.6875072121620178,0.2561152279376983,0.2311347723007202,0.0,0.0,0.6217598123211647,-0.6060671764570968
-0.1469332724809646,0.8994808793067932,-0.690094530582428,-0.6712806224822998,0.2683751583099365,0.2451984137296676,0.0,0.0,-0.5161229968070984,0.9583327770233154
-0.1536950170993805,0.8837763071060181,-0.6856074929237366,-0.6997478604316711,0.2780483067035675,0.1934628337621688,0.0,0.0,-0.5379206538200378,0.9307299852371216
-0.1604402512311935,0.867412805557251,-0.6815714836120605,-0.7286204099655151,0.2852900624275207,0.1448349505662918,0.0,0.0,-0.4754621386528015,0.9711685180664062
-0.1671653687953949,0.8504008650779724,-0.6770812273025513,-0.7569904923439026,0.2899888753890991,0.0939763337373733,0.0,0.0,-0.6323539614677429,0.9892208576202391
-0.1738827675580978,0.8327242136001587,-0.6742532253265381,-0.7861347794532776,0.292578250169754,0.0517875254154205,0.0,0.0,-0.413469910621643,0.9979782104492188
-0.180579662322998,0.8143894672393799,-0.6698503494262695,-0.8149063587188721,0.2927489876747131,0.0034150038845837,0.0,0.0,-0.1873039007186889,0.9958841800689696
-0.1872533857822418,0.7954022884368896,-0.665144681930542,-0.8434316515922546,0.2904516160488128,-0.0459473319351673,0.0,0.0,0.2002668380737304,0.9980204105377196
-0.1941784918308258,0.776603639125824,-0.6880645751953125,-0.8346200585365295,0.2858735918998718,-0.0915604680776596,0.0,0.0,-0.2157228589057922,0.9946794509887696
-0.2011034488677978,0.7571547031402588,-0.6862755417823792,-0.8631884455680847,0.2794710099697113,-0.1280521005392074,0.0,0.0,0.4771009683609009,0.9927583932876588
-0.2081537693738937,0.7376981973648071,-0.6965770125389099,-0.8631452322006226,0.2708012163639068,-0.173396036028862,0.0,0.0,0.636656641960144,0.996291160583496
-999.0,0.7184714078903198,-0.6918410062789917,-0.8526129126548767,0.260052353143692,-0.2149771898984909,0.0,0.0,0.6464262008666992,0.999077081680298
-0.2224275171756744,0.6996378302574158,-0.7121965885162354,-0.8348270654678345,0.2469692081212997,-0.2616625130176544,0.0,0.0,0.75831139087677,0.9984183311462402
-0.2296371906995773,0.6808818578720093,-0.7060579061508179,-0.8311683535575867,0.2318143099546432,-0.3030979931354522,0.0,0.0,0.8907738924026489,0.9994673728942872
-0.2370226383209228,0.6628150343894958,-0.7213499546051025,-0.8003638982772827,0.2144141793251037,-0.3480029702186584,0.0,0.0,0.7204780578613281,0.9962112903594972
-0.2443104684352874,0.6448892951011658,-0.7095405459403992,-0.7940199971199036,0.1950085461139679,-0.3881126642227173,0.0,0.0,0.704387903213501,0.9992642402648926
-0.251763105392456,0.6269863247871399,-0.7235862016677856,-0.79297935962677,0.1732401698827743,-0.4353680610656738,0.0,0.0,0.8131189346313477,0.9969433546066284
-0.2592128217220306,0.6097574830055237,-0.7211535573005676,-0.7631263136863708,0.1494161188602447,-0.4764812886714935,0.0,0.0,0.5202195644378662,0.9998016357421876
-0.266567051410675,0.5928269028663635,-0.7094243764877319,-0.7500631809234619,0.1235065460205078,-0.5181915760040283,0.0,0.0,0.4963647127151489,0.9950424432754515
-0.2738890647888183,0.576370894908905,-0.7039684057235718,-0.7292829155921936,0.0954648181796073,-0.5608350038528442,0.0,0.0,0.3404921293258667,0.996625542640686
-0.2812917828559875,0.5602036714553833,-0.7097133994102478,-0.7168713808059692,0.065197005867958,-0.6053568720817566,0.0,0.0,-0.3608108758926391,0.993565320968628
-0.2886316776275635,0.5433652997016907,-0.7009986042976379,-0.7472599744796753,0.0325894057750701,-0.6521525382995605,0.0,0.0,-0.2540097236633301,0.998140811920166
-0.2959246039390564,0.5258663296699524,-0.6943947672843933,-0.7773342132568359,-0.0018625959055498,-0.6890406608581543,0.0,0.0,0.2794848680496216,0.999541163444519
-0.3030403256416321,0.5082979202270508,-0.6745126247406006,-0.7812663316726685,-0.0384492464363575,-0.7317336797714233,0.0,0.0,0.3364839553833008,0.9444804191589355
-0.3100503981113434,0.4908036291599273,-0.6619411706924438,-0.7789772152900696,-0.07707379758358,-0.7724916338920593,0.0,0.0,-0.4132560491561889,0.8393048048019409
-0.3169993460178375,0.4726325571537018,-0.6540665030479431,-0.8102073073387146,-0.1175586432218551,-0.8096979856491089,0.0,0.0,0.5717127323150635,0.8693015575408936
-0.3239457607269287,0.4546496868133545,-0.6519275307655334,-0.8031533360481262,-0.1601224243640899,-0.851276695728302,0.0,0.0,0.4789052009582519,0.6335514783859253
-0.3306948542594909,0.4371324777603149,-0.6311279535293579,-0.7838465571403503,-0.2040529698133468,-0.8786117434501648,0.0,0.0,0.5489814281463623,-0.5271328091621399
-0.3373401761054992,0.419340431690216,-0.622247576713562,-0.7971582412719727,-0.2468527853488922,-0.8559972643852234,0.0,0.0,0.306675910949707,-0.8826414346694946
-0.3438488841056824,0.401896059513092,-0.6106776595115662,-0.7825868129730225,-0.2879680693149566,-0.8223061561584473,0.0,0.0,-0.0294287800788879,-0.9274543523788452
-0.3504214286804199,0.3838208317756653,-0.6195234060287476,-0.8112775683403015,-0.327024757862091,-0.7811342477798462,0.0,0.0,-0.0137414336204528,-0.8742220401763916
-0.3570460677146911,0.3651219606399536,-0.6270825266838074,-0.8395005464553833,-0.3641237318515777,-0.7419796586036682,0.0,0.0,-0.5902771949768066,-0.904285490512848
-0.3637070655822754,0.3457935452461242,-0.6327720880508423,-0.8679125308990479,-0.3995499610900879,-0.7085253000259399,0.0,0.0,0.2132421731948852,-0.8449532389640808
-0.3702552318572998,0.3267642259597778,-0.6234709620475769,-0.8549506664276123,-0.4333609342575073,-0.6762195825576782,0.0,0.0,-0.0623093247413635,-0.8342933654785156
-0.376821368932724,0.3071007132530212,-0.6270676255226135,-0.8833980560302734,-0.4657154381275177,-0.6470901370048523,0.0,0.0,0.0496590137481689,-0.9110510349273682
-0.3833265900611877,0.2871571779251098,-0.6231049299240112,-0.8958824872970581,-0.496219128370285,-0.6100746989250183,0.0,0.0,0.4952002763748169,-0.8434628248214722
-0.3896505832672119,0.2669183015823364,-0.607009768486023,-0.9089518785476683,-0.524916410446167,-0.573945939540863,0.0,0.0,0.6401944160461426,-0.8903163075447083
-0.3958542943000793,0.2465129643678665,-0.5969581604003906,-0.916198432445526,-0.5518137216567993,-0.5379462838172913,0.0,0.0,0.6143326759338379,-0.8626596927642822
-0.4016657471656799,0.2264880239963531,-0.5596705675125122,-0.8990384936332703,-0.5768850445747375,-0.5014269948005676,0.0,0.0,0.8026208877563477,-0.7958210706710815
-0.4069094657897949,0.2068837285041809,-0.5048219561576843,-0.8799781203269958,-0.6000601053237915,-0.4635009765625,0.0,0.0,0.8884055614471436,-0.6740987300872803
-0.4117258489131927,0.1879242211580276,-0.4633581638336181,-0.8511638045310974,-0.6220795512199402,-0.4403890073299408,0.0,0.0,0.9560256004333496,-0.7590207457542419
-0.4164424538612366,0.1689537912607193,-0.4547179341316223,-0.8513923287391663,-0.642795741558075,-0.4143243432044983,0.0,0.0,0.9651088714599608,-0.7417023777961731
-0.420537382364273,0.1504423916339874,-0.39423868060112,-0.8304823637008667,-0.6617318391799927,-0.3787215650081634,0.0,0.0,0.9905235767364502,-0.7721667289733887
-0.4242953360080719,0.1322474330663681,-0.3619153499603271,-0.8159881234169006,-0.6792064905166626,-0.3494925498962402,1.0,0.0,0.9992873668670654,-0.9999401569366456
-0.427560806274414,0.1159712150692939,-0.3231983780860901,-0.7266560792922974,-0.6784031391143799,0.0241453889757394,1.0,0.0,0.99931001663208,-0.9999957084655762
-0.4299878478050232,0.1004101112484932,-0.2615934610366821,-0.6817217469215393,-0.6556426286697388,0.454012006521225,1.0,0.0,0.99611496925354,-0.9873393177986144
-0.4304272532463074,0.088912233710289,-0.1069031953811645,-0.3858647346496582,-0.5474302768707275,2.7140045166015625,1.0,0.0,0.99611496925354,-0.9873393177986144
