x_pos,y_pos,x_vel,y_vel,angle,ang_vel,leg_1,leg_2,main_booster,lat_booster
-0.001480197883211,1.4029170274734497,-0.1497722417116165,-0.3556872904300689,0.0015721401432529,0.0309976376593112,0.0,0.0,-0.1228895187377929,0.92089581489563
-0.0028358460403978,1.3942257165908811,-0.1349364668130874,-0.3862854838371277,0.0009542398620396,-0.0123584968969225,0.0,0.0,-0.0647295713424682,0.3463014364242553
-0.0041430471464991,1.384826421737671,-0.1299193203449249,-0.4177457988262176,0.0001625139411771,-0.0158363431692123,0.0,0.0,0.2221629619598388,0.2343579530715942
-0.0054879188537597,1.3752741813659668,-0.1330860704183578,-0.4245467483997345,-0.0012282070238143,-0.0278171692043542,0.0,0.0,0.3023116588592529,0.2901836633682251
-0.0066781044006347,1.3657852411270142,-0.1179234609007835,-0.4217273294925689,-0.0023092788178473,-0.0216232798993587,0.0,0.0,0.1599296331405639,0.4446055889129638
-0.0077168466523289,1.3561606407165527,-0.1030608564615249,-0.4277621209621429,-0.0031094325240701,-0.0160045493394136,0.0,0.0,0.0300770998001098,0.1460833549499511
-0.0087126735597848,1.3463689088821411,-0.0985174179077148,-0.4351944327354431,-0.0041577355004847,-0.0209680087864398,0.0,0.0,-0.7929843664169312,0.3500025272369385
-0.0096509931609034,1.3358696699142456,-0.092589370906353,-0.4666335880756378,-0.005388009827584,-0.0246078670024871,0.0,0.0,-0.0413791537284851,0.2105286121368408
-0.0105305667966604,1.324663162231445,-0.0865164026618003,-0.4980691373348236,-0.0068019460886716,-0.0282815154641866,0.0,0.0,0.5381932258605957,-0.6857827305793762
-0.0113999368622899,1.313768744468689,-0.0867018774151802,-0.4842000901699066,-0.0070440107956528,-0.0048415903002023,0.0,0.0,-0.6993704438209534,-0.2004053592681884
-0.012208079919219,1.3021668195724487,-0.0803751721978187,-0.515645444393158,-0.0074731037020683,-0.0085825845599174,0.0,0.0,-0.0907649993896484,-0.7881748080253601
-0.0130084995180368,1.2898565530776978,-0.0808139890432357,-0.5471166372299194,-0.0067106406204402,0.0152505580335855,0.0,0.0,0.3075567483901977,-0.5150994062423706
-0.0136703494936227,1.2776713371276855,-0.0680714398622512,-0.5415573120117188,-0.0048498534597456,0.0372191593050956,0.0,0.0,-0.8826433420181274,0.000503659248352
-0.0142678264528512,1.264778733253479,-0.0614353604614734,-0.5730018019676208,-0.003179932013154,0.0334014482796192,0.0,0.0,-0.4056282639503479,-0.475136935710907
-0.0147999767214059,1.2511788606643677,-0.0547091849148273,-0.6044372320175171,-0.001701156841591,0.0295781791210174,0.0,0.0,-0.3499245643615722,-0.71934574842453
-0.0153123857453465,1.236863374710083,-0.0537283606827259,-0.6362434029579163,0.0007526872213929,0.0490813627839088,0.0,0.0,-0.5540456175804138,-0.700740396976471
-0.0158007629215717,1.221848964691162,-0.0522010698914527,-0.667319655418396,0.0040850052610039,0.0666521787643432,0.0,0.0,-0.4380917549133301,-0.3089522123336792
-0.0162216182798147,1.206127047538757,-0.0452536381781101,-0.6987580060958862,0.0072223097085952,0.0627515986561775,0.0,0.0,0.3241990804672241,-0.3446002006530761
-0.0165011398494243,1.1906640529632568,-0.0312880352139472,-0.6872679591178894,0.0105284946039319,0.066129632294178,0.0,0.0,-0.7840767502784729,-0.5486350655555725
-0.016761016100645,1.174492359161377,-0.0303836707025766,-0.7187687754631042,0.0148731265217065,0.0869003534317016,0.0,0.0,-0.5348695516586304,0.5417144298553467
-0.0168997757136821,1.1576189994812012,-0.0167601648718118,-0.7499634623527527,0.0177155565470457,0.0568538680672645,0.0,0.0,-0.4546744227409363,0.1602677106857299
-0.0169689171016216,1.140038251876831,-0.0095862997695803,-0.7814013361930847,0.0203605443239212,0.0529049262404441,0.0,0.0,-0.2285098433494568,0.29776132106781
-0.0169678684324026,1.121749997138977,-0.0023675118573009,-0.8128389716148376,0.022806292399764,0.0489195026457309,0.0,0.0,-0.5090175271034241,0.255974531173706
-0.0168961528688669,1.1027547121047974,0.0048930617049336,-0.8442766666412354,0.0250524040311574,0.0449261218309402,0.0,0.0,-0.1203183531761169,0.0202369689941406
-0.0167535785585641,1.0830519199371338,0.0121917752549052,-0.8757142424583435,0.0270981360226869,0.0409181639552116,0.0,0.0,0.4230809211730957,0.5565177202224731
-0.0166478157043457,1.0635288953781128,0.01014263369143,-0.8676978349685669,0.0275229588150978,0.0084966924041509,0.0,0.0,0.8195745944976807,-0.192287266254425
-0.0164881702512502,1.0444984436035156,0.0157141350209712,-0.8458069562911987,0.0277663841843605,0.0048687225207686,0.0,0.0,0.6758184432983398,-0.4708988070487976
-0.0164122581481933,1.0260101556777954,0.0081613836809992,-0.8216888904571533,0.0271957423537969,-0.0114129912108182,0.0,0.0,0.7458083629608154,-0.5881726741790771
-0.0164810176938772,1.0080387592315674,-0.0068885060027241,-0.7987274527549744,0.0272091254591941,0.0002676600706763,0.0,0.0,0.2916182279586792,-0.0216740369796752
-0.0165040977299213,0.9899309873580932,-0.0020424423273652,-0.804787814617157,0.0269456785172224,-0.0052688904106616,0.0,0.0,0.464066743850708,0.2431395053863525
-0.0164581295102834,0.9722414016723632,0.0049852984957396,-0.7861950397491455,0.0265581253916025,-0.0077511654235422,0.0,0.0,0.3718868494033813,-0.1722989678382873
-0.0164135936647653,0.9543876051902772,0.0053503522649407,-0.7934874892234802,0.0256710015237331,-0.0177423544228076,0.0,0.0,0.1613388061523437,-0.8717430830001831
-0.0164471622556448,0.936674177646637,-0.0039757522754371,-0.7872682809829712,0.0262854620814323,0.0122892232611775,0.0,0.0,0.0872901678085327,-0.3403528332710266
-0.0164557453244924,0.9186078310012816,-0.001079935231246,-0.802954375743866,0.0265054479241371,0.0043997121974825,0.0,0.0,0.1997857093811035,0.3814287185668945
-0.0163912773132324,0.9005175828933716,0.0063686063513159,-0.8040138483047485,0.0265798661857843,0.001488541951403,0.0,0.0,0.5060001611709595,0.6253914833068848
-0.0162042621523141,0.8827611804008484,0.0200445428490638,-0.7891522645950317,0.0252491030842065,-0.0266153030097484,0.0,0.0,0.3111588954925537,-0.0134609341621398
-0.0159737579524517,0.8648383021354675,0.0246978159993886,-0.7965390682220459,0.0236223544925451,-0.0325347818434238,0.0,0.0,0.3380016088485718,-0.4171662330627441
-0.0156534202396869,0.8471338748931885,0.0337375737726688,-0.7868414521217346,0.0219389330595731,-0.0336684957146644,0.0,0.0,0.4427748918533325,-0.0014524459838867
-0.0153099056333303,0.8298245668411255,0.0364134646952152,-0.7692811489105225,0.0198976304382085,-0.0408260747790336,0.0,0.0,-0.3907811045646667,-0.4240241646766662
-0.0148927690461277,0.8118076920509338,0.0439803078770637,-0.8007164001464844,0.0176578816026449,-0.0447947010397911,0.0,0.0,-0.0969472527503967,-0.1882734298706054
-0.0144020076841115,0.7930837273597717,0.0515501871705055,-0.8321517109870911,0.0152202481403946,-0.0487530194222927,0.0,0.0,0.2134181261062622,-0.439358115196228
-0.0137527463957667,0.7742311358451843,0.0671767517924308,-0.8378700613975525,0.0130045833066105,-0.0443133935332298,0.0,0.0,-0.4978841543197632,-0.6010099649429321
-0.0130694387480616,0.75466388463974,0.0697496980428695,-0.8696442246437073,0.0115948524326086,-0.02819449827075,0.0,0.0,0.2484819889068603,-0.0041965842247009
-0.0122421262785792,0.7349898219108582,0.0840090215206146,-0.8743945956230164,0.0103362156078219,-0.025172933936119,0.0,0.0,0.5916770696640015,-0.6595549583435059
-0.0114388465881347,0.7150247097015381,0.0805670544505119,-0.8873379230499268,0.0101015884429216,-0.004692465532571,0.0,0.0,0.1970633268356323,-0.2358414530754089
-0.0105310436338186,0.6947159171104431,0.0910594016313552,-0.9026116728782654,0.0098266145214438,-0.0054994458332657,0.0,0.0,0.3849484920501709,-0.4330717325210571
-0.009502219967544,0.6742624640464783,0.1031244993209838,-0.909041464328766,0.0095948344096541,-0.0046357419341802,0.0,0.0,0.7843780517578125,-0.9215129613876344
-0.0086163524538278,0.6544592976570129,0.0873814225196838,-0.8801484704017639,0.0107832690700888,0.0237688347697258,0.0,0.0,0.6404526233673096,-0.2159883379936218
-0.0077970502898097,0.6351203322410583,0.0815271884202957,-0.8595054745674133,0.0111711453646421,0.0077574760653078,0.0,0.0,0.8015923500061035,-0.5678493976593018
-0.0069802282378077,0.6159034371376038,0.0804077237844467,-0.854098916053772,0.0124313486739993,0.0252039693295955,0.0,0.0,0.3522365093231201,-0.0485903024673461
-0.0059784888289868,0.5966823697090149,0.0985389351844787,-0.8542842864990234,0.0140462052077054,0.032297383993864,0.0,0.0,0.82843017578125,-0.7843688130378723
-0.0050467490218579,0.5779793858528137,0.090294525027275,-0.8312753438949585,0.0168880373239517,0.0568364784121513,0.0,0.0,0.427343487739563,-0.4352176189422607
-0.0039540291763842,0.5591475367546082,0.1061411276459693,-0.8370077610015869,0.0199815388768911,0.0618701800704002,0.0,0.0,0.9425019025802612,-0.8366044759750366
-0.0028692246414721,0.5410210490226746,0.103833831846714,-0.8056925535202026,0.0245633348822593,0.0916361585259437,0.0,0.0,0.6514980792999268,0.043036937713623
-0.0015747069846838,0.5229237675666809,0.1242890730500221,-0.8044143319129944,0.029652789235115,0.1017890721559524,0.0,0.0,0.6867895126342773,-0.3204436898231506
-0.000319480895996,0.5048364400863647,0.1210078224539756,-0.8039769530296326,0.0341118201613426,0.0891804844141006,0.0,0.0,0.702235221862793,-0.6543101072311401
0.001033115433529,0.4872819185256958,0.1293604522943496,-0.7803486585617065,0.039939746260643,0.1165583729743957,0.0,0.0,0.4556348323822021,-0.0621119141578674
0.0025555610191076,0.4699183702468872,0.1459613293409347,-0.7718941569328308,0.0461560189723968,0.1243254691362381,0.0,0.0,0.4922056198120117,0.1740660667419433
0.0041831969283521,0.4529668092727661,0.1563231796026229,-0.7536112070083618,0.0525131970643997,0.1271433532238006,0.0,0.0,0.5477030277252197,-0.353342056274414
0.0057724951766431,0.4364054203033447,0.1530067026615142,-0.7362798452377319,0.0583721324801445,0.1171786561608314,0.0,0.0,0.688300371170044,-0.4138510823249817
0.0074633597396314,0.4197084307670593,0.1630827039480209,-0.742338240146637,0.064308188855648,0.1187212914228439,0.0,0.0,0.7586041688919067,-0.2171728014945984
0.0090706823393702,0.4034116864204407,0.1554051637649536,-0.7245387434959412,0.0695892944931984,0.1056219935417175,0.0,0.0,0.493281602859497,-0.0574772357940673
0.0108277322724461,0.387118935585022,0.1700050830841064,-0.7243942618370056,0.0752294734120369,0.1128033623099327,0.0,0.0,0.8016886711120605,-0.4811007976531982
0.0126305576413869,0.3711219727993011,0.1746204644441604,-0.7112723588943481,0.0808353945612907,0.112118199467659,0.0,0.0,0.8967568874359131,-0.4598011970520019
0.0144751546904444,0.3551070988178253,0.1789108216762542,-0.7120829224586487,0.0863341987133026,0.1099760085344314,0.0,0.0,0.8874211311340332,-0.5812815427780151
0.0161350257694721,0.3393690586090088,0.1598331034183502,-0.6998347043991089,0.0924310535192489,0.1219372749328613,0.0,0.0,0.9734276533126832,-0.0254651308059692
0.017795180901885,0.3244543969631195,0.1598915606737136,-0.6632633209228516,0.0985078290104866,0.1215356811881065,0.0,0.0,0.8280086517333984,-0.2758470773696899
0.0195826534181833,0.3093293011188507,0.1723287105560302,-0.6726656556129456,0.1048715114593505,0.1272736489772796,0.0,0.0,0.93291175365448,-0.4242721796035766
0.0213651657104492,0.2949920892715454,0.1718215495347976,-0.6376742124557495,0.1112540513277053,0.1276507675647735,0.0,0.0,0.8806741237640381,-0.1568256020545959
0.023048972710967,0.2807332277297973,0.1625792980194091,-0.634166955947876,0.1170197278261184,0.1153134852647781,0.0,0.0,0.9594630002975464,-0.6498409509658813
0.0245388988405466,0.2669371664524078,0.1423098891973495,-0.6136982440948486,0.1236601695418357,0.1328087002038955,0.0,0.0,0.9263653755187988,0.3612445592880249
0.026041317731142,0.2535209655761719,0.1435056626796722,-0.5968471765518188,0.130358412861824,0.133964866399765,0.0,0.0,0.8182644844055176,0.2294203042984008
0.0273479465395212,0.2407525926828384,0.1247051209211349,-0.5680178999900818,0.1362997889518737,0.1188273206353187,0.0,0.0,0.6859179735183716,0.7447341680526733
0.0287793166935443,0.2281815409660339,0.1385992467403412,-0.5591346025466919,0.140824481844902,0.0904934406280517,0.0,0.0,0.8135347366333008,-0.1995450258255005
0.0301780700683593,0.2155330926179886,0.1355948597192764,-0.5625640153884888,0.1450917720794677,0.0853458791971206,0.0,0.0,0.9519717693328856,0.2750606536865234
0.0316641815006732,0.2027649283409118,0.1440431326627731,-0.5679265260696411,0.1496523320674896,0.0912110656499862,0.0,0.0,0.9126272201538086,0.3032535314559936
0.033118151128292,0.1898642182350158,0.141064777970314,-0.5738055109977722,0.1539732366800308,0.0864182710647583,0.0,0.0,0.9522569179534912,-0.0804452300071716
0.0344801917672157,0.1776433587074279,0.1319870054721832,-0.5435912013053894,0.1581861227750778,0.0842578113079071,0.0,0.0,0.9328676462173462,0.2657939195632934
0.035844899713993,0.1661511957645416,0.131887137889862,-0.5112578868865967,0.162778154015541,0.0918402522802352,0.0,0.0,0.9866976737976074,-0.4028517007827759
0.0369768142700195,0.1553738713264465,0.1092737540602684,-0.4794265329837799,0.1667001843452453,0.0784405097365379,0.0,0.0,0.9886775016784668,-0.5201089978218079
0.0378989204764366,0.1444226652383804,0.087774209678173,-0.4872225224971771,0.1711331605911255,0.0886597335338592,0.0,0.0,0.9690921306610109,0.0980939865112304
0.0387651436030864,0.1341693252325058,0.0820037499070167,-0.4562456309795379,0.1757595688104629,0.0925284251570701,0.0,0.0,0.9889159202575684,-0.6815675497055054
0.0393840782344341,0.124183565378189,0.0562799088656902,-0.4444850385189056,0.1813972294330597,0.1127529367804527,0.0,0.0,0.985673189163208,0.2973394393920898
0.0398460403084754,0.1146751046180725,0.0408892184495925,-0.4232581853866577,0.1867176294326782,0.1064082533121109,0.0,0.0,0.9842169284820556,0.7540323734283447
0.0402479171752929,0.1057134494185447,0.0364538542926311,-0.3987731039524078,0.1904816627502441,0.0752807408571243,0.0,0.0,0.962216854095459,0.630896806716919
0.0407285690307617,0.0971080660820007,0.0452843531966209,-0.3828195035457611,0.1932784765958786,0.0559364184737205,0.0,0.0,0.9509556293487548,0.95155131816864
0.0412872321903705,0.0884119868278503,0.0549122281372547,-0.3866190612316131,0.1942368149757385,0.0191667415201663,0.0,0.0,0.9875755310058594,0.1425037384033203
0.0419105514883995,0.0797538831830024,0.0608445182442665,-0.3849998116493225,0.1957305371761322,0.0298745278269052,0.0,0.0,0.996108055114746,-0.4774912595748901
0.0426209457218647,0.0714556276798248,0.068714402616024,-0.3691208958625793,0.1980731189250946,0.0468513295054435,0.0,0.0,0.9925985336303712,0.3371251821517944
0.0434476844966411,0.0631994307041168,0.07955002784729,-0.3673635423183441,0.2012272030115127,0.0630817413330078,0.0,0.0,0.9935481548309326,-0.342759370803833
0.0441299453377723,0.0555665120482444,0.0650872737169265,-0.3396719396114349,0.2043903917074203,0.06326375156641,0.0,0.0,0.9928076267242432,0.8299161195755005
0.0447710044682025,0.0486088618636131,0.0624985285103321,-0.3094521462917328,0.2060150653123855,0.0324932895600795,0.0,0.0,0.9845480918884276,-0.0964996218681335
0.0454340949654579,0.0421665534377098,0.0639577284455299,-0.2866542041301727,0.2083856761455536,0.0474120862782001,0.0,0.0,0.9523611068725586,0.7759604454040527
0.0462425239384174,0.0356344804167747,0.0796882957220077,-0.2904772162437439,0.2095518708229065,0.0233237333595752,0.0,0.0,0.9778451919555664,-0.5914990305900574
0.0468484871089458,0.0292526818811893,0.0583849139511585,-0.2839512526988983,0.2117879092693328,0.044720359146595,0.0,0.0,0.9998345375061036,0.726137638092041
0.047430895268917,0.0237568002194166,0.0571482703089714,-0.2444206327199936,0.2128969877958297,0.0221817046403884,0.0,0.0,0.9751424789428712,0.513178825378418
0.0478577613830566,0.0194362252950668,0.0609750933945179,-0.1894823461771011,0.1945119500160217,-0.3676269352436065,0.0,1.0,0.995119571685791,0.0141664743423461
0.047840692102909,0.0164972394704818,0.0347713455557823,-0.12625752389431,0.157906100153923,-0.7321629524230957,0.0,1.0,0.9197165966033936,-0.7140141725540161
0.0476886741816997,0.0144637683406472,0.0292325820773839,-0.0862652510404586,0.1135635823011398,-0.8869115114212036,0.0,1.0,0.7154409885406494,-0.5948052406311035
0.0473727211356163,0.012854085303843,0.0103067252784967,-0.068879947066307,0.0720070973038673,-0.8311302065849304,0.0,1.0,0.7589619159698486,-0.7477112412452698
0.0468430519104003,0.0117405746132135,-0.0122278053313493,-0.0480215437710285,0.0317385271191597,-0.8053725957870483,0.0,0.0,-0.9147247672080994,-0.9285168051719666
0.0462653152644634,0.0099335527047514,-0.0190181080251932,-0.0799358338117599,-0.0065196743234992,-0.7651649713516235,0.0,0.0,-0.1884986162185669,-0.9885866045951844
0.0456207282841205,0.0074392412789165,-0.028178472071886,-0.1114013269543647,-0.0423397682607173,-0.7164028882980347,0.0,0.0,0.7809922695159912,-0.9977678656578064
0.0447638519108295,0.0051143025048077,-0.0512972846627235,-0.1046535968780517,-0.0763344392180442,-0.6798942685127258,1.0,0.0,0.9348478317260742,-0.2724841833114624
0.0441849716007709,0.0038956857752054,-0.0387112647294998,-0.0555142685770988,-0.0942163541913032,-0.356187641620636,1.0,0.0,0.3317258358001709,-0.2431325912475586
0.0438103675842285,0.0030833340715616,-0.0386878922581672,-0.0360377319157123,-0.0929670929908752,0.0250198654830455,1.0,0.0,-0.5641594529151917,0.472002625465393
0.0435358062386512,0.0021651245187968,-0.0454568862915039,-0.0397975780069828,-0.0751074329018592,0.3572302460670471,1.0,0.0,-0.6791659593582153,-0.0152480006217956
0.0433256141841411,0.000942931161262,-0.0501035451889038,-0.0531200394034385,-0.0463020615279674,0.5761494636535645,1.0,0.0,-0.279869794845581,0.1905629634857177
0.0431414619088172,-0.0007961773662827,-0.0524433329701423,-0.0765970051288604,-0.0126579822972416,0.6729317903518677,1.0,0.0,0.3457363843917846,0.4406108856201172
0.0429458618164062,-0.0017271899851039,-0.0372056476771831,-0.0413327552378177,0.0047578993253409,0.3483197093009949,1.0,1.0,0.4475777149200439,0.9954272508621216
0.0427174568176269,-0.001529743662104,-0.0212820377200841,0.0087780486792325,0.0032295773271471,-0.0305566377937793,1.0,1.0,-0.9944502115249634,0.7931678295135498
0.0425932891666889,-0.0011684680357575,-0.0047707306221127,0.016056302934885,-0.0042834440246224,-0.1502164900302887,1.0,1.0,-0.8408467173576355,-0.4224905967712402
0.0425774566829204,-0.0009978795424103,-0.0029671266674995,0.0075824847444891,-0.0029059664811939,0.0275590680539608,1.0,1.0,-0.8240349888801575,0.1178343296051025
0.0425582900643348,-0.0009965919889509,-0.0019467219244688,5.277403397485614e-05,-0.0028930511325597,0.0002562890585977,1.0,1.0,-0.6618037819862366,0.0132427215576171
0.0425567626953125,-0.0009977364679798,-0.0001529733417555,-5.2436182158999145e-05,-0.0028907458763569,5.007407162338495e-05,1.0,1.0,-0.6640843152999878,0.1386369466781616
0.0425619110465049,-0.0009976648725569,0.0005335485911928,-8.503314461449918e-07,-0.0028989212587475,-0.0001549695734865,1.0,1.0,-0.8395748734474182,0.0656667947769165
0.0425658226013183,-0.0009976648725569,0.0003963856142945,5.433961973722035e-07,-0.0029050265438854,-0.0001152273180196,1.0,1.0,-0.778751790523529,0.0362242460250854
0.042566679418087,-0.0009976648725569,8.418493234785274e-05,5.5355773298515494e-08,-0.0029064379632472,-2.4468487026751973e-05,1.0,1.0,-0.9063092470169068,-0.1168181896209716
0.0425659194588661,-0.0009976648725569,-7.413914136122912e-05,-3.5686344546093096e-08,-0.0029054579790681,2.1531477614189495e-05,1.0,1.0,-0.8834273815155029,0.045910358428955
0.0425651557743549,-0.0009976648725569,-7.558158540632576e-05,-4.322761526509567e-08,-0.002904430264607,2.1957972421660088e-05,1.0,1.0,-0.8619701862335205,0.2342523336410522
0.0425648689270019,-0.0009976648725569,-2.50645443884423e-05,-1.4192900188447766e-08,-0.0029041396919637,7.2821771937015e-06,1.0,1.0,-0.9121426939964294,0.0178242921829223
