x_pos,y_pos,x_vel,y_vel,angle,ang_vel,leg_1,leg_2,main_booster,lat_booster
-0.0015082359313964,1.402991533279419,-0.1536803096532821,-0.3523861467838287,0.0025558783672749,0.05047557502985,0.0,0.0,-0.3989531993865967,0.9494974613189696
-0.0029199600685387,1.3944487571716309,-0.1424328088760376,-0.3796828687191009,0.0038011060096323,0.0249078143388032,0.0,0.0,-0.1691988110542297,0.2200720310211181
-0.0043157576583325,1.38527250289917,-0.1416410207748413,-0.4078420102596283,0.0058362521231174,0.0407069325447082,0.0,0.0,0.2922829389572143,0.9572712182998656
-0.0057306289672851,1.3760459423065186,-0.1423532515764236,-0.4100719392299652,0.0066933636553585,0.0171438176184892,0.0,0.0,0.6127325296401978,0.8022851943969727
-0.0069311140105128,1.367145538330078,-0.1203723773360252,-0.3955690264701843,0.0070169176906347,0.0064717317000031,0.0,0.0,0.1451399326324463,0.6758203506469727
-0.0079575534909963,1.3581775426864624,-0.1025650650262832,-0.3985778391361236,0.0069422670640051,-0.0014931530458852,0.0,0.0,-0.5115495920181274,0.8388054370880127
-0.0089040752500295,1.3485772609710691,-0.0937522277235984,-0.4266776740550995,0.0060575203970074,-0.0176966786384582,0.0,0.0,-0.3455657958984375,0.8271074295043945
-0.0097528453916311,1.3383471965789795,-0.0827114656567573,-0.4546633064746856,0.0039175557903945,-0.0428036041557788,0.0,0.0,-0.4388775825500488,0.3028478622436523
-0.0105851171538233,1.3274840116500854,-0.0818502902984619,-0.4827995598316192,0.0025648088194429,-0.027057534083724,0.0,0.0,-0.4553160667419433,-0.4458239078521728
-0.0114006996154785,1.315988063812256,-0.0809867307543754,-0.5109355449676514,0.0019970526918768,-0.0113560799509286,0.0,0.0,-0.7539429664611816,-0.0997785329818725
-0.0121996877714991,1.3038588762283323,-0.0801219120621681,-0.5390713810920715,0.0022133972961455,0.0043275617063045,0.0,0.0,-0.4505977630615234,-0.8163022994995117
-0.0130389211699366,1.2910950183868408,-0.086382009088993,-0.5672925114631653,0.0046405824832618,0.0485481657087802,0.0,0.0,-0.4863698482513428,-0.1061961650848388
-0.0138617511838674,1.277698040008545,-0.0855227261781692,-0.5954293012619019,0.0078478539362549,0.0641508847475051,0.0,0.0,-0.3450674414634704,-0.2304282188415527
-0.0146681787446141,1.2636685371398926,-0.0846656486392021,-0.6235662698745728,0.0118342535570263,0.0797352343797683,0.0,0.0,-0.6401476263999939,0.1725785732269287
-0.0154581069946289,1.2490061521530151,-0.0838123187422752,-0.6517038345336914,0.0165974739938974,0.0952729731798172,0.0,0.0,-0.4587994813919067,-0.1435028910636901
-0.0162317268550395,1.2337114810943604,-0.0829639583826065,-0.6798423528671265,0.0221352763473987,0.1107663884758949,0.0,0.0,-0.6866068243980408,0.1831831932067871
-0.0169891361147165,1.2177842855453491,-0.0821216031908989,-0.7079820036888123,0.0284453332424163,0.1262123882770538,0.0,0.0,0.2381936311721801,0.8100497722625732
-0.0175524707883596,1.2016468048095703,-0.0619889572262764,-0.7173348665237427,0.0340379029512405,0.1118616908788681,0.0,0.0,-0.415198802947998,0.3648297786712646
-0.0180997848510742,1.1848770380020142,-0.0611573867499828,-0.7454784512519836,0.0403979793190956,0.1272126734256744,0.0,0.0,-0.5606377720832825,0.8799242973327637
-0.0185708999633789,1.1674784421920776,-0.052786149084568,-0.7734346985816956,0.0460077449679374,0.1122053638100624,0.0,0.0,-0.0699173212051391,0.8344833850860596
-0.0189466476440429,1.1494591236114502,-0.041973553597927,-0.800998330116272,0.0503684543073177,0.0872221961617469,0.0,0.0,0.3909280300140381,0.8129522800445557
-0.0192498210817575,1.131366729736328,-0.0338747091591358,-0.8042337894439697,0.05388655513525,0.0703683421015739,0.0,0.0,0.3677089214324951,0.7246575355529785
-0.019384765997529,1.113330364227295,-0.0165436081588268,-0.8017356991767883,0.0569073520600795,0.0604209788143634,0.0,0.0,-0.2201175689697265,0.6987888813018799
-0.0194422714412212,1.0946587324142456,-0.007996235974133,-0.8299311995506287,0.0591287426650524,0.0444319546222686,0.0,0.0,0.1826626062393188,0.7253320217132568
-0.0195693969726562,1.076041579246521,-0.0141259934753179,-0.827484667301178,0.0605221949517726,0.0278717540204525,0.0,0.0,0.1912901401519775,0.3735219240188598
-0.0198161117732524,1.0575212240219116,-0.0263368748128414,-0.823199450969696,0.0621718876063823,0.0329937264323234,0.0,0.0,0.1999926567077636,0.6071319580078125
-0.0200296398252248,1.0391669273376465,-0.0225498527288436,-0.8157989382743835,0.063354954123497,0.0236611105501651,0.0,0.0,0.4721369743347168,0.6219608783721924
-0.0203529354184865,1.02128005027771,-0.0327350124716758,-0.7949879765510559,0.0637610256671905,0.0081212306395173,0.0,0.0,0.8159180879592896,0.6974761486053467
-0.0208160392940044,1.0040314197540283,-0.0456804670393466,-0.766576886177063,0.0631418526172638,-0.0123834125697612,0.0,0.0,0.5569264888763428,-0.058236539363861
-0.0213133804500103,0.9868363738059998,-0.0497472397983074,-0.7642229795455933,0.0631526187062263,0.0002153059176634,0.0,0.0,0.3640849590301513,0.4522356986999511
-0.0218252185732126,0.9700568914413452,-0.0519903898239135,-0.7457901239395142,0.0639501139521598,0.0159499309957027,0.0,0.0,0.7303388118743896,0.7706208229064941
-0.0223805420100688,0.9533247351646424,-0.0553245171904563,-0.7436381578445435,0.0637445375323295,-0.0041113616898655,0.0,0.0,0.1534134149551391,-0.1541333198547363
-0.0230154041200876,0.9367926120758056,-0.0637108832597732,-0.7347754836082458,0.063973918557167,0.0045875143259763,0.0,0.0,-0.075897991657257,-0.6549481749534607
-0.0236936565488576,0.9196164608001708,-0.0702223479747772,-0.7634837627410889,0.0663405582308769,0.0473328679800033,0.0,0.0,0.439017653465271,0.9465136528015136
-0.0243042949587106,0.9026368856430054,-0.0622516758739948,-0.7547072768211365,0.0675228908658027,0.0236466899514198,0.0,0.0,0.6380298137664795,0.9044768810272216
-0.0248612407594919,0.8861629366874695,-0.0557937026023864,-0.7321725487709045,0.0676090344786644,0.0017230287194252,0.0,0.0,-0.1462098360061645,-0.023840844631195
-0.0254058837890625,0.8690568804740906,-0.0552160814404487,-0.7603102326393127,0.0683633983135223,0.0150874089449644,0.0,0.0,0.0991179943084716,0.8665584325790405
-0.0258750915527343,0.8520929217338562,-0.0466126576066017,-0.7539442181587219,0.0680571869015693,-0.0061243823729455,0.0,0.0,0.791027307510376,0.6805624961853027
-0.0263872146606445,0.8358717560768127,-0.0500774905085563,-0.7208895087242126,0.0669331774115562,-0.0224800296127796,0.0,0.0,-0.3414106369018554,0.1704648733139038
-0.0268878936767578,0.8190180659294128,-0.0495679602026939,-0.7490273118019104,0.0664462074637413,-0.0097396373748779,0.0,0.0,0.9096066951751708,0.8428443670272827
-0.0275056846439838,0.802879273891449,-0.0599527284502983,-0.7172002792358398,0.0646312609314918,-0.0362988151609897,0.0,0.0,0.0029633045196533,0.0718618631362915
-0.0280585289001464,0.7865909337997437,-0.0544158220291137,-0.7238878011703491,0.0637758150696754,-0.0171089358627796,0.0,0.0,-0.5564848780632019,0.5854326486587524
-0.028546905145049,0.7696688175201416,-0.0472136586904525,-0.7520253658294678,0.0621682964265346,-0.0321502014994621,0.0,0.0,0.5352654457092285,0.2404220104217529
-0.0289636608213186,0.7528581619262695,-0.0410742051899433,-0.7471129298210144,0.0615736097097396,-0.0118939168751239,0.0,0.0,0.006738543510437,0.6088454723358154
-0.0293614380061626,0.7356784343719482,-0.0384898111224174,-0.7634950280189514,0.0603073462843894,-0.0253253076225519,0.0,0.0,0.2552411556243896,0.1972324848175048
-0.0297303199768066,0.7182492613792419,-0.0363355092704296,-0.7746037840843201,0.0597587935626506,-0.0109710860997438,0.0,0.0,0.4348946809768677,-0.0930864810943603
-0.0300606731325387,0.7007735371589661,-0.0332737490534782,-0.7767104506492615,0.0599955171346664,0.0047344490885734,0.0,0.0,0.4977443218231201,0.8495280742645264
-0.0304753296077251,0.6838018298149109,-0.0403723493218421,-0.7542559504508972,0.0589068792760372,-0.0217728503048419,0.0,0.0,0.3332307338714599,0.87473464012146
-0.0309728626161813,0.6671529412269592,-0.0472838096320629,-0.7398571372032166,0.0564696490764617,-0.0487445704638958,0.0,0.0,-0.0609758496284484,0.6373181343078613
-0.0314141288399696,0.6498737931251526,-0.0409185774624347,-0.7678459286689758,0.0532966218888759,-0.0634606033563613,0.0,0.0,0.2730656862258911,0.2146071195602417
-0.0317613594233989,0.6326298117637634,-0.0325039401650428,-0.766315221786499,0.0511034801602363,-0.0438629426062107,0.0,0.0,0.2020051479339599,0.6514284610748291
-0.0321247093379497,0.6155611276626587,-0.0331877171993255,-0.7585096955299377,0.0479921773076057,-0.0622260384261608,0.0,0.0,-0.4054490327835083,0.2127223014831543
-0.0324818603694438,0.5978596210479736,-0.0330002754926681,-0.7866462469100952,0.0453093573451042,-0.0536564216017723,0.0,0.0,0.6689040660858154,0.1768697500228881
-0.0328663811087608,0.5807331800460815,-0.0361767709255218,-0.7611091136932373,0.0430486984550952,-0.0452130101621151,0.0,0.0,-0.0011286735534667,0.8212028741836548
-0.0331646911799907,0.5629762411117554,-0.0258661843836307,-0.7890903353691101,0.0391360893845558,-0.0782522037625312,0.0,0.0,0.9519429206848145,0.5135306119918823
-0.033558465540409,0.5454142689704895,-0.0343859829008579,-0.7804118394851685,0.0342052653431892,-0.098616674542427,0.0,0.0,0.963269591331482,-0.3356616497039795
-0.0338685996830463,0.5286451578140259,-0.026886498555541,-0.7452041506767273,0.0301315318793058,-0.0814746916294097,0.0,0.0,0.8776328563690186,0.0129722356796264
-0.0340411178767681,0.5123996138572693,-0.0141805652529001,-0.7219635844230652,0.0271001998335123,-0.0606266371905803,0.0,0.0,0.526094913482666,0.8208578824996948
-0.0340888015925884,0.4966760277748108,-0.0004707482294179,-0.6987560391426086,0.0228451192378997,-0.0851015299558639,0.0,0.0,-0.0583609938621521,0.378398060798645
-0.0341337211430072,0.480319619178772,-0.0004440447664819,-0.7268921732902527,0.0188590567559003,-0.0797212943434715,0.0,0.0,0.3685891628265381,0.179606556892395
-0.0341393463313579,0.4637917876243591,0.0030257946345955,-0.7345301508903503,0.0153136039152741,-0.0709090679883956,0.0,0.0,0.7914834022521973,-0.194313645362854
-0.0342633239924907,0.4477694034576416,-0.0085129681974649,-0.7120712399482727,0.011484770104289,-0.0765767842531204,0.0,0.0,0.8201868534088135,-0.1566582918167114
-0.0342560783028602,0.4319711923599243,0.003770328592509,-0.7021245956420898,0.0084800757467746,-0.06009391695261,0.0,0.0,0.9410350322723388,-0.4513698816299438
-0.0342260375618934,0.4166206121444702,0.0057492316700518,-0.6822376251220703,0.0057730907574296,-0.0541398897767066,0.0,0.0,0.0664585828781127,0.2426636219024658
-0.034191608428955,0.4010252356529236,0.0060126362368464,-0.6931206583976746,0.0032340364996343,-0.0507811084389686,0.0,0.0,0.8079671859741211,-0.3521719574928283
-0.0342944152653217,0.3857663869857788,-0.0071925171650946,-0.6781653761863708,0.000187809971976,-0.0609244890511035,0.0,0.0,0.9688339233398438,0.0985423326492309
-0.0343718528747558,0.3714044988155365,-0.0048717316240072,-0.6383094787597656,-0.0026456001214683,-0.0566682144999504,0.0,0.0,0.9127392768859864,0.4697843790054321
-0.0343538299202919,0.356917142868042,0.0041601611301302,-0.6438884139060974,-0.004969582427293,-0.046479795128107,0.0,0.0,0.896296501159668,0.6818051338195801
-0.0342442505061626,0.3432738482952118,0.0145534202456474,-0.6063833236694336,-0.0085214227437973,-0.0710368826985359,0.0,0.0,0.5362284183502197,-0.407067060470581
-0.0342196449637413,0.329659104347229,0.0064459284767508,-0.605128824710846,-0.0124569917097687,-0.0787114277482032,0.0,0.0,0.7699837684631348,-0.5581291913986206
-0.0343368537724018,0.3165045976638794,-0.0085641136392951,-0.5846719741821289,-0.0155712459236383,-0.062285017222166,0.0,0.0,0.8471009731292725,0.1205048561096191
-0.0344107635319232,0.3037600517272949,-0.0043671801686286,-0.5664600729942322,-0.0185526255518198,-0.0596277937293052,0.0,0.0,0.946185827255249,-0.1020694971084594
-0.0346200950443744,0.2918788492679596,-0.0171560198068618,-0.5281045436859131,-0.0222852062433958,-0.0746516361832618,0.0,0.0,0.4905625581741333,-0.2113568186759948
-0.034754179418087,0.2801439464092254,-0.0098613826557993,-0.5216091275215149,-0.0257827173918485,-0.0699501484632492,0.0,0.0,0.7660486698150635,0.0478870868682861
-0.034916304051876,0.2684044539928436,-0.0124091105535626,-0.5218241810798645,-0.0295403730124235,-0.0751531943678855,0.0,0.0,0.9447427988052368,-0.5748423933982849
-0.0350307449698448,0.2565979957580566,-0.0089236348867416,-0.5247822999954224,-0.0320288650691509,-0.0497699528932571,0.0,0.0,0.6580116748809814,-0.2159489393234253
-0.0351693145930767,0.2446709722280502,-0.0110572269186377,-0.5301551818847656,-0.0347993783652782,-0.0554098859429359,0.0,0.0,0.7620745897293091,-0.6644644737243652
-0.0353442206978797,0.2333884537220001,-0.0158411432057619,-0.5014844536781311,-0.0364256985485553,-0.0325266160070896,0.0,0.0,-0.0654733180999755,-0.2405111789703369
-0.0355229377746582,0.2214730829000473,-0.0160526558756828,-0.5296192765235901,-0.038226518779993,-0.036016322672367,0.0,0.0,0.964696168899536,-0.6553327441215515
-0.0358633026480674,0.2103993445634842,-0.0329554602503776,-0.4921908676624298,-0.039290465414524,-0.0212790388613939,0.0,0.0,0.844372034072876,-0.4674829244613647
-0.0363376624882221,0.1992556005716323,-0.0454722493886947,-0.4953330755233764,-0.041233617812395,-0.0388629324734211,0.0,0.0,0.9423675537109376,0.4605145454406738
-0.0367307662963867,0.1888688653707504,-0.0373342856764793,-0.4616874754428863,-0.0431856289505958,-0.0390403158962726,0.0,0.0,0.3346774578094482,-0.5484442710876465
-0.0372407920658588,0.1785546690225601,-0.049687523394823,-0.4584510624408722,-0.0444862432777881,-0.0260122008621692,0.0,0.0,0.3054515123367309,-0.1430450081825256
-0.0377749428153038,0.1684130579233169,-0.0516359396278858,-0.4507934749126434,-0.0462475791573524,-0.0352265648543834,0.0,0.0,0.5922136306762695,0.6980223655700684
-0.0382400527596473,0.1586490273475647,-0.0430212281644344,-0.4340671002864837,-0.0496982708573341,-0.0690139681100845,0.0,0.0,0.4083753824234009,-0.495598554611206
-0.0386112220585346,0.1489898562431335,-0.0336764492094516,-0.4294147193431854,-0.0530947111546993,-0.0679284855723381,0.0,0.0,0.4197093248367309,-0.6538108587265015
-0.0390010848641395,0.139134481549263,-0.0366158597171306,-0.4381029307842254,-0.0554514192044734,-0.0471341833472251,0.0,0.0,0.7455086708068848,0.2798506021499634
-0.0392746925354003,0.1292753964662552,-0.0251104682683944,-0.4382676184177398,-0.0576707199215889,-0.0443862006068229,0.0,0.0,0.911391019821167,-0.6839833855628967
-0.0393859855830669,0.1197614967823028,-0.0103988861665129,-0.4228675961494446,-0.0584021918475627,-0.014629291370511,0.0,0.0,0.8996238708496094,-0.697195827960968
-0.0393584258854389,0.1102782785892486,0.0020092413760721,-0.4214483499526977,-0.0576665513217449,0.0147129762917757,0.0,0.0,0.9542332887649536,-0.7535279989242554
-0.0393512733280658,0.101504310965538,-0.0011703036725521,-0.3898821473121643,-0.0557974651455879,0.0373815223574638,0.0,0.0,0.8651728630065918,0.2591335773468017
-0.0392663963139057,0.0933772921562194,0.006799497641623,-0.3611399829387665,-0.0541274175047874,0.0334009155631065,0.0,0.0,0.3635536432266235,-0.5873762965202332
-0.0390907302498817,0.0854389518499374,0.0148334009572863,-0.3527150154113769,-0.0514244064688682,0.0540599226951599,0.0,0.0,0.335245132446289,-0.7251825928688049
-0.0388729088008403,0.0772530660033226,0.0178353618830442,-0.3636857271194458,-0.0475233346223831,0.0780213847756385,0.0,0.0,0.9171581268310548,-0.3948107361793518
-0.0386926643550396,0.0693243816494941,0.0147563125938177,-0.3522879183292389,-0.0442915298044681,0.0646359771490097,0.0,0.0,0.924091100692749,-0.0928349494934082
-0.0383740440011024,0.062262162566185,0.0285310354083776,-0.3137803971767425,-0.0409987196326255,0.0658563748002052,0.0,0.0,0.7878396511077881,0.073975920677185
-0.038059901446104,0.0554919093847274,0.0286118872463703,-0.3008265793323517,-0.0382245816290378,0.055482693016529,0.0,0.0,0.5417659282684326,-0.1796591281890869
-0.0378376021981239,0.0492082461714744,0.0203705634921789,-0.2792257666587829,-0.0363961458206176,0.0365689061582088,0.0,0.0,0.1651235818862915,-0.5190528631210327
-0.0375753417611122,0.0430307947099208,0.0236133597791194,-0.2744925618171692,-0.0338145941495895,0.0516309961676597,0.0,0.0,0.4697282314300537,0.2855182886123657
-0.0373420715332031,0.0372235625982284,0.0213632397353649,-0.258055716753006,-0.0318732075393199,0.0388276614248752,0.0,0.0,0.16475510597229,0.0327938795089721
-0.0371540077030658,0.0315777622163295,0.0175450220704078,-0.250897616147995,-0.0306263621896505,0.0249369572848081,0.0,0.0,0.6059165000915527,0.757390022277832
-0.0369214043021202,0.0260207988321781,0.0240085460245609,-0.2469907104969024,-0.0313650369644165,-0.0147735774517059,0.0,0.0,0.6968590021133423,0.3973187208175659
-0.0367925651371479,0.0207627397030591,0.0146426679566502,-0.2337285727262497,-0.0330909602344036,-0.0345188751816749,0.0,0.0,0.6349422931671143,0.3632029294967651
-0.0367981903254985,0.0156563855707645,0.0023134374059736,-0.2270164340734481,-0.0359421297907829,-0.0570233352482318,0.0,0.0,0.7367992401123047,0.6775238513946533
-0.0366050712764263,0.0110444165766239,0.0237239673733711,-0.2050880491733551,-0.0403018295764923,-0.0871940553188324,0.0,0.0,0.5432181358337402,-0.2180609703063964
-0.0363431945443153,0.0063130711205303,0.0307742860168218,-0.210413783788681,-0.044838111847639,-0.090725652873516,0.0,0.0,0.7910633087158203,-0.3710912466049194
-0.0358893387019634,0.0021779991220682,0.0496938563883304,-0.1839161813259124,-0.0490906611084938,-0.0850509405136108,1.0,0.0,0.9067173004150392,0.0499039888381958
-0.0353821739554405,-0.0008361244108527,0.0455903969705104,-0.1341073364019394,-0.0430062636733055,0.1229937449097633,1.0,0.0,0.7522188425064087,-0.6227661967277527
-0.0346302986145019,-0.002717783441767,0.0553731434047222,-0.0831857249140739,-0.0233841128647327,0.3924916684627533,1.0,0.0,0.1755168437957763,-0.5559981465339661
-0.0338058471679687,-0.0043531083501875,0.0540231652557849,-0.0724878758192062,0.0047054537571966,0.5618398785591125,1.0,1.0,0.8487122058868408,0.6290448904037476
-0.033083152025938,-0.0047535803169012,0.0564220026135444,-0.0181163735687732,0.0193050950765609,0.2906689941883087,1.0,1.0,0.1539549827575683,0.5959495306015015
-0.0324652679264545,-0.0044166948646306,0.0612883567810058,0.0149553455412387,0.0197920929640531,0.009727144613862,1.0,1.0,-0.5443134903907776,-0.9505754113197328
-0.0320369713008403,-0.0040993001312017,0.0476299151778221,0.0141538428142666,0.0150604452937841,-0.0946243181824684,1.0,1.0,-0.3212685585021972,-0.8617480397224426
-0.0317709930241107,-0.0037082338239997,0.0309360511600971,0.0174079742282629,0.0107818031683564,-0.085563525557518,1.0,1.0,-0.5161290764808655,-0.5194150805473328
-0.0315691940486431,-0.0032121681142598,0.0217449124902486,0.0220581665635108,0.0092264544218778,-0.0311223361641168,1.0,1.0,-0.5045315623283386,-0.2052605748176574
-0.031344223767519,-0.0025998735800385,0.0221331901848316,0.0272098015993833,0.0095844315364956,0.007151867263019,1.0,1.0,-0.5979443192481995,0.0575966835021972
-0.0311722755432128,-0.0020734095014631,0.0212359521538019,0.0234148111194372,0.0055803717114031,-0.0800863355398178,1.0,1.0,-0.1309201121330261,-0.3105465173721313
-0.0309987068176269,-0.0015681529184803,0.0212613902986049,0.0224635880440473,0.0017212916864082,-0.0771857053041458,1.0,1.0,-0.0896564722061157,-0.4204664230346679
-0.0308213233947753,-0.0011074208887293,0.0213250406086444,0.0204751472920179,-0.0018191103590652,-0.070811703801155,1.0,1.0,-0.2347586154937744,-0.5886055827140808
-0.0306809432804584,-0.0011036300566047,0.0140349045395851,0.0001697368279565,-0.0018168482929468,4.064030508743599e-05,1.0,1.0,-0.4924333691596985,0.0907548666000366
-0.0305994991213083,-0.001106777228415,0.0081338975578546,-0.0001396479929098,-0.001818443997763,-3.346262383274734e-05,1.0,1.0,-0.6115978956222534,-0.0808961391448974
