x_pos,y_pos,x_vel,y_vel,angle,ang_vel,leg_1,leg_2,main_booster,lat_booster
-0.0015106201171875,1.4033173322677612,-0.1533862650394439,-0.337905615568161,0.0020772072020918,0.0409981869161129,0.0,0.0,0.2049299355322629,0.69854941273786
-0.0029113769996911,1.395931839942932,-0.1411174535751342,-0.3282409906387329,0.0031057817395776,0.0205743126571178,0.0,0.0,0.5654446115339828,0.6891008251274768
-0.0041071893647313,1.3888087272644043,-0.1198834627866745,-0.3165841400623321,0.0034065379295498,0.0060156071558594,0.0,0.0,0.862311422167737,0.7796419969259902
-0.0053763389587402,1.3822201490402222,-0.1256576180458068,-0.2928270995616913,0.0021617370657622,-0.024898363277316,0.0,0.0,-0.4701669853852741,0.905692030038186
-0.0065451622940599,1.3753273487091064,-0.1137778311967849,-0.3063454329967499,-0.0009123847703449,-0.0614878423511981,0.0,0.0,-0.9003316086252755,0.744655660290721
-0.0076280594803392,1.3681262731552124,-0.1037114635109901,-0.3200508058071136,-0.0054425345733761,-0.0906114131212234,0.0,0.0,-0.5505018386435443,-0.6904883054878659
-0.0087532047182321,1.3606187105178833,-0.1097286716103553,-0.3336815536022186,-0.0081947315484285,-0.0550489239394664,0.0,0.0,-0.234422591913703,-0.8962032764543199
-0.0099171642214059,1.3528072834014893,-0.1153338328003883,-0.3471847176551819,-0.0092462552711367,-0.0210321582853794,0.0,0.0,-0.0147175693206182,0.9031887780255556
-0.010997200384736,1.34469735622406,-0.1055312156677246,-0.3604575097560882,-0.0116780251264572,-0.0486400127410888,0.0,0.0,-0.0089685611979217,0.6645072189285587
-0.0120102884247899,1.336283564567566,-0.0979100912809372,-0.3739796876907348,-0.0150438835844397,-0.0673237293958664,0.0,0.0,0.5293150709159242,-0.9123586479992466
-0.0129824634641408,1.3283878564834597,-0.096147671341896,-0.3509240746498108,-0.0160958357155323,-0.0210410468280315,0.0,0.0,0.8539188837560734,-0.6386414997736418
-0.0138955116271972,1.321071743965149,-0.0921526998281478,-0.3251520991325378,-0.0152647290378808,0.0166234895586967,0.0,0.0,-0.1991282510088206,0.9916901424223672
-0.0146989822387695,1.3134511709213257,-0.0791657716035842,-0.3387068212032318,-0.0164278652518987,-0.023264855146408,0.0,0.0,0.7328525123573979,0.7296294011028838
-0.0153450965881347,1.3060718774795532,-0.0625559836626052,-0.3279940187931061,-0.0184585396200418,-0.0406168960034847,0.0,0.0,0.8273461604459906,0.7286138809613086
-0.0157324783504009,1.2997539043426514,-0.036041259765625,-0.2808332443237304,-0.0211296025663614,-0.0534263923764228,0.0,0.0,-0.403843478345854,0.9171786277512072
-0.0160197261720895,1.2931151390075684,-0.0242614783346653,-0.2951272130012512,-0.0255396589636802,-0.0882092490792274,0.0,0.0,-0.7842247924559658,0.6349875455656966
-0.0162302963435649,1.2861744165420532,-0.0154543938115239,-0.3085809051990509,-0.031079102307558,-0.1107990518212318,0.0,0.0,0.1878754334196499,0.6249688859369488
-0.0162542350590229,1.2793177366256714,0.0038474630564451,-0.3048833012580871,-0.0372508130967617,-0.123445376753807,0.0,0.0,0.5506411176770363,-0.9578057801598152
-0.0162070281803607,1.2732906341552734,0.0084740798920392,-0.2679668664932251,-0.0409727580845356,-0.0744455307722091,0.0,0.0,-0.7122440533379428,0.8607908504537706
-0.0160861015319824,1.2669522762298584,0.0169195290654897,-0.2818500697612762,-0.045747373253107,-0.0955005809664726,0.0,0.0,-0.0425854047170848,0.6367323240644837
-0.0158889777958393,1.2603070735931396,0.0256401151418685,-0.2955286204814911,-0.0516198687255382,-0.1174603477120399,0.0,0.0,-0.2921350908634699,-0.8822753680072346
-0.0157452579587698,1.2533550262451172,0.0181184411048889,-0.3091122508049011,-0.0553356222808361,-0.0743216201663017,0.0,0.0,-0.3638847715082038,-0.8535215720512763
-0.015639591962099,1.2460987567901611,0.0125348772853612,-0.3225750029087066,-0.0572806596755981,-0.0389043018221855,0.0,0.0,0.0661039379817507,-0.8845480179755463
-0.0155246732756495,1.238828182220459,0.0112386103719472,-0.3231264948844909,-0.0570199824869632,0.0052137589082121,0.0,0.0,-0.6721423854935817,0.997469980261576
-0.0153345111757516,1.2312476634979248,0.0198365990072488,-0.3369474709033966,-0.0578307248651981,-0.016216117888689,0.0,0.0,-0.1619276258016206,0.8985728372417088
-0.0150762554258108,1.22333824634552,0.0275571309030056,-0.3516011238098144,-0.0595471821725368,-0.0343289859592914,0.0,0.0,-0.5670461391445389,-0.9900035893524984
-0.0148806571960449,1.2151343822479248,0.0188558939844369,-0.3645908236503601,-0.0588537491858005,0.0138684082776308,0.0,0.0,-0.5952145598675744,-0.746488776141462
-0.0147418025881052,1.2066370248794556,0.0109005598351359,-0.3775444626808166,-0.0558976121246814,0.0591226816177368,0.0,0.0,-0.5480924916279966,-0.729624092636453
-0.014657974243164,1.1978442668914795,0.0031355475075542,-0.3906007707118988,-0.0507185384631156,0.1035816892981529,0.0,0.0,0.6440985802621628,-0.963018519840855
-0.0146347042173147,1.189475417137146,-0.0052808113396167,-0.3717083036899566,-0.0431967861950397,0.1504347622394561,0.0,0.0,0.3403451379055124,0.7290273287011725
-0.0144922258332371,1.1818325519561768,0.0076136142015457,-0.339508444070816,-0.0366404764354229,0.1311260908842086,0.0,0.0,-0.9487222101937516,-0.9291885550456562
-0.0144183160737156,1.1738821268081665,-0.0018179677426815,-0.3531504571437835,-0.0275375694036483,0.1820579469203949,0.0,0.0,0.6010518004355749,0.8749987564847288
-0.0143284797668457,1.1667993068695068,0.0011940646218135,-0.3146727383136749,-0.019844340160489,0.15386463701725,0.0,0.0,0.7128913595617796,-0.939878530893168
-0.0143651962280273,1.1599667072296145,-0.0137138189747929,-0.3035657703876495,-0.0099277971312403,0.1983307003974914,0.0,0.0,-0.5333486626643558,0.7727359114359225
-0.01432466506958,1.1528289318084717,-0.0048652631230652,-0.3172075450420379,-0.00112580799032,0.1760399043560028,0.0,0.0,-0.5775782874087148,0.9353990305793894
-0.0141935348510742,1.1453914642333984,0.0056622927077114,-0.3305629789829254,0.0062242876738309,0.1470022052526474,0.0,0.0,-0.172545279467549,0.8844237693242958
-0.0139812473207712,1.1376436948776243,0.0150116337463259,-0.3443874418735504,0.012357366271317,0.1226618140935897,0.0,0.0,0.4152333723731287,0.6384623060669635
-0.0136767383664846,1.1305735111236572,0.0249895043671131,-0.3142781555652618,0.0177564546465873,0.1079817041754722,0.0,0.0,0.6949435400570529,0.7518944352057918
-0.0133583070710301,1.1245020627975464,0.027504276484251,-0.2699065804481506,0.0220361407846212,0.0855938419699668,0.0,0.0,-0.8944164762521509,-0.9755678884344
-0.0130996704101562,1.1181225776672363,0.0191876478493213,-0.2836428582668304,0.0286304429173469,0.1318859755992889,0.0,0.0,-0.2636401956207232,0.8466396185967776
-0.0127723691985011,1.1114460229873655,0.026990607380867,-0.2968519330024719,0.0343040041625499,0.1134710535407066,0.0,0.0,-0.948374330997467,0.975888967514038
-0.0123382564634084,1.1044656038284302,0.0395551472902298,-0.3103403747081756,0.0381037853658199,0.0759957432746887,0.0,0.0,-0.9307124614715576,0.9304461479187012
-0.0118050575256347,1.0971728563308716,0.0511795058846473,-0.3241808116436004,0.0402198657393455,0.04232182726264,0.0,0.0,-0.9673726558685304,0.4318306446075439
-0.0112585071474313,1.0895731449127195,0.0520420372486114,-0.3378361463546753,0.0427996404469013,0.0515952184796333,0.0,0.0,-0.9940804839134216,0.7668253183364868
-0.0106420516967773,1.0816611051559448,0.0600097849965095,-0.3516929745674133,0.0444208271801471,0.0324235558509826,0.0,0.0,-0.9686984419822692,0.1277732849121093
-0.0100125316530466,1.0734422206878662,0.0608426630496978,-0.3653482496738434,0.0465034171938896,0.0416520312428474,0.0,0.0,-0.9190418124198914,0.4715491533279419
-0.0093701360747218,1.0649163722991943,0.0616598650813102,-0.3790037930011749,0.0490459688007831,0.0508513078093528,0.0,0.0,-0.879734992980957,0.8149189949035645
-0.0086630824953317,1.056096434593201,0.069006510078907,-0.392055869102478,0.0507262833416461,0.0336064472794532,0.0,0.0,-0.9754207134246826,0.0341182947158813
-0.0079435352236032,1.046969652175903,0.0697906762361526,-0.4057114720344543,0.0528629422187805,0.0427329577505588,0.0,0.0,-0.92266845703125,-0.2192189693450927
-0.0072117806412279,1.0375359058380127,0.0705575197935104,-0.4193672239780426,0.0554537288844585,0.0518154874444007,0.0,0.0,-0.6787644028663635,0.4833152294158935
-0.0064680101349949,1.027795433998108,0.0713065043091774,-0.4330232739448547,0.058496169745922,0.0608487240970134,0.0,0.0,-0.8306403756141663,0.5363394021987915
-0.0056741712614893,1.0177552700042725,0.0768317431211471,-0.4463331401348114,0.0610213056206703,0.0505024902522563,0.0,0.0,-0.9139112830162048,0.5348798036575317
-0.0048186304047703,1.007409930229187,0.0838193297386169,-0.459866315126419,0.0627349913120269,0.0342737510800361,0.0,0.0,-0.9179579615592957,0.3983501195907593
-0.003951740451157,0.9967576861381532,0.084511674940586,-0.4735222458839416,0.0648912042379379,0.0431243181228637,0.0,0.0,-0.7147936820983887,0.759624719619751
-0.0029986381996423,0.9858030676841736,0.0945861488580703,-0.4868985116481781,0.0656005293130874,0.0141864791512489,0.0,0.0,-0.7403314709663391,0.1859875917434692
-0.0020347596146166,0.9745418429374696,0.0952384620904922,-0.5005543231964111,0.066744714975357,0.0228834021836519,0.0,0.0,-0.9035053253173828,-0.0294363498687744
-0.0010601043468341,0.9629738330841064,0.0958701446652412,-0.5142102241516113,0.0683193430304527,0.0314929038286209,0.0,0.0,-0.8791416883468628,-0.0243248343467712
-7.505416579078883e-05,0.95109885931015,0.0964808613061904,-0.5278662443161011,0.0703197196125984,0.0400073193013668,0.0,0.0,-0.6882336735725403,0.4128270149230957
0.0009201049688272,0.938917338848114,0.0970702990889549,-0.5415224432945251,0.072740651667118,0.0484187342226505,0.0,0.0,-0.76295006275177,0.8177337646484375
0.00198116293177,0.926442325115204,0.1046784296631813,-0.5545188188552856,0.0741522163152694,0.0282312985509634,0.0,0.0,-0.904515027999878,0.1496195793151855
0.0030518532730638,0.9136604070663452,0.1052244454622268,-0.5681748986244202,0.0759727582335472,0.0364108942449092,0.0,0.0,-0.9063661098480223,0.0824276208877563
0.00413179397583,0.9005717635154724,0.1057484522461891,-0.5818310379981995,0.0781957879662513,0.0444607101380825,0.0,0.0,-0.954590916633606,0.2539447546005249
0.0052206991240382,0.8871764540672302,0.1062503010034561,-0.5954873561859131,0.0808143243193626,0.0523708947002887,0.0,0.0,-0.8584235906600952,0.4630286693572998
0.0063183782622218,0.8734745979309082,0.1067299097776413,-0.6091439127922058,0.0838208869099617,0.0601309612393379,0.0,0.0,-0.7617509961128235,0.418437123298645
0.0074243545532226,0.8594658970832825,0.1071872115135192,-0.6228007078170776,0.0872073769569397,0.0677300244569778,0.0,0.0,-0.5230209827423096,0.9185519218444824
0.0085960384458303,0.8451587557792664,0.1148381605744361,-0.6360138654708862,0.0895109698176384,0.0460720472037792,0.0,0.0,-0.8932670950889587,0.5295702219009399
0.0098182680085301,0.8305568099021912,0.1206388026475906,-0.6490724682807922,0.0910817310214042,0.0314148776233196,0.0,0.0,-0.8632651567459106,-0.1319245100021362
0.0110479351133108,0.8156481981277466,0.12102922052145,-0.6627286672592163,0.0930047035217285,0.0384596996009349,0.0,0.0,-0.6917237043380737,0.3791660070419311
0.0122847557067871,0.8004326820373535,0.1213975995779037,-0.6763850450515747,0.095269426703453,0.0452941730618476,0.0,0.0,-0.6758070588111877,0.689720630645752
0.0135744092985987,0.7849141955375671,0.1275157779455185,-0.6898081302642822,0.0967056900262832,0.028725266456604,0.0,0.0,-0.3964473009109497,0.0981627702713012
0.0148704526945948,0.7690889239311218,0.1278407275676727,-0.7034642696380615,0.0984605699777603,0.0350975878536701,0.0,0.0,-0.7757328748703003,0.6873559951782227
0.0162295345216989,0.752966582775116,0.1352756917476654,-0.7165930271148682,0.0990805923938751,0.0124004706740379,0.0,0.0,-0.847723662853241,-0.4547914266586303
0.0175942424684762,0.7365373373031616,0.1355584412813186,-0.7302488684654236,0.0999932140111923,0.0182522125542163,0.0,0.0,-0.6948519349098206,0.2632647752761841
0.0189644806087017,0.7198013663291931,0.1358206570148468,-0.743904709815979,0.1011842340230941,0.0238207131624221,0.0,0.0,-0.8512065410614014,-0.1793717145919799
0.0203397758305072,0.7027584910392761,0.1360628306865692,-0.7575604319572449,0.1026387438178062,0.0290903486311435,0.0,0.0,-0.782897412776947,0.4976581335067749
0.0217198375612497,0.6854087114334106,0.1362854540348053,-0.7712161540985107,0.1043410152196884,0.0340452827513217,0.0,0.0,-0.7156619429588318,-0.8608089685440063
0.0230335239320993,0.6677325963973999,0.1276008486747741,-0.7858760952949524,0.1080844029784202,0.0748680159449577,0.0,0.0,-0.3333160877227783,0.8263726234436035
0.0244147293269634,0.6497675180435181,0.1357780545949936,-0.7986205220222473,0.1104132905602455,0.0465777777135372,0.0,0.0,0.0878903865814209,-0.7904747128486633
0.0257383342832326,0.6323041319847107,0.1281990706920623,-0.7764652967453003,0.1145458221435546,0.0826508402824401,0.0,0.0,0.812385082244873,0.8818114995956421
0.0268961898982524,0.6158673763275146,0.1134596094489097,-0.7306989431381226,0.1168503016233444,0.0460896231234073,0.0,0.0,0.0065641403198242,0.8868269920349121
0.0280105583369731,0.5994111895561218,0.1107171401381492,-0.7314432859420776,0.1175616383552551,0.0142268985509872,0.0,0.0,-0.1297417879104614,0.7323737144470215
0.0291882511228323,0.5826653838157654,0.1184910908341407,-0.744202733039856,0.1168475523591041,-0.0142817068845033,0.0,0.0,0.4066922664642334,0.0371791124343872
0.030225371941924,0.5663275122642517,0.1047159433364868,-0.7260515689849854,0.1158502846956253,-0.0199451502412557,0.0,0.0,-0.8259401917457581,0.0607753992080688
0.0312644019722938,0.5496824979782104,0.1048046797513961,-0.7397059798240662,0.1149473786354065,-0.0180580336600542,0.0,0.0,0.5180947780609131,0.4264657497406006
0.0322202667593956,0.5336859822273254,0.09647186845541,-0.7108870148658752,0.1140657663345336,-0.0176321063190698,0.0,0.0,0.7286380529403687,0.116858959197998
0.0331985466182231,0.5183051228523254,0.0982475131750106,-0.6835617423057556,0.1136556938290596,-0.0082017071545124,0.0,0.0,-0.7292560935020447,0.7306991815567017
0.0342379584908485,0.5026202201843262,0.1058454886078834,-0.6969631910324097,0.111759640276432,-0.0379210710525512,0.0,0.0,0.5239993333816528,-0.9540454745292664
0.0352585799992084,0.4871785044670105,0.1019367799162864,-0.6863085031509399,0.1118753924965858,0.0023153377696871,0.0,0.0,0.2653114795684814,0.3582780361175537
0.0363423340022563,0.4721002578735351,0.1077579036355018,-0.6701881885528564,0.1124918088316917,0.0123281236737966,0.0,0.0,-0.1372827291488647,-0.8111984133720398
0.0373773574829101,0.4567003846168518,0.101672813296318,-0.6845794320106506,0.1143101602792739,0.0363668873906135,0.0,0.0,-0.5583325624465942,0.4224143028259277
0.0384117141366004,0.4409932196140289,0.1016843169927597,-0.6982324123382568,0.1160603389143943,0.035003263503313,0.0,0.0,-0.1169272065162658,0.188429594039917
0.0394453033804893,0.4249787330627441,0.1016880646347999,-0.7118851542472839,0.1177185401320457,0.0331640392541885,0.0,0.0,0.4319796562194824,0.2935583591461181
0.0405170433223247,0.409537136554718,0.1051137074828147,-0.6864534020423889,0.1197604089975357,0.0408375822007656,0.0,0.0,0.1960866451263427,0.1877782344818115
0.0416315086185932,0.394153356552124,0.1091911941766738,-0.683908998966217,0.1220010295510292,0.0448127016425132,0.0,0.0,0.7920875549316406,0.7203562259674072
0.0426721572875976,0.3792815208435058,0.1035613566637039,-0.6610115766525269,0.1225042045116424,0.0100635634735226,0.0,0.0,0.8958525657653809,-0.2841804027557373
0.0436861999332904,0.3655939698219299,0.1006349176168441,-0.6083994507789612,0.1232719123363494,0.0153541937470436,0.0,0.0,0.4015406370162964,-0.1670700907707214
0.0446188934147357,0.3523139655590057,0.0928059890866279,-0.5902621746063232,0.1237413585186004,0.009388605132699,0.0,0.0,0.3999547958374023,0.3309769630432129
0.045361328870058,0.3397102355957031,0.0744889453053474,-0.5601447820663452,0.1234946921467781,-0.0049331672489643,0.0,0.0,0.1720000505447387,-0.1362619400024414
0.0461012832820415,0.3275472223758697,0.0742050260305404,-0.5405606031417847,0.1232844665646553,-0.004204518161714,0.0,0.0,0.2368232011795044,-0.4421064853668213
0.0467293746769428,0.3159053027629852,0.0634795129299163,-0.5173638463020325,0.1226195022463798,-0.0132993832230567,0.0,0.0,0.4093970060348511,-0.0925004482269287
0.0472061149775981,0.3048937320709228,0.0489622801542282,-0.4892971217632293,0.1213392913341522,-0.0256041977554559,0.0,0.0,0.5816493034362793,0.2663780450820923
0.0475981719791889,0.2942799627780914,0.0409106686711311,-0.4715823829174042,0.1196415349841117,-0.0339549854397773,0.0,0.0,0.6909093856811523,0.0407297611236572
0.0477946288883686,0.2842539548873901,0.0222378969192504,-0.4453970193862915,0.1170662492513656,-0.0515055283904075,0.0,0.0,0.0638984441757202,0.5662045478820801
0.0478852279484272,0.2744103670120239,0.0132984714582562,-0.4371636211872101,0.1128534749150276,-0.0842555537819862,0.0,0.0,-0.1863647699356079,-0.0674729347229003
0.0479719154536724,0.264259397983551,0.01327386777848,-0.4508150517940521,0.1082824692130088,-0.0914200842380523,0.0,0.0,0.4598803520202636,-0.6827356815338135
0.0480256080627441,0.254281997680664,0.0088560078293085,-0.4431881010532379,0.1048141047358512,-0.0693673640489578,0.0,0.0,0.5126545429229736,-0.0144787430763244
0.0481341369450092,0.245059922337532,0.0141215668991208,-0.4096440374851227,0.1015721037983894,-0.0648400038480758,0.0,0.0,0.3004535436630249,-0.4072353839874267
0.0481586456298828,0.2364391684532165,0.0062090591527521,-0.3828982710838318,0.0978452041745185,-0.074537917971611,0.0,0.0,0.3628227710723877,-0.4435572624206543
0.0482272133231163,0.2285802215337753,0.0104827126488089,-0.3490522503852844,0.0942483842372894,-0.0719363242387771,0.0,0.0,-0.394723117351532,-0.778104841709137
0.0482379905879497,0.2204062044620514,0.0037628044374287,-0.3631236255168915,0.0915796160697937,-0.0533754117786884,0.0,0.0,-0.0382720828056335,-0.1365777254104614
0.0482442863285541,0.2119244933128357,0.0037674426566809,-0.3767742216587066,0.0884733349084854,-0.0621261000633239,0.0,0.0,0.7834115028381348,-0.696012556552887
0.048186682164669,0.2044136673212051,-0.0037385406903922,-0.3336970508098602,0.0864670053124427,-0.0401262864470481,0.0,0.0,0.1433933973312378,-0.2440474033355713
0.0481527335941791,0.1970765739679336,-0.0011625608894973,-0.3259669840335846,0.0842607766389846,-0.0441244319081306,0.0,0.0,0.2998167276382446,-0.7181826233863831
0.0479093566536903,0.1901393085718155,-0.0229223165661096,-0.3082438707351684,0.082863412797451,-0.0279475338757038,0.0,0.0,0.2426393032073974,-0.1194862127304077
0.0475334152579307,0.1834611743688583,-0.0352587066590786,-0.2966788113117218,0.0805439352989196,-0.0463896431028842,0.0,0.0,0.3960914611816406,0.3916587829589844
0.0470965392887592,0.177185446023941,-0.0407709553837776,-0.2787678837776184,0.077656902372837,-0.0577405616641044,0.0,0.0,-0.0148538351058959,-0.3829609155654907
0.0466552749276161,0.1706020981073379,-0.0407125875353813,-0.2924186885356903,0.0742792189121246,-0.0675535947084426,0.0,0.0,0.0448213815689086,0.8062584400177002
0.0463529601693153,0.1640620827674865,-0.0247279070317745,-0.2904057502746582,0.0688342675566673,-0.108899101614952,0.0,0.0,-0.0348482131958007,-0.765070915222168
0.0459956154227256,0.1572128683328628,-0.0310140289366245,-0.3041996359825134,0.0641613975167274,-0.0934572964906692,0.0,0.0,0.0260332822799682,-0.6537377238273621
0.0455677025020122,0.150809109210968,-0.0388852059841156,-0.2844482064247131,0.0602966137230396,-0.0772955045104026,0.0,0.0,0.0001888275146484,-0.6411623954772949
0.0451177582144737,0.1443728804588318,-0.0419036373496055,-0.285929799079895,0.0572379603981971,-0.0611729808151721,0.0,0.0,0.0928554534912109,0.2683632373809814
