x_pos,y_pos,x_vel,y_vel,angle,ang_vel,leg_1,leg_2,main_booster,lat_booster
-0.0016370773082599,1.4031802415847778,-0.1658981889486313,-0.3439951241016388,0.0019660829566419,0.0387977212667465,0.0,0.0,0.2483983039855957,0.4902558326721191
-0.0033491135109215,1.3955423831939695,-0.1734537482261657,-0.3394705355167389,0.0041980072855949,0.0446434244513511,0.0,0.0,-0.0916259288787841,0.5986189842224121
-0.0051161767914891,1.3874554634094238,-0.1776369512081146,-0.3594163656234741,0.0051176059059798,0.0183933991938829,0.0,0.0,-0.0624833703041076,0.718902587890625
-0.0069496156647801,1.378922462463379,-0.183256521821022,-0.3792473375797272,0.0050382521003484,-0.0015873340889811,0.0,0.0,0.2206314802169799,0.9094253778457642
-0.0087141040712594,1.3706719875335691,-0.1747703105211258,-0.3666795492172241,0.0033807628788053,-0.0331529788672924,0.0,0.0,-0.4354456663131714,0.6933557987213135
-0.0105213169008493,1.3619768619537354,-0.177507072687149,-0.3864557147026062,0.0001958527136594,-0.0637041255831718,0.0,0.0,-0.5253725051879883,0.8777387142181396
-0.0123707773163914,1.3528375625610352,-0.1802006065845489,-0.4061976969242096,-0.0044983099214732,-0.0938914790749549,0.0,0.0,0.1355308294296264,0.9223300218582152
-0.0141324996948242,1.343922734260559,-0.1697860658168792,-0.3962435722351074,-0.0108119742944836,-0.1262850016355514,0.0,0.0,0.0153534412384033,0.5326602458953857
-0.0159611701965332,1.3353408575057983,-0.1755839884281158,-0.3814873099327087,-0.0180195644497871,-0.1441651880741119,0.0,0.0,-0.4582523107528686,0.7823779582977295
-0.0178334228694438,1.326318621635437,-0.178542360663414,-0.4011150598526001,-0.0265946257859468,-0.1715170294046402,0.0,0.0,-0.26250159740448,0.7220911979675293
-0.0197440143674612,1.3168511390686035,-0.1809344589710235,-0.4209844172000885,-0.0366198979318141,-0.200524017214775,0.0,0.0,-0.4779508709907532,0.6115337610244751
-0.0217029564082622,1.3069366216659546,-0.1845867335796356,-0.4409572184085846,-0.0478102713823318,-0.2238279283046722,0.0,0.0,-0.0504599213600158,0.596088171005249
-0.0237051006406545,1.2965785264968872,-0.1876586377620697,-0.460804283618927,-0.0602445118129253,-0.2487072944641113,0.0,0.0,-0.3688834905624389,0.5492138862609863
-0.0257579796016216,1.2857688665390017,-0.1917060315608978,-0.4810308814048767,-0.0736975893378257,-0.2690860629081726,0.0,0.0,-0.4848260879516601,0.0886828899383544
-0.0279075615108013,1.2745171785354614,-0.201595589518547,-0.5007896423339844,-0.0869504213333129,-0.2650807499885559,0.0,0.0,-0.3791773319244385,0.4538519382476806
-0.0301519390195608,1.262823224067688,-0.2112922221422195,-0.5205481648445129,-0.1000009328126907,-0.2610339820384979,0.0,0.0,-0.2085171937942505,0.6615502834320068
-0.0324246399104595,1.2506853342056274,-0.2127219140529632,-0.540501594543457,-0.114461176097393,-0.2892314791679382,0.0,0.0,-0.3404770493507385,0.2925758361816406
-0.0347876548767089,1.2381054162979126,-0.2219839841127395,-0.5602635741233826,-0.1287139803171157,-0.2850824296474457,0.0,0.0,0.340113878250122,0.7421269416809082
-0.0370087623596191,1.2260311841964722,-0.2066759765148162,-0.5380401611328125,-0.1441054344177246,-0.3078572750091553,0.0,0.0,0.3170907497406006,-0.0092309713363647
-0.0393138900399208,1.2141987085342407,-0.2150253355503082,-0.5274578332901001,-0.1595875173807144,-0.3096694350242615,0.0,0.0,-0.3512999415397644,-0.4727425575256347
-0.0417014136910438,1.201924443244934,-0.223518818616867,-0.5472245812416077,-0.1748592853546142,-0.3054631352424621,0.0,0.0,0.2449605464935302,-0.7799352407455444
-0.0441617965698242,1.1897097826004028,-0.2326132506132125,-0.5445095300674438,-0.1883506774902343,-0.2698518335819244,0.0,0.0,-0.3678632974624634,-0.643064558506012
-0.0467380508780479,1.177062749862671,-0.2454424351453781,-0.5636881589889526,-0.2006210386753082,-0.2454297095537185,0.0,0.0,-0.6705772280693054,-0.2452329993247985
-0.0493876449763774,1.1639727354049685,-0.2530179619789123,-0.5834444761276245,-0.2126816064119339,-0.2412325888872146,0.0,0.0,0.6925420761108398,-0.6101465225219727
-0.0521680824458599,1.151472806930542,-0.2671816349029541,-0.5571585297584534,-0.2236889153718948,-0.2201661169528961,0.0,0.0,0.0318988561630249,0.69185471534729
-0.0549686439335346,1.139171838760376,-0.2679415643215179,-0.5485889911651611,-0.235963374376297,-0.2454887628555297,0.0,0.0,0.3173198699951172,-0.8293686509132385
-0.0577560439705848,1.127299427986145,-0.2685146927833557,-0.5293408632278442,-0.2463517040014267,-0.2077664881944656,0.0,0.0,-0.6023849248886108,-0.5298886299133301
-0.0606508255004882,1.1150071620941162,-0.2807570099830627,-0.5478097796440125,-0.2552291750907898,-0.1775494366884231,0.0,0.0,0.2107514142990112,-0.4726701974868774
-0.0635496154427528,1.1031311750411987,-0.2809455096721649,-0.5294032692909241,-0.2643473446369171,-0.1823631674051284,0.0,0.0,-0.2229687571525573,-0.7185240387916565
-0.0665559768676757,1.0908315181732178,-0.2933917641639709,-0.5479781031608582,-0.2717629969120025,-0.1483131349086761,0.0,0.0,-0.3605583906173706,-0.3451906442642212
-0.0696084946393966,1.0780876874923706,-0.298212468624115,-0.5677211284637451,-0.2789812386035919,-0.144364908337593,0.0,0.0,-0.0334377288818359,-0.3301973342895508
-0.0727025046944618,1.064899444580078,-0.3025714755058288,-0.5874637365341187,-0.2860044538974762,-0.1404639035463333,0.0,0.0,0.3786358833312988,-0.4269020557403564
-0.0757107734680175,1.0522587299346924,-0.2938829660415649,-0.5631882548332214,-0.2931538224220276,-0.1429876238107681,0.0,0.0,0.9531804323196412,-0.6650522351264954
-0.0787566155195236,1.0398379564285278,-0.298947274684906,-0.5531833171844482,-0.2989732027053833,-0.1163877099752426,0.0,0.0,0.8017333745956421,0.0096838474273681
-0.081611156463623,1.0279452800750732,-0.2800878584384918,-0.5296785235404968,-0.3045234084129333,-0.1110042706131935,0.0,0.0,0.6981719732284546,0.0239405632019042
-0.0842370018362999,1.016711950302124,-0.2574800848960876,-0.5003326535224915,-0.3098028600215912,-0.1055888757109642,0.0,0.0,-0.0476987957954406,-0.232886254787445
-0.0868799239397049,1.0050342082977295,-0.2593778371810913,-0.5200732350349426,-0.3149007856845855,-0.1019590273499488,0.0,0.0,0.5785887241363525,0.1576648950576782
-0.0892750769853591,0.9939321279525756,-0.2349412739276886,-0.4944265782833099,-0.3196519613265991,-0.0950234457850456,0.0,0.0,0.6548095941543579,0.0454462766647338
-0.0914493575692176,0.9836058020591736,-0.2128627598285675,-0.4599660336971283,-0.3244099020957947,-0.0951588600873947,0.0,0.0,0.8432493209838867,-0.7541490197181702
-0.0934330001473426,0.9738118052482604,-0.1955127418041229,-0.4359330236911773,-0.3273806869983673,-0.0594159439206123,0.0,0.0,0.2893285751342773,-0.1643281579017639
-0.0952971428632736,0.9644761681556702,-0.1833545118570327,-0.4156121909618377,-0.3305673003196716,-0.0637324377894401,0.0,0.0,0.6311843395233154,-0.8332245349884033
-0.0969198197126388,0.9553932547569276,-0.1612194776535034,-0.4039283096790313,-0.3316717445850372,-0.0220888294279575,0.0,0.0,0.7238584756851196,-0.2749192118644714
-0.0983273535966873,0.9462800621986388,-0.1402957886457443,-0.4051384031772613,-0.3321435749530792,-0.0094363261014223,0.0,0.0,-0.0247999429702758,-0.8104897737503052
-0.0997677817940712,0.9367464184761048,-0.145073726773262,-0.4234848320484161,-0.3310726583003998,0.0214180517941713,0.0,0.0,0.265540599822998,-0.3687959313392639
-0.1011419296264648,0.9271029233932496,-0.1384571492671966,-0.4283585846424103,-0.32998788356781,0.0216953326016664,0.0,0.0,0.4576485157012939,-0.8894414901733398
-0.1024184226989746,0.9174362421035768,-0.1306149065494537,-0.4289564192295074,-0.326891541481018,0.061926644295454,0.0,0.0,0.4124341011047363,-0.8097426891326904
-0.1035464257001876,0.9078659415245056,-0.1175809875130653,-0.4242779016494751,-0.321920096874237,0.0994288995862007,0.0,0.0,0.4849809408187866,-0.4965760707855224
-0.1044974327087402,0.8989652991294861,-0.0995692536234855,-0.3945935070514679,-0.3172664642333984,0.0930724591016769,0.0,0.0,0.3512417078018188,-0.314799427986145
-0.1053103432059288,0.8905896544456482,-0.0854320004582405,-0.3713549077510834,-0.3129679560661316,0.0859698876738548,0.0,0.0,-0.0031173229217529,-0.5575152039527893
-0.1061228737235069,0.8817889094352722,-0.0866651684045791,-0.3899868726730346,-0.3073505759239197,0.1123473197221756,0.0,0.0,-0.2251157164573669,-0.6386238932609558
-0.1069239601492881,0.8725609183311462,-0.0866345390677452,-0.4087611734867096,-0.3006008863449096,0.1349937915802002,0.0,0.0,-0.5663716793060303,-0.0438044071197509
-0.1076734513044357,0.8628889918327332,-0.0816241428256034,-0.4285043478012085,-0.2937119901180267,0.1377779245376587,0.0,0.0,-0.9081264734268188,0.2488738298416137
-0.108367919921875,0.8527728319168091,-0.0762608796358108,-0.4482477903366089,-0.2866862714290619,0.1405142396688461,0.0,0.0,-0.443649411201477,0.4574854373931885
-0.1090038269758224,0.8422126173973083,-0.0705616995692253,-0.4679915308952331,-0.2795260548591614,0.1432043462991714,0.0,0.0,-0.9349491000175476,0.4890141487121582
-0.1095782294869422,0.8312084078788757,-0.0645434707403183,-0.4877355992794037,-0.2722335755825043,0.1458497792482376,0.0,0.0,-0.9306135177612304,0.0137609243392944
-0.1100879684090614,0.8197602033615112,-0.0582228302955627,-0.5074799060821533,-0.2648109793663025,0.1484521925449371,0.0,0.0,-0.665533721446991,0.0461786985397338
-0.1105301827192306,0.8078680634498596,-0.0516161248087883,-0.5272244811058044,-0.2572603523731231,0.1510131061077118,0.0,0.0,-0.6337375044822693,0.5161828994750977
-0.1108534783124923,0.7955147624015808,-0.0386084094643592,-0.5479481816291809,-0.25086510181427,0.1279048174619674,0.0,0.0,-0.9176201820373536,0.5008847713470459
-0.1110604256391525,0.7827056646347046,-0.0259734690189361,-0.5683953166007996,-0.2454791218042373,0.1077193766832351,0.0,0.0,-0.8565539121627808,-0.2995015382766723
-0.1111923232674598,0.7694525122642517,-0.0186015330255031,-0.5881380438804626,-0.2399708181619644,0.1101660281419754,0.0,0.0,-0.8741135597229004,-0.1251555681228637
-0.1112469658255577,0.7557551264762878,-0.0110045401379466,-0.6078811287879944,-0.234341949224472,0.1125774383544921,0.0,0.0,-0.928883731365204,-0.4897509217262268
-0.1112221702933311,0.741613507270813,-0.0031964119989424,-0.6276243329048157,-0.2285942137241363,0.1149548664689064,0.0,0.0,-0.944337785243988,-0.4003247022628784
-0.1111162155866622,0.7270278334617615,0.0048095034435391,-0.6473677754402161,-0.2227292358875274,0.1172994375228881,0.0,0.0,-0.8004021644592285,0.1019986867904663
-0.1109271049499511,0.711997926235199,0.0130004379898309,-0.6671114563941956,-0.2167486250400543,0.1196123138070106,0.0,0.0,-0.7852157354354858,-0.513330340385437
-0.1106927841901779,0.6965333819389343,0.016395466402173,-0.6862987279891968,-0.2096369713544845,0.1422328352928161,0.0,0.0,-0.737926185131073,0.3472776412963867
-0.1103718727827072,0.6806249022483826,0.0249201394617557,-0.7060440182685852,-0.2024127542972564,0.144484281539917,0.0,0.0,-0.6337899565696716,-0.0074629187583923
-0.1099631339311599,0.6642727255821228,0.0335950329899787,-0.7257893681526184,-0.1950774639844894,0.1467061340808868,0.0,0.0,-0.4745504856109619,0.1248676776885986
-0.1094649285078048,0.6474765539169312,0.0424096807837486,-0.7455350160598755,-0.187632530927658,0.1488990038633346,0.0,0.0,-0.3732386231422424,0.3057501316070556
-0.1088761314749717,0.6302367448806763,0.0513541512191295,-0.7652808427810669,-0.1800793558359146,0.1510633826255798,0.0,0.0,0.2671630382537842,0.0242785215377807
-0.1082015037536621,0.6131083369255066,0.0601543001830577,-0.7603932023048401,-0.1727532595396042,0.1465218812227249,0.0,0.0,0.3417507410049438,-0.5952669978141785
-0.1074661239981651,0.5963845252990723,0.0650994107127189,-0.7423201203346252,-0.1642903685569763,0.1692576110363006,0.0,0.0,0.0273226499557495,0.1904867887496948
-0.1065545082092285,0.579785168170929,0.0825076550245285,-0.7368146777153015,-0.1556349992752075,0.1731073260307312,0.0,0.0,-0.1811822652816772,0.2267805337905883
-0.1055480986833572,0.5627424120903015,0.0918815582990646,-0.7565625309944153,-0.1468769907951355,0.1751598864793777,0.0,0.0,0.2055907249450683,-0.4216141104698181
-0.1043312102556228,0.545869767665863,0.1125667840242385,-0.7490190267562866,-0.1377697587013244,0.1821441948413849,0.0,0.0,0.1729748249053955,-0.3655396699905395
-0.1030032187700271,0.5289713144302368,0.1236621737480163,-0.7502233386039734,-0.1286734938621521,0.181925356388092,0.0,0.0,-0.1041326522827148,-0.7360830903053284
-0.1016299277544021,0.511631965637207,0.1267798393964767,-0.7697607278823853,-0.1181783601641655,0.2099026441574096,0.0,0.0,0.4245914220809936,-0.2318184375762939
-0.1001512557268142,0.4942905008792877,0.1373333483934402,-0.7699319124221802,-0.1077123805880546,0.2093192785978317,0.0,0.0,0.2633506059646606,-0.0006390810012817
-0.0985152274370193,0.477411687374115,0.1529907286167144,-0.7494381070137024,-0.0971806570887565,0.2106343954801559,0.0,0.0,0.3896918296813965,0.0301963090896606
-0.0966465920209884,0.4611046314239502,0.1758334338665008,-0.7240749597549438,-0.0862437039613723,0.2187389880418777,0.0,0.0,0.3302241563796997,-0.6878991723060608
-0.0947756767272949,0.4453654289245605,0.1747347265481948,-0.6988524794578552,-0.0740043744444847,0.2447866201400756,0.0,0.0,-0.38444983959198,0.2186645269393921
-0.0928048118948936,0.4291839301586151,0.1846223175525665,-0.7186073660850525,-0.0616744756698608,0.2465980798006057,0.0,0.0,0.6108537912368774,0.5955626964569092
-0.0905965790152549,0.4137109518051147,0.2093630284070968,-0.687254786491394,-0.0503375828266143,0.2267379760742187,0.0,0.0,0.0525060892105102,-0.1292980313301086
-0.0883337035775184,0.398349404335022,0.2150232791900634,-0.682390570640564,-0.0392121747136116,0.2225082665681839,0.0,0.0,-0.2064109444618225,0.1060785055160522
-0.0859701186418533,0.3825453221797943,0.2250107079744339,-0.702143669128418,-0.0280015002936124,0.2242134809494018,0.0,0.0,0.6603655815124512,-0.6749581098556519
-0.0835521668195724,0.3673588633537292,0.2290204316377639,-0.6747633218765259,-0.0153937507420778,0.2521551251411438,0.0,0.0,0.2795147895812988,0.2260819673538208
-0.0809586495161056,0.3524045944213867,0.246181458234787,-0.6645501852035522,-0.0023924356792122,0.2600263357162475,0.0,0.0,0.5028494596481323,0.3323737382888794
-0.078241541981697,0.3374753296375274,0.2583566308021545,-0.6635524034500122,0.0107876388356089,0.2636015117168426,0.0,0.0,0.7491147518157959,0.2827677726745605
-0.0753295868635177,0.3227452933788299,0.2773135304450989,-0.654825747013092,0.0244987215846776,0.2742215991020202,0.0,0.0,0.8426578044891357,-0.2683780789375305
-0.0721677765250206,0.3085348010063171,0.3014522492885589,-0.631881833076477,0.0390431135892868,0.2908880114555359,0.0,0.0,0.7497925758361816,-0.2038734555244445
-0.0687734633684158,0.2945178747177124,0.3239478766918182,-0.6234509348869324,0.0543421544134616,0.305980771780014,0.0,0.0,0.7242851257324219,0.2380191087722778
-0.0653264969587326,0.2812337875366211,0.3291896879673004,-0.5910397171974182,0.0696828514337539,0.3068137466907501,0.0,0.0,0.761971116065979,-0.1878199577331543
-0.0618018135428428,0.2687225937843323,0.33675217628479,-0.5568554997444153,0.0852423086762428,0.3111891448497772,0.0,0.0,0.5926132202148438,-0.5234909653663635
-0.0581441894173622,0.2567449808120727,0.3486062586307525,-0.5334031581878662,0.1022468730807304,0.3400913178920746,0.0,0.0,0.8697986602783203,-0.2966718673706054
-0.0543102249503135,0.2448959946632385,0.3656900525093078,-0.527929425239563,0.1198393329977989,0.3518491089344024,0.0,0.0,0.6498761177062988,-0.4239310026168823
-0.0504887588322162,0.2333548367023468,0.3646593987941742,-0.5144376158714294,0.1372456550598144,0.3481262028217315,0.0,0.0,0.9001070261001587,-0.2183693051338195
-0.0466066375374794,0.2228681147098541,0.3702684044837951,-0.4678298830986023,0.1551552414894104,0.3581916987895965,0.0,0.0,0.6480352878570557,-0.4552491903305053
-0.0427354797720909,0.2127773612737655,0.3692718148231506,-0.4504347443580627,0.1730065941810608,0.3570269346237182,0.0,0.0,0.5706746578216553,-0.7235322594642639
-0.0390805229544639,0.2033226788043975,0.3464660048484802,-0.4225378632545471,0.1921017318964004,0.3819032311439514,0.0,0.0,0.0823687314987182,-0.2830919623374939
-0.0353581421077251,0.1941182017326355,0.3529754281044006,-0.4117013812065124,0.2115019112825393,0.3880036473274231,0.0,0.0,0.1838784217834472,-0.1776993870735168
-0.0316879265010356,0.1852508187294006,0.347979187965393,-0.3969444334506988,0.230761632323265,0.3851944804191589,0.0,0.0,0.4815318584442138,-0.5045279264450073
-0.0281905177980661,0.1768874675035476,0.3299568295478821,-0.3749304115772247,0.2508646547794342,0.4020608961582184,0.0,0.0,0.630864143371582,0.171426773071289
-0.0247418396174907,0.1687902063131332,0.3252634406089782,-0.3633489310741424,0.2708819508552551,0.4003459513187408,0.0,0.0,0.1476900577545166,-0.5247063636779785
-0.0214344020932912,0.1608061641454696,0.3103615939617157,-0.3587539494037628,0.2918160557746887,0.4186822474002838,0.0,0.0,0.3571066856384277,0.0311858654022216
-0.0182734485715627,0.1529482156038284,0.2963714003562927,-0.3533229827880859,0.3121964037418365,0.407607227563858,0.0,0.0,0.1877754926681518,0.1684485673904419
-0.0151038169860839,0.1454240828752517,0.29702028632164,-0.3388353884220123,0.3329418003559112,0.4149083197116852,0.0,0.0,0.2951202392578125,0.2090885639190673
-0.0118891717866063,0.1378948837518692,0.3014440238475799,-0.3393899798393249,0.3539171516895294,0.4195072650909424,0.0,0.0,0.5371520519256592,0.2105588912963867
-0.0087007526308298,0.1309959441423416,0.2983866035938263,-0.3118063509464264,0.3755187690258026,0.4320321679115295,0.0,0.0,0.594735860824585,0.601008415222168
-0.0056742667220532,0.1247210130095481,0.2835849523544311,-0.2840300500392914,0.3958177864551544,0.4059808850288391,0.0,0.0,0.2973958253860473,-0.0920893549919128
-0.0027116774581372,0.1190004646778106,0.2768892645835876,-0.2597826421260834,0.4166259467601776,0.4161639809608459,0.0,0.0,0.0683691501617431,0.2116250991821289
0.0002348899870412,0.1133850663900375,0.2752599120140075,-0.2554394900798797,0.4376474916934967,0.4204308092594147,0.0,0.0,0.1137781143188476,0.2422701120376587
0.0030330657027661,0.1080753654241561,0.2606628239154815,-0.2421094924211502,0.4586259424686432,0.4195688664913177,0.0,0.0,0.4204294681549072,0.1717174053192138
0.005666637327522,0.1032720655202865,0.2441991567611694,-0.2199405133724212,0.4798192083835602,0.4238653182983398,0.0,0.0,-0.1380326747894287,0.4892265796661377
0.0083873746916651,0.0980296730995178,0.2531537711620331,-0.2397158443927765,0.5009802579879761,0.4232213497161865,0.0,0.0,0.0856678485870361,0.8678982257843018
0.0109755517914891,0.092864453792572,0.2417563498020172,-0.2359240055084228,0.5202699899673462,0.3857948184013366,0.0,0.0,-0.1134575605392456,0.8429540395736694
0.0136945722624659,0.0872952565550804,0.2562880218029022,-0.2535915672779083,0.5381143689155579,0.3568874895572662,0.0,0.0,0.8524740934371948,0.755089282989502
0.0162020679563283,0.0821237415075302,0.2367666661739349,-0.2354994863271713,0.5542500019073486,0.3227127492427826,0.0,0.0,0.5047667026519775,0.9087891578674316
0.0186203960329294,0.0772055014967918,0.2296798974275589,-0.2236797213554382,0.5684195756912231,0.283392071723938,0.0,0.0,0.5192457437515259,0.9564290046691896
0.0211235992610454,0.0724253058433532,0.2399546653032302,-0.2169200032949447,0.5806066989898682,0.243742898106575,0.0,0.0,0.2930034399032593,0.9408737421035768
0.0235474593937397,0.0680091008543968,0.2338433712720871,-0.2000475227832794,0.5907268524169922,0.2024035900831222,0.0,0.0,0.4558483362197876,0.874927282333374
0.0257291793823242,0.0641191080212593,0.2113032788038253,-0.175977423787117,0.598902702331543,0.1635179370641708,0.0,0.0,0.6458956003189087,0.8084815740585327
0.0279272086918354,0.0602750405669212,0.2143914997577667,-0.1733232587575912,0.6053833961486816,0.1296138018369674,0.0,0.0,0.2784072160720825,0.9734992980957032
