x_pos,y_pos,x_vel,y_vel,angle,ang_vel,leg_1,leg_2,main_booster,lat_booster
-0.0014929771423339,1.4034466743469238,-0.151319533586502,-0.3321551978588104,0.0018160439794883,0.0358270928263664,0.0,0.0,0.7532049588401746,-0.7484888090363104
-0.0029562949202954,1.396549105644226,-0.1498138010501861,-0.3065630495548248,0.0052666384726762,0.0690192356705665,0.0,0.0,-0.1107518492280403,-0.9142724019148932
-0.0044477460905909,1.3894662857055664,-0.1541250646114349,-0.3148179352283478,0.0101849641650915,0.0983755066990852,0.0,0.0,0.7760220290497133,0.6688421897206915
-0.0060045244172215,1.3830078840255735,-0.1590168923139572,-0.2870635390281677,0.0134857958182692,0.0660227611660957,0.0,0.0,0.4472522090170718,-0.6780388162721354
-0.0074735642410814,1.3772321939468384,-0.151908665895462,-0.2567529380321502,0.0184417515993118,0.0991280227899551,0.0,0.0,-0.2884222992742165,-0.8157754452315711
-0.0089693069458007,1.3712763786315918,-0.1559066027402877,-0.2647921442985534,0.0247002840042114,0.1251825094223022,0.0,0.0,-0.7895134749464214,0.7673412596649861
-0.0103858951479196,1.3651454448699951,-0.1465606540441513,-0.2725762724876404,0.0295508969575166,0.0970211625099182,0.0,0.0,0.0558210991263008,0.9158228508478814
-0.011609936133027,1.3594675064086914,-0.1255246251821518,-0.2524115741252899,0.0326477438211441,0.061942558735609,0.0,0.0,-0.9803618136793562,0.972943932784519
-0.0127410888671875,1.3536262512207031,-0.1143927127122879,-0.2596479654312134,0.0339068919420242,0.0251851491630077,0.0,0.0,-0.5389511757567709,0.7911787941474814
-0.0137938503175973,1.3476150035858154,-0.1050166487693786,-0.2671550810337066,0.033651165664196,-0.0051149637438356,0.0,0.0,0.5043070895196604,-0.643735236204894
-0.0148150445893406,1.3422397375106812,-0.1033928394317627,-0.2389297038316726,0.0349112264811992,0.0252034068107604,0.0,0.0,0.2481615707957833,-0.9804778511781398
-0.0158517844974994,1.3372821807861328,-0.1069872006773948,-0.2204227447509765,0.0381874330341815,0.0655301883816719,0.0,0.0,-0.8302949488528766,0.7865822352686119
-0.0168018341064453,1.3321551084518433,-0.0964454784989357,-0.2279110997915268,0.0396117717027664,0.0284893475472927,0.0,0.0,0.7758991094037739,-0.7836617146848442
-0.0177374836057424,1.327416181564331,-0.0967861264944076,-0.2107028514146804,0.0428102947771549,0.0639762133359909,0.0,0.0,-0.452477715885009,-0.9975275722184164
-0.0187252052128314,1.3225061893463137,-0.1035831421613693,-0.2183711677789688,0.0475655198097229,0.0951134115457534,0.0,0.0,0.5984418449055735,0.8987635726003117
-0.019529914483428,1.317852258682251,-0.0836889296770095,-0.2069394737482071,0.0507540963590145,0.0637772604823112,0.0,0.0,0.9413940410060548,-0.7985379538701218
-0.020267391577363,1.3145447969436646,-0.0790142640471458,-0.1471924036741256,0.0559654273092746,0.1042361408472061,0.0,0.0,0.7328391462249804,0.6917306083771853
-0.0208063125610351,1.3116602897644043,-0.0581814050674438,-0.1283666789531707,0.0602164082229137,0.0850270316004753,0.0,0.0,-0.2542697290683324,0.8667578330672999
-0.0212637893855571,1.308613419532776,-0.0480575077235698,-0.135509580373764,0.0625030547380447,0.0457369610667228,0.0,0.0,-0.8887853091278284,-0.8948114691743487
-0.0218002311885356,1.3053810596466064,-0.0580220408737659,-0.1438515037298202,0.066843144595623,0.0868096202611923,0.0,0.0,0.0186010473908144,0.7190549768251905
-0.0222209934145212,1.3026847839355469,-0.0451111271977424,-0.1199721917510032,0.0698487386107444,0.060117095708847,0.0,0.0,-0.5325855752224176,-0.7491221329091187
-0.0227010734379291,1.2998005151748655,-0.0525502040982246,-0.128411203622818,0.0743500739336013,0.0900348275899887,0.0,0.0,-0.1144604932945168,-0.7571716746476481
-0.0232309345155954,1.2967324256896973,-0.0587420277297496,-0.1366545557975769,0.080063946545124,0.1142871379852294,0.0,0.0,0.6533291387150773,-0.891878242409966
-0.02378168143332,0.0,-0.0627849847078323,-0.1243055090308189,0.0877040773630142,0.1528164446353912,0.0,0.0,-0.1715407857364321,-0.7155820305278353
-0.0244076736271381,1.290973663330078,-0.0720994919538497,-0.132645696401596,0.0971321612596511,0.1885785311460495,0.0,0.0,0.0226544171901881,0.7353293033813025
-0.0251270290464162,1.288451910018921,-0.0799304619431495,-0.1126154288649559,0.1050570234656333,0.1584971994161605,0.0,0.0,-0.8810629181800076,-0.8752734936979766
-0.0259225852787494,1.2857481241226196,-0.0893011391162872,-0.1208863630890846,0.1147398129105568,0.1936555355787277,0.0,0.0,-0.0982246409219398,0.6315451132298373
-0.0266879089176654,1.282880783081055,-0.0853107348084449,-0.1281331926584243,0.1234571114182472,0.1743464767932891,0.0,0.0,0.9421197773642588,-0.6296415494058965
-0.0277873985469341,1.2811580896377563,-0.1195495575666427,-0.0773966684937477,0.133014440536499,0.1911466270685196,0.0,0.0,-0.3695567081137492,-0.8581966579355775
-0.0289661400020122,1.2792418003082275,-0.1292711645364761,-0.086229957640171,0.1443686038255691,0.2270832508802414,0.0,0.0,-0.0369609533601842,-0.6559709645745944
-0.0302062984555959,1.2771457433700562,-0.1366704851388931,-0.0944240316748619,0.1570092439651489,0.2528124749660492,0.0,0.0,-0.208905374481088,0.6283366387326597
-0.031414795666933,1.2748806476593018,-0.132415622472763,-0.1019351854920387,0.1685748398303985,0.2313117682933807,0.0,0.0,-0.244441256529841,-0.6631824610209809
-0.0326950065791606,1.2724307775497437,-0.1410795748233795,-0.1104144006967544,0.1816639751195907,0.2617827355861664,0.0,0.0,0.4494703422900532,-0.7929587652213098
-0.0341674797236919,1.2702314853668213,-0.1617824733257293,-0.0995896533131599,0.1962728947401046,0.2921785712242126,0.0,0.0,0.2210407782321,0.7743232665535891
-0.0356704704463481,1.2685625553131104,-0.1632814258337021,-0.0759534463286399,0.2093525975942611,0.2615938186645508,0.0,0.0,-0.2275141213975049,0.7931251855511561
-0.0371249206364154,1.2667436599731443,-0.1567746996879577,-0.0824878960847854,0.2207967489957809,0.2288832366466522,0.0,0.0,-0.5129541872717711,-0.7213695995202977
-0.0386508926749229,1.264725685119629,-0.1653991341590881,-0.0916539579629898,0.2337706387042999,0.2594776451587677,0.0,0.0,-0.7426538051602625,0.7365331656653431
-0.0401318557560443,1.2625586986541748,-0.1593238115310669,-0.0981244966387748,0.2451700121164322,0.2279876172542572,0.0,0.0,0.7218025016241489,0.8508259732966895
-0.041821002960205,1.2615106105804443,-0.178337350487709,-0.0481930114328861,0.254773736000061,0.1920740902423858,0.0,0.0,-0.7310331931482101,-0.9397776111685744
-0.0435931198298931,1.2602603435516355,-0.1883977949619293,-0.0575472563505172,0.266194224357605,0.2284104377031326,0.0,0.0,-0.6056945565512941,0.8197269520060639
-0.0453298576176166,1.258861422538757,-0.1834836304187774,-0.0639897435903549,0.2762483358383178,0.2010817974805832,0.0,0.0,-0.8260932564735413,0.9948651790618896
-0.0469897277653217,1.2573221921920776,-0.1734069436788559,-0.0698319151997566,0.2838781177997589,0.1525962948799133,0.0,0.0,-0.9794836044311525,0.9755558967590332
-0.0485758781433105,1.255632996559143,-0.1638082861900329,-0.0760986134409904,0.2892218828201294,0.106875404715538,0.0,0.0,-0.947212278842926,0.9852159023284912
-0.050088882446289,1.253803014755249,-0.154224544763565,-0.081922098994255,0.2922382950782776,0.0603280887007713,0.0,0.0,-0.986045241355896,0.98883318901062
-0.0515435226261615,1.2518153190612793,-0.1465783566236496,-0.088565818965435,0.2933932840824127,0.0231000427156686,0.0,0.0,-0.998430609703064,0.9888094663619996
-0.0529289245605468,1.2496764659881592,-0.1375725418329239,-0.0948596820235252,0.2923949062824249,-0.0199677664786577,0.0,0.0,-0.9969674348831176,0.9717298746109008
-0.0542451851069927,1.2473915815353394,-0.1285488754510879,-0.1009461581707,0.2892255187034607,-0.0633884593844413,0.0,0.0,-0.987814486026764,0.8743546009063721
-0.0555216781795024,1.244961857795715,-0.1231540590524673,-0.1071063354611396,0.2845995426177978,-0.0925192534923553,0.0,0.0,-0.9953264594078064,0.9158117771148682
-0.0567571632564067,1.2423858642578125,-0.1176280379295349,-0.1133381575345993,0.2785125076770782,-0.1217409521341323,0.0,0.0,-0.993809700012207,0.9948461055755616
-0.0579301826655864,1.239661455154419,-0.1094632148742675,-0.1196190416812896,0.2704766094684601,-0.1607177704572677,0.0,0.0,-0.9993400573730468,0.9609053134918212
-0.0590227134525775,1.236797571182251,-0.0990394204854965,-0.1254328936338424,0.2600247263908386,-0.2090383023023605,0.0,0.0,-0.9818538427352904,0.8570812940597534
-0.0600664131343364,1.2337865829467771,-0.0925719887018203,-0.131779134273529,0.2479927539825439,-0.2406395375728607,0.0,0.0,-0.9948180913925172,0.8820918798446655
-0.061037827283144,1.2306252717971802,-0.0832301005721092,-0.1382114440202713,0.2338520288467407,-0.282814621925354,0.0,0.0,-0.9800487756729126,0.2157250642776489
-0.062016487121582,1.227288842201233,-0.0838931202888488,-0.1461307257413864,0.2197030186653137,-0.2829798758029938,0.0,0.0,-0.999087691307068,0.0252233743667602
-0.0630010589957237,1.2237772941589355,-0.0844380781054496,-0.1540500521659851,0.2055448740720749,-0.28316330909729,0.0,0.0,-0.983513355255127,0.33273446559906
-0.0639903098344802,1.2200902700424194,-0.0848565697669982,-0.1619694530963897,0.1913766413927078,-0.2833646237850189,0.0,0.0,-0.9849780797958374,0.203734278678894
-0.0649829879403114,1.2162281274795532,-0.0851402729749679,-0.1698889434337616,0.1771974861621856,-0.2835834622383117,0.0,0.0,-0.9276130199432372,0.0714449882507324
-0.0659774765372276,1.212190866470337,-0.0852809697389602,-0.1778084933757782,0.1630065143108368,-0.2838195264339447,0.0,0.0,-0.97958642244339,0.1826589107513427
-0.0669722557067871,1.2079782485961914,-0.0852705910801887,-0.1857281327247619,0.1488028764724731,-0.2840724885463714,0.0,0.0,-0.9741063117980956,-0.4194461107254028
-0.0679658874869346,1.2035903930664062,-0.0851011574268341,-0.1936478316783905,0.1345857828855514,-0.2843420207500458,0.0,0.0,-0.923205554485321,-0.5957258939743042
-0.0689988136291503,1.1990134716033936,-0.0900829806923866,-0.202279657125473,0.1214459463953971,-0.2627967298030853,0.0,0.0,-0.8539576530456543,0.3595166206359863
-0.0700268745422363,1.194261074066162,-0.089572824537754,-0.2101970314979553,0.1082909852266311,-0.2630991637706756,0.0,0.0,-0.9659807085990906,0.0972822904586792
-0.0710484534502029,1.1893330812454224,-0.0888808295130729,-0.2181144505739212,0.0951201394200325,-0.2634170651435852,0.0,0.0,-0.9542749524116516,-0.0039812326431274
-0.0720614418387413,1.1842294931411743,-0.0879998803138732,-0.2260319739580154,0.0819326266646385,-0.2637500762939453,0.0,0.0,-0.945957899093628,-0.4769842028617859
-0.0730641335248947,1.1789504289627075,-0.0869231224060058,-0.2339495569467544,0.0687277391552925,-0.2640977501869201,0.0,0.0,-0.9444968104362488,0.4763162136077881
-0.0740542411804199,1.1734957695007324,-0.0856439992785453,-0.2418671697378158,0.0555047504603862,-0.2644597291946411,0.0,0.0,-0.9847886562347412,0.3104556798934936
-0.0750297531485557,1.167865753173828,-0.0841562822461128,-0.2497849017381668,0.0422629863023757,-0.2648354768753052,0.0,0.0,-0.9835111498832704,0.7354106903076172
-0.075922206044197,1.162055492401123,-0.0741390064358711,-0.2578589618206024,0.0273405481129884,-0.2984485924243927,0.0,0.0,-0.9932118058204652,-0.0450860857963562
-0.0767956748604774,1.1560707092285156,-0.0722166150808334,-0.2657807469367981,0.0123980715870857,-0.2988492250442505,0.0,0.0,-0.986221432685852,-0.0038230419158935
-0.0776478797197341,1.1499109268188477,-0.0700692683458328,-0.2737025916576385,-0.0025650290772318,-0.2992621958255768,0.0,0.0,-0.9899683594703674,0.1671631336212158
-0.0784767121076583,1.1435763835906982,-0.067692257463932,-0.2816245257854461,-0.0175493713468313,-0.2996869087219238,0.0,0.0,-0.9917369484901428,-0.0018545985221862
-0.0792795196175575,1.1370669603347778,-0.065081350505352,-0.2895465791225433,-0.0325554981827735,-0.3001228272914886,0.0,0.0,-0.9912808537483216,-0.057044506072998
-0.0800540894269943,1.130382776260376,-0.0622327923774719,-0.2974686622619629,-0.047583945095539,-0.3005692064762115,0.0,0.0,-0.9885178804397584,-0.4495134353637695
-0.080797865986824,1.1235237121582031,-0.0591432936489582,-0.3053908348083496,-0.0626351758837699,-0.3010253310203552,0.0,0.0,-0.997742474079132,-0.6702939867973328
-0.0815645232796669,1.1164898872375488,-0.0628464445471763,-0.3132520914077759,-0.0763019025325775,-0.273334801197052,0.0,0.0,-0.9636939764022828,0.3886624574661255
-0.0822954177856445,1.109280705451965,-0.0592668838798999,-0.3211711049079895,-0.0899923741817474,-0.2738094925880432,0.0,0.0,-0.9902724027633668,-0.3555314540863037
-0.0829880684614181,1.101896047592163,-0.0554394833743572,-0.3290900886058807,-0.1037069708108902,-0.2742916941642761,0.0,0.0,-0.991970717906952,-0.5717030763626099
-0.0836852043867111,1.0943483114242554,-0.0570525340735912,-0.3363835215568542,-0.1162882000207901,-0.2516246140003204,0.0,0.0,-0.9972950220108032,-0.7607598900794983
-0.0843904465436935,1.0866414308547974,-0.0591736361384391,-0.3434582054615021,-0.1275747120380401,-0.2257300168275833,0.0,0.0,-0.966424286365509,-0.5856755375862122
-0.0851039886474609,1.0787744522094729,-0.0613907277584075,-0.3505276143550873,-0.137496069073677,-0.1984269767999649,0.0,0.0,-0.9878168702125548,-0.313085675239563
-0.0857693701982498,1.0707309246063232,-0.0565636567771434,-0.3584392666816711,-0.1474427580833435,-0.1989334970712661,0.0,0.0,-0.9848752021789552,-0.2865952253341675
-0.0863841027021408,1.0625110864639282,-0.0514878630638122,-0.3663509786128998,-0.1574149578809738,-0.1994435787200927,0.0,0.0,-0.9212450981140136,0.0550625324249267
-0.0869457274675369,1.054114818572998,-0.0461648032069206,-0.3742627203464508,-0.1674127727746963,-0.199956327676773,0.0,0.0,-0.9961427450180054,-0.8822331428527832
-0.0875263214111328,1.0455645322799685,-0.0499809794127941,-0.3809501230716705,-0.175506055355072,-0.1618654727935791,0.0,0.0,-0.9290505051612854,-0.9147342443466188
-0.0881209373474121,1.0368609428405762,-0.0532375387847423,-0.3875763118267059,-0.1817522346973419,-0.1249232739210128,0.0,0.0,-0.8071107268333435,-0.4297626614570617
-0.0886552780866622,1.027980089187622,-0.0471847876906394,-0.3954831063747406,-0.1880242675542831,-0.125440701842308,0.0,0.0,-0.9992398619651794,-0.6925694346427917
-0.0891794189810752,1.018929958343506,-0.04747099801898,-0.4028646349906921,-0.1929914951324463,-0.0993445739150047,0.0,0.0,-0.947170078754425,-0.6286836266517639
-0.0896803885698318,1.0097099542617798,-0.0461906418204307,-0.4102959334850311,-0.1969198584556579,-0.0785670056939125,0.0,0.0,-0.8835111260414124,-0.756151556968689
-0.0901582688093185,1.0003252029418943,-0.0450066626071929,-0.4174695312976837,-0.1997263878583908,-0.056130476295948,0.0,0.0,-0.8843282461166382,-0.6234620809555054
-0.0906044021248817,0.9907695651054382,-0.042757011950016,-0.4249528646469116,-0.2015992850065231,-0.037457950413227,0.0,0.0,-0.9286109209060668,-0.8763824701309204
-0.091046430170536,0.9810633659362792,-0.0440840795636177,-0.4314059615135193,-0.2017154991626739,-0.0023243459872901,0.0,0.0,-0.4075722694396972,-0.6564712524414062
-0.0914620384573936,0.9711989760398864,-0.0426665470004081,-0.4382665455341339,-0.2006021738052368,0.0222662594169378,0.0,0.0,-0.9156402349472046,-0.1100503802299499
-0.0918017402291297,0.9611567854881288,-0.0350464358925819,-0.4461702704429626,-0.199514165520668,0.0217597223818302,0.0,0.0,-0.8074840903282166,-0.8884165287017822
-0.092121884226799,0.950945258140564,-0.0345458015799522,-0.4535106718540191,-0.1969718933105468,0.0508457645773887,0.0,0.0,-0.6367565393447876,-0.0231185555458068
-0.0923621207475662,0.940555989742279,-0.0265246331691741,-0.4614147841930389,-0.1944546103477478,0.0503457672894001,0.0,0.0,-0.9267368316650392,0.2787632942199707
-0.0925204306840896,0.9299890995025636,-0.0183117557317018,-0.4693188965320587,-0.1919621378183365,0.0498495176434516,0.0,0.0,-0.5998287796974182,-0.424126386642456
-0.0925949066877365,0.9192444086074828,-0.0099132936447858,-0.4772229790687561,-0.1894942820072174,0.0493574291467666,0.0,0.0,-0.9784367680549622,-0.8506825566291809
-0.0926626175642013,0.908352792263031,-0.0112505387514829,-0.4835076332092285,-0.1849852949380874,0.0901793763041496,0.0,0.0,-0.865587055683136,-0.1594646573066711
-0.0926428809762001,0.8972836136817932,-0.0025000169407576,-0.4914128482341766,-0.1805005073547363,0.0896959230303764,0.0,0.0,-0.9736238121986388,0.2566473484039306
-0.0925342589616775,0.8860368132591248,0.0064171939156949,-0.4993181228637695,-0.1760396659374237,0.0892170071601867,0.0,0.0,-0.8624736070632935,-0.1846705675125122
-0.0923350304365158,0.8746127486228943,0.0154947023838758,-0.5072233080863953,-0.1716025322675705,0.0887427628040313,0.0,0.0,-0.8469752669334412,0.0389569997787475
-0.0920436829328537,0.8630110025405884,0.0247261170297861,-0.5151284337043762,-0.1671888679265976,0.0882733613252639,0.0,0.0,-0.8581734299659729,-0.3664077520370483
-0.0916587859392166,0.8512317538261414,0.0341050550341606,-0.5230335593223572,-0.1627984195947647,0.0878088623285293,0.0,0.0,-0.9943002462387084,-0.3540148735046386
-0.0911788940429687,0.839275062084198,0.0436251685023307,-0.5309386849403381,-0.1584309339523315,0.0873494148254394,0.0,0.0,-0.865787148475647,-0.3974698781967163
-0.0906025916337966,0.827140748500824,0.0532801747322082,-0.5388438105583191,-0.1540861427783966,0.0868958085775375,0.0,0.0,-0.9182612299919128,-0.4073058366775512
-0.0899286270141601,0.8148290514945984,0.063063845038414,-0.5467488169670105,-0.1497638523578643,0.0864461734890937,0.0,0.0,-0.969676434993744,-0.3279512524604797
-0.0891558676958084,0.8023397326469421,0.0729700475931167,-0.5546538233757019,-0.1454637944698333,0.0860012471675872,0.0,0.0,-0.9853246212005616,-0.47160804271698
-0.0882830619812011,0.7896727919578552,0.0829927176237106,-0.5625587701797485,-0.1411857157945633,0.085561066865921,0.0,0.0,-0.9619007110595704,-0.5582846999168396
-0.0873417854309082,0.7768419981002808,0.0889980345964431,-0.5697816610336304,-0.1360746622085571,0.1022210568189621,0.0,0.0,-0.9706849455833436,-0.899746298789978
-0.0863598808646202,0.7638465166091919,0.0915056392550468,-0.5769780278205872,-0.1294150650501251,0.1331915855407714,0.0,0.0,-0.9677051901817322,-0.6361146569252014
-0.0853246673941612,0.750690221786499,0.0955574885010719,-0.5840543508529663,-0.1214882805943489,0.1585357338190078,0.0,0.0,-0.9473190307617188,0.7423515319824219
-0.0841205567121505,0.7373515963554382,0.1140946149826049,-0.5923302173614502,-0.1152112409472465,0.1255408972501754,0.0,0.0,-0.9872056245803832,-0.5150361657142639
-0.0828466415405273,0.7238391041755676,0.1201920285820961,-0.6000108122825623,-0.1080661639571189,0.1429015547037124,0.0,0.0,-0.9543131589889526,-0.3104239702224731
-0.0814669579267501,0.7101497054100037,0.1307921111583709,-0.6079184412956238,-0.1009421125054359,0.1424812376499176,0.0,0.0,-0.9374375343322754,-0.5621568560600281
-0.080034352838993,0.6962900161743164,0.1347218602895736,-0.6154364347457886,-0.0924797356128692,0.1692477315664291,0.0,0.0,-0.9138460159301758,0.464717149734497
-0.0784945487976074,0.6822534203529358,0.1454710513353347,-0.623345673084259,-0.0840382203459739,0.1688304543495178,0.0,0.0,-0.7228075861930847,-0.0885816216468811
-0.0768465995788574,0.668039858341217,0.1562873423099517,-0.6312549710273743,-0.0756174996495246,0.1684140712022781,0.0,0.0,-0.921740472316742,-0.0712590217590332
-0.0750900283455848,0.653649628162384,0.1671658605337143,-0.6391642689704895,-0.0672176033258438,0.1679980903863906,0.0,0.0,-0.9065789580345154,0.0637389421463012
-0.0732243508100509,0.6390824317932129,0.1781017482280731,-0.64707350730896,-0.0588384941220283,0.1675820052623748,0.0,0.0,-0.8905419707298279,-0.688412070274353
-0.0713007003068924,0.6243497729301453,0.182576298713684,-0.6544325351715088,-0.0491656921803951,0.193455696105957,0.0,0.0,-0.8355753421783447,0.1684889793395996
