x_pos,y_pos,x_vel,y_vel,angle,ang_vel,leg_1,leg_2,main_booster,lat_booster
-0.0015695572365075,1.4030364751815796,-0.1582847088575363,-0.3503864705562591,0.0011764246737584,0.0231628064066171,0.0,0.0,-0.784807285371325,0.9702766774204448
-0.0031019211746752,1.3945833444595337,-0.1516512334346771,-0.3756963014602661,-0.0003853787493426,-0.0312386937439441,0.0,0.0,0.7523534556592881,0.7223323301625815
-0.0044670104980468,1.386178970336914,-0.1332329958677292,,-0.0036331694573163,-0.0649618506431579,0.0,0.0,-0.467655856305369,-0.5142081768519071
-0.005923462100327,1.3771851062774658,-0.1429550796747207,-0.3997327983379364,-0.0062850015237927,-0.0530415959656238,0.0,0.0,0.9427441312440864,0.9113487148053974
-0.0071778297424316,1.3687543869018557,-0.1206506937742233,-0.3747263550758362,-0.0110207498073577,-0.0947241336107254,0.0,0.0,0.4741244044006307,-0.7383446233528488
-0.0083893779665231,1.3604602813720703,-0.1174824461340904,-0.3686608970165252,-0.0146615896373987,-0.0728232637047767,0.0,0.0,-0.7864426718281896,-0.5875180631042745
-0.0096878055483102,1.3515794277191162,-0.1267568171024322,-0.3947406411170959,-0.0177166946232318,-0.0611075572669506,0.0,0.0,0.5027258253193643,0.727650796351512
-0.0108057977631688,1.342990159988403,-0.1069294214248657,-0.3818148970603943,-0.0225407313555479,-0.0964895784854888,0.0,0.0,-0.5378338704486272,-0.5143376203081307
-0.0120010375976562,1.333820104598999,-0.1150701865553855,-0.407634288072586,-0.026942515745759,-0.0880436301231384,0.0,0.0,-0.409744614854389,-0.9861731896122284
-0.0133082391694188,1.3240718841552734,-0.1276327669620514,-0.4333208799362182,-0.0300048124045133,-0.0612514801323413,0.0,0.0,0.377755110220545,0.6937679678975995
-0.0144991874694824,1.3144735097885132,-0.1141358390450477,-0.4266960024833679,-0.0349145531654357,-0.0982036665081977,0.0,0.0,0.1571641194469066,-0.9144133141817664
-0.015722656622529,1.304841160774231,-0.1186154261231422,-0.4281982481479645,-0.0386036336421966,-0.0737884119153022,0.0,0.0,0.1008404997980094,0.5394632631691414
-0.0168191902339458,1.2953146696090698,-0.104409635066986,-0.4235472679138183,-0.0437978990375995,-0.1038946881890297,0.0,0.0,0.3125252966065208,0.7564412451806186
-0.0178103446960449,1.2856086492538452,-0.091816559433937,-0.4316079020500183,-0.0510185733437538,-0.1444266587495803,0.0,0.0,0.8919408611267077,0.5201612618072079
-0.0185673721134662,1.2767192125320437,-0.0672719627618789,-0.3953962624073028,-0.0593611076474189,-0.1668661385774612,0.0,0.0,0.5224000664376682,-0.6474426405023401
-0.0192736629396677,1.2676401138305664,-0.0631337687373161,-0.4038319587707519,-0.0667871162295341,-0.1485333889722824,0.0,0.0,0.8232264826865081,0.7538926530992328
-0.0197145454585552,1.2593735456466677,-0.0348422899842262,-0.3678414523601532,-0.0759447440505027,-0.1831692457199096,0.0,0.0,-0.2278115988614864,0.9552320296663273
-0.0200835224241018,1.250502109527588,-0.0246944781392812,-0.3949499428272247,-0.0880562514066696,-0.2422519475221634,0.0,0.0,-0.5205268808403922,-0.590099258840913
-0.0205100066959857,1.241055965423584,-0.0308386925607919,-0.4205636084079742,-0.0997821912169456,-0.2345400303602218,0.0,0.0,0.237963722705893,-0.63993926621871
-0.0210284236818552,1.2316745519638062,-0.0406175293028354,-0.4177384376525879,-0.11094631254673,-0.2233023345470428,0.0,0.0,0.963377757124296,-0.6541058502751869
-0.0213526729494333,1.223025679588318,-0.0223508682101964,-0.3851720988750458,-0.1209705546498298,-0.2005029618740081,0.0,0.0,-0.3895163671594863,-0.8161782809731979
-0.0217535980045795,1.2137974500656128,-0.031035890802741,-0.4108973145484924,-0.1299954503774643,-0.1805139482021331,0.0,0.0,0.8803499835163049,0.6634887957998401
-0.0218763351440429,1.2048633098602295,-0.0017067154403775,-0.3980282843112945,-0.1405345201492309,-0.2108008563518524,0.0,0.0,-0.6824144477420875,-0.6636462093162983
-0.0220554359257221,1.1953456401824951,-0.0079561294987797,-0.4239715933799743,-0.1504915952682495,-0.199159175157547,0.0,0.0,-0.9163235543894264,0.8127699515567244
-0.0221939086914062,1.1852339506149292,-0.0020802677609026,-0.4506398439407348,-0.1622731685638427,-0.2356524169445037,0.0,0.0,0.5851339998190057,-0.9398885892918368
-0.0224605556577444,1.175577163696289,-0.0160051397979259,-0.4303934276103973,-0.1729401797056198,-0.2133398056030273,0.0,0.0,-0.5644363924721947,0.7955257655355907
-0.0226690284907817,1.1653239727020264,-0.0080494526773691,-0.4572398364543915,-0.1857837438583374,-0.2568710148334503,0.0,0.0,0.8661294492531022,-0.6670573688631225
-0.0229156501591205,1.155925750732422,-0.012263860553503,-0.4192923009395599,-0.1982463896274566,-0.2492528259754181,0.0,0.0,-0.0471964969526235,-0.5257417971094274
-0.0232125278562307,1.1459622383117676,-0.0180454179644584,-0.4444250464439392,-0.2099848687648773,-0.2347695082426071,0.0,0.0,-0.8759243461486097,-0.5284531943540295
-0.0235517509281635,1.1354255676269531,-0.0228376183658838,-0.4699119627475738,-0.2211823165416717,-0.2239488065242767,0.0,0.0,-0.2005663130315143,-0.7020263623587859
-0.0239401813596487,1.1243293285369873,-0.028613144531846,-0.4947348535060882,-0.2315542697906494,-0.2074388563632965,0.0,0.0,-0.9993704557418824,-0.9816728830337524
-0.0244114883244037,1.1126724481582642,-0.0385668016970157,-0.5194515585899353,-0.240238681435585,-0.1736877858638763,0.0,0.0,-0.9360088109970092,-0.9859691858291626
-0.0249623302370309,1.100470781326294,-0.0482423342764377,-0.5434361100196838,-0.2471869438886642,-0.1389656960964203,0.0,0.0,-0.1949383020401001,-0.9816589951515198
-0.0255912784487009,1.0877057313919067,-0.0577071905136108,-0.5682104825973511,-0.252475380897522,-0.1057687774300575,0.0,0.0,-0.9912226796150208,-0.97267085313797
-0.0262845046818256,1.0743848085403442,-0.0655059963464737,-0.5927048325538635,-0.2563646137714386,-0.0777843743562698,0.0,0.0,-0.949427604675293,-0.9852234125137328
-0.0270401947200298,1.0605133771896362,-0.0731623694300651,-0.6169289350509644,-0.2588199377059936,-0.0491062402725219,0.0,0.0,-0.980975329875946,-0.9855436682701112
-0.0278647430241107,1.0460820198059082,-0.0815989896655082,-0.6415477991104126,-0.2596926391124725,-0.0174538251012563,0.0,0.0,-0.9223692417144777,-0.9536055326461792
-0.0287442207336425,1.0310983657836914,-0.0884056091308593,-0.66585773229599,-0.2592325508594513,0.0092015918344259,0.0,0.0,-0.9449533820152284,-0.9795749187469482
-0.0296883583068847,1.0155706405639648,-0.0964819192886352,-0.6897627115249634,-0.2571194767951965,0.0422609113156795,0.0,0.0,-0.9383186101913452,-0.919455349445343
-0.0306849479675292,0.9994839429855348,-0.1030131131410598,-0.7143808007240295,-0.2536870241165161,0.0686492100358009,0.0,0.0,-0.9795702695846558,-0.8550783395767212
-0.0317415222525596,0.9828476309776306,-0.1106019243597984,-0.7385416626930237,-0.2486520856618881,0.1006987243890762,0.0,0.0,-0.9294543266296388,-0.5973604321479797
-0.0328180305659771,0.965637743473053,-0.1131273135542869,-0.7639709115028381,-0.2430819272994995,0.1114032864570617,0.0,0.0,-0.9026203155517578,-0.2074018716812133
-0.033876895904541,0.947841465473175,-0.110965110361576,-0.7901155948638916,-0.2379180788993835,0.1032768860459327,0.0,0.0,-0.2402744889259338,-0.8146408796310425
-0.0349694266915321,0.9294761419296264,-0.115307904779911,-0.8152697682380676,-0.2317715436220169,0.1229311451315879,0.0,0.0,-0.2352141737937927,0.1953343152999878
-0.0360421165823936,0.9105244278907776,-0.1129746660590171,-0.8414140343666077,-0.2259949445724487,0.115532100200653,0.0,0.0,0.6731982231140137,-0.0246182680130004
-0.0369729995727539,0.8914651274681091,-0.0986571982502937,-0.8462327718734741,-0.2203535139560699,0.1128287091851234,0.0,0.0,0.5798435211181641,0.2158254384994506
-0.0377318374812603,0.8724256157875061,-0.0814050137996673,-0.845385730266571,-0.2147722244262695,0.1116259917616844,0.0,0.0,0.1923633813858032,0.3253850936889648
-0.0384190566837787,0.8537072539329529,-0.07357919216156,-0.831234872341156,-0.2098748683929443,0.097947210073471,0.0,0.0,-0.2867476344108581,-0.1507388949394226
-0.0390830039978027,0.8344017863273621,-0.0709622055292129,-0.857375979423523,-0.2052642107009887,0.0922130197286605,0.0,0.0,0.5667035579681396,0.4015896320343017
-0.0396440513432025,0.815223753452301,-0.0603259578347206,-0.8517760038375854,-0.2010103017091751,0.0850780457258224,0.0,0.0,0.1559023857116699,-0.4550520181655884
-0.0400020591914653,0.7960158586502075,-0.0402437485754489,-0.8530899882316589,-0.1965326517820358,0.0895526260137558,0.0,0.0,0.0762290954589843,0.303985595703125
-0.0402773842215538,0.7769376635551453,-0.031596440821886,-0.84738689661026,-0.1924450099468231,0.081752710044384,0.0,0.0,-0.1149447560310363,0.0384191274642944
-0.0405263900756835,0.7572720050811768,-0.0287693534046411,-0.8735253810882568,-0.1885493546724319,0.0779127031564712,0.0,0.0,-0.2270489931106567,-0.2838796377182007
-0.0407483093440532,0.7370191216468811,-0.0259003844112157,-0.8996633291244507,-0.1848207861185073,0.0745713859796524,0.0,0.0,0.1012316942214965,-0.3248119354248047
-0.0407851226627826,0.7166304588317871,-0.0077148899435997,-0.9056635499000548,-0.1807745993137359,0.0809240341186523,0.0,0.0,-0.0154473781585693,-0.7248897552490234
-0.0408593192696571,0.6956690549850464,-0.0130182635039091,-0.930942177772522,-0.1751623600721359,0.1122446805238723,0.0,0.0,0.9017584323883056,-0.7167944312095642
-0.0406845100224018,0.6754662394523621,0.0102608036249876,-0.8970677256584167,-0.1679236590862274,0.144773930311203,0.0,0.0,-0.0578232407569885,0.0316524505615234
-0.0404802337288856,0.6546761393547058,0.0132571067661046,-0.9232070446014404,-0.1607501059770584,0.1434710919857025,0.0,0.0,0.8580546379089355,-0.3973197340965271
-0.0400148406624794,0.6346496939659119,0.0390061624348163,-0.8892665505409241,-0.1532273739576339,0.1504546850919723,0.0,0.0,0.5838567018508911,-0.4824639558792114
-0.0394763946533203,0.6151695847511292,0.0466668382287025,-0.8650649189949036,-0.1460565328598022,0.1434165388345718,0.0,0.0,-0.1923511028289795,-0.5417106747627258
-0.0389464385807514,0.5951059460639954,0.0448058508336544,-0.8909323811531067,-0.1378861367702484,0.1634075194597244,0.0,0.0,0.9256291389465332,-0.3692656755447387
-0.0383887290954589,0.5756939053535461,0.0480778701603412,-0.8620655536651611,-0.1302207559347152,0.153308019042015,0.0,0.0,0.3771092891693115,-0.5331237316131592
-0.0376749038696289,0.5563209056854248,0.0622980967164039,-0.860253095626831,-0.1211734041571617,0.1809469163417816,0.0,0.0,0.418828010559082,-0.5264866352081299
-0.0368851646780967,0.5371491312980652,0.0686784759163856,-0.8512741327285767,-0.1109385713934898,0.2046964168548584,0.0,0.0,0.5250704288482666,-0.2383695840835571
-0.036015223711729,0.5179410576820374,0.0765441507101059,-0.8529502153396606,-0.1005634814500808,0.2075018882751464,0.0,0.0,0.7673635482788086,-0.4504278898239136
-0.0351812355220317,0.4991096258163452,0.0734189972281456,-0.8363109827041626,-0.0906715095043182,0.1978395879268646,0.0,0.0,0.8880590200424194,-0.1146368384361267
-0.0342018119990825,0.4811490476131439,0.087687499821186,-0.7976604104042053,-0.0805146768689155,0.2031367272138595,0.0,0.0,0.2444740533828735,0.1997890472412109
-0.0331104286015033,0.4629234671592712,0.098408930003643,-0.809479832649231,-0.0698993206024169,0.2123070657253265,0.0,0.0,0.83400559425354,0.0942211151123046
-0.031890295445919,0.4455260932445526,0.1109494939446449,-0.7727326154708862,-0.05895222350955,0.2189420908689499,0.0,0.0,0.7043576240539551,-0.0869070291519165
-0.0307055469602346,0.4282819926738739,0.1076447591185569,-0.7660142779350281,-0.0482416450977325,0.2142113745212555,0.0,0.0,0.7812649011611938,0.0201890468597412
-0.029551601037383,0.4115520715713501,0.1047815233469009,-0.7432406544685364,-0.0377576276659965,0.2096801996231079,0.0,0.0,0.5507605075836182,0.2856416702270508
-0.0283139236271381,0.3951095044612884,0.1127609834074974,-0.7305360436439514,-0.0268906373530626,0.2173397243022918,0.0,0.0,0.808892011642456,0.2621405124664306
-0.0271595958620309,0.3794725835323334,0.1048136577010154,-0.6948165893554688,-0.0164093952625989,0.2096249610185623,0.0,0.0,0.5860774517059326,0.2947813272476196
-0.0258930213749408,0.3640787601470947,0.1154271811246872,-0.684079110622406,-0.0053187832236289,0.2218119800090789,0.0,0.0,0.5790572166442871,0.3358296155929565
-0.0246240608394145,0.3486595749855041,0.1155097931623458,-0.6852933168411255,0.0059213801287114,0.2248034030199051,0.0,0.0,0.8884968757629395,0.6839859485626221
-0.0231867786496877,0.3332053422927856,0.1331873387098312,-0.6869296431541443,0.0163209624588489,0.2079914808273315,0.0,0.0,0.714274525642395,-0.069280982017517
-0.0217557903379201,0.3176919221878052,0.1323846131563186,-0.6896306276321411,0.0268964078277349,0.2115091830492019,0.0,0.0,0.9767651557922364,0.2702603340148926
-0.0203283317387104,0.303014874458313,0.1317441761493683,-0.6525448560714722,0.0377664677798748,0.2174008190631866,0.0,0.0,0.8975582122802734,0.486851692199707
-0.0188125614076852,0.2891613245010376,0.1397927403450012,-0.6160501837730408,0.0494151897728443,0.2329743653535843,0.0,0.0,0.8389075994491577,0.6315579414367676
-0.0173944476991891,0.2760846614837646,0.1312767565250396,-0.5815645456314087,0.059827771037817,0.2082516252994537,0.0,0.0,0.4946606159210205,0.7485742568969727
-0.0160331726074218,0.2628562152385711,0.1269543021917343,-0.5883229374885559,0.0689072236418724,0.1815889775753021,0.0,0.0,0.7478976249694824,0.6376512050628662
-0.0146024702116847,0.2503082752227783,0.1346772760152816,-0.5580945611000061,0.0772150829434394,0.1661573946475982,0.0,0.0,0.6996843814849854,0.2140614986419677
-0.013290787115693,0.2380470633506775,0.1228663548827171,-0.5453939437866211,0.0854377895593643,0.1644541770219802,0.0,0.0,0.4669767618179321,0.8724336624145508
-0.0119864465668797,0.2261040061712265,0.1235487312078476,-0.5312127470970154,0.0922605097293853,0.1364543139934539,0.0,0.0,0.6768538951873779,0.8582496643066406
-0.0106637952849268,0.2146458923816681,0.1267147660255432,-0.5096036791801453,0.097764141857624,0.1100728660821914,0.0,0.0,0.3613595962524414,0.0976291894912719
-0.0092870714142918,0.2033269703388214,0.1313639879226684,-0.5034902691841125,0.1040234193205833,0.1251856684684753,0.0,0.0,0.4335477352142334,0.2327226400375366
-0.0078918458893895,0.1918674260377884,0.1326879560947418,-0.5098016858100891,0.1108087599277496,0.1357066929340362,0.0,0.0,0.7130186557769775,-0.1214096546173095
-0.0064188004471361,0.1804596781730651,0.139585793018341,-0.5076061487197876,0.1184770837426185,0.1533665060997009,0.0,0.0,0.9002312421798706,0.3771367073059082
-0.0048274993896484,0.1694737076759338,0.1501844227313995,-0.4889987409114837,0.127372920513153,0.1779163181781768,0.0,0.0,0.8182682991027832,0.6276912689208984
-0.0030508041381835,0.1585833579301834,0.1691158562898636,-0.4847655892372131,0.1358878314495086,0.1702983677387237,0.0,0.0,0.748715877532959,0.1507103443145752
-0.0013609885936602,0.1482874751091003,0.1600020974874496,-0.458438903093338,0.1448317915201187,0.1788790971040725,0.0,0.0,0.4947633743286133,0.0172395706176757
0.0002834320184774,0.1384302526712417,0.1548990607261657,-0.4390542209148407,0.1543674021959304,0.1907120943069458,0.0,0.0,0.4080111980438232,-0.0099976062774658
0.0019709586631506,0.1288544088602066,0.1582508683204651,-0.4267153143882751,0.1648610532283783,0.2098734676837921,0.0,0.0,0.3738787174224853,-0.4365243911743164
0.003721332643181,0.1191154792904853,0.1637109816074371,-0.4341384768486023,0.1762143522500991,0.227066084742546,0.0,0.0,0.819636344909668,-0.1786661148071289
0.0053406716324388,0.1096045076847076,0.1504114121198654,-0.4241226017475128,0.1877758800983429,0.2312308251857757,0.0,0.0,0.939422845840454,-0.2439152002334594
0.0068920133635401,0.1010288819670677,0.142704352736473,-0.3827623724937439,0.2002768218517303,0.2500189244747162,0.0,0.0,0.5279825925827026,0.3194663524627685
0.0083402637392282,0.0926359966397285,0.1320435106754303,-0.3748000562191009,0.2131614089012146,0.2576914131641388,0.0,0.0,0.505669355392456,0.7461457252502441
0.0095909116789698,0.0847068130970001,0.1135482043027877,-0.3541167080402374,0.224811777472496,0.2330076694488525,0.0,0.0,0.7192082405090332,0.7014017105102539
0.0108505245298147,0.0773094296455383,0.1151793748140335,-0.3304555714130401,0.2357505410909652,0.2187749445438385,0.0,0.0,0.6302465200424194,0.7432785034179688
0.0119577404111623,0.0704121440649032,0.1010583490133285,-0.3081223666667938,0.2455666065216064,0.196321502327919,0.0,0.0,0.5652384757995605,0.7138848304748535
0.0128827095031738,0.0639558136463165,0.0839521363377571,-0.2883971333503723,0.254266619682312,0.174000009894371,0.0,0.0,0.4896920919418335,0.8065364360809326
0.0137517927214503,0.0575778819620609,0.0795277133584022,-0.2847620248794555,0.2617985010147095,0.1506383568048477,0.0,0.0,0.7070674896240234,0.9580543041229248
0.0144208911806344,0.0514922700822353,0.0611282810568809,-0.2715132534503937,0.2677071094512939,0.1181721687316894,0.0,0.0,0.9295852184295654,0.9677948951721193
0.0148321148008108,0.0456565730273723,0.0370964109897613,-0.2601085901260376,0.2718344330787658,0.082546517252922,0.0,0.0,0.92608642578125,0.9253038167953492
0.0152361867949366,0.0405347682535648,0.0374917611479759,-0.2281779497861862,0.2748240530490875,0.059792585670948,0.0,0.0,0.7296559810638428,0.790823221206665
0.0156810767948627,0.0354321338236331,0.0425169728696346,-0.2271597534418106,0.2768529057502746,0.0405771657824516,0.0,0.0,0.8347307443618774,0.9225739240646362
0.0161505695432424,0.0310756545513868,0.0460262037813663,-0.1937964409589767,0.277801364660263,0.0189694203436374,0.0,0.0,0.8683295249938965,0.809770941734314
0.0163745880126953,0.0283767078071832,0.0405900925397872,-0.1165952682495117,0.2591988146305084,-0.3720211386680603,0.0,1.0,0.8979892730712891,-0.1167419552803039
0.0164230354130268,0.0271971803158521,0.0358544513583183,-0.0472509339451789,0.2276397347450256,-0.6311906576156616,0.0,1.0,0.6127810478210449,-0.2208583950996399
0.0164408683776855,0.0262678489089012,0.0313845053315162,-0.0370116345584392,0.197731152176857,-0.5981712341308594,0.0,1.0,0.4411518573760986,-0.112932801246643
0.0163110736757516,0.0258077234029769,0.016832809895277,-0.0167424324899911,0.1677934229373932,-0.5987552404403687,0.0,0.0,-0.9932422041893004,0.2158143520355224
0.0161943435668945,0.0247723199427127,0.0177900195121765,-0.0429583601653575,0.1383608132600784,-0.5886527299880981,0.0,0.0,-0.9751854538917542,0.2067005634307861
0.0160903930664062,0.0231609921902418,0.0186709426343441,-0.0691709369421005,0.1094331741333007,-0.5785530805587769,0.0,0.0,-0.9414522647857666,-0.594300389289856
0.0159421917051076,0.0209644418209791,0.012410033494234,-0.0958528295159339,0.0824363529682159,-0.5399369597434998,0.0,0.0,-0.638710618019104,-0.583092987537384
0.0157502181828022,0.0181809514760971,0.0061476617120206,-0.1225061044096946,0.0573532097041606,-0.5016629099845886,0.0,0.0,0.2098551988601684,-0.6901611685752869
0.0154736516997218,0.0154290767386555,-0.004145236685872,-0.1215670630335807,0.0341219156980514,-0.4646262526512146,0.0,0.0,0.3228144645690918,-0.6497490406036377
0.0151649471372365,0.0127337789162993,-0.0091996472328901,-0.1194397285580635,0.0127240493893623,-0.4279576241970062,0.0,0.0,0.1401512622833252,-0.6830225586891174
0.0149110797792673,0.0098228314891457,-0.0057103862054646,-0.1293204873800277,-0.0066940244287252,-0.388361781835556,0.0,0.0,0.2906605005264282,-0.76189124584198
0.0146960262209177,0.0071326470933854,-0.0039777816273272,-0.1197297200560569,-0.0239934735000133,-0.3459888994693756,0.0,0.0,0.5205521583557129,-0.8876210451126099
0.0144636156037449,0.004981193691492,-0.0080353422090411,-0.0959317609667778,-0.0389991253614425,-0.3001131415367126,0.0,0.0,-0.0265661478042602,-0.7195068001747131
0.0141886714845895,0.0022390461526811,-0.0141083123162388,-0.1222733408212661,-0.0522312335669994,-0.2646425366401672,1.0,0.0,0.6702518463134766,0.2345031499862671
