x_pos,y_pos,x_vel,y_vel,angle,ang_vel,leg_1,leg_2,main_booster,lat_booster
-0.001479148864746,1.4032533168792725,-0.1494784653186798,-0.3407448530197143,0.0013908596010878,0.0274085756391286,0.0,0.0,-0.8086987073293936,-0.9502612127717196
-0.0029823302756994,1.3952338695526123,-0.1530503183603286,-0.3564252555370331,0.0040953285060822,0.0540955252945423,0.0,0.0,-0.5791554204694209,-0.699253242560252
-0.0044839857146143,1.3868374824523926,-0.1536009162664413,-0.3731840252876282,0.0074921916238963,0.0679434761404991,0.0,0.0,-0.630531623041654,-0.6292055473619007
-0.0060007097199559,1.3780673742294312,-0.1562115848064422,-0.389810711145401,0.0119805475696921,0.0897751152515411,0.0,0.0,-0.5197045484331331,-0.7381974812468879
-0.007519245147705,1.3689279556274414,-0.1571255326271057,-0.4062491953372955,0.0172039810568094,0.1044781059026718,0.0,0.0,0.3970631300430061,0.7151759676865808
-0.0088166240602731,1.3601101636886597,-0.1333938241004943,-0.3919520676136017,0.0208182521164417,0.0722922831773758,0.0,0.0,-0.1498920171878788,-0.780031192149887
-0.0101339342072606,1.350919246673584,-0.1365630477666854,-0.4085635840892792,0.025596285238862,0.0955693647265434,0.0,0.0,0.7952022366162572,-0.8309143420074308
-0.0113125797361135,1.3424183130264282,-0.124274268746376,-0.3779393136501312,0.0319342203438282,0.1267702728509903,0.0,0.0,0.9605098271430168,0.5531926867319792
-0.0124513627961277,1.3350424766540527,-0.1186587363481521,-0.3279245793819427,0.0366663224995136,0.0946508571505546,0.0,0.0,0.3162285884008771,-0.6730492580177025
-0.013621712103486,1.3281642198562622,-0.1226941794157028,-0.3058513104915619,0.0422592610120773,0.1118691340088844,0.0,0.0,-0.8160958400285987,0.676693170349899
-0.0146882059052586,1.3209190368652344,-0.1102535352110862,-0.3221111893653869,0.0458360761404037,0.0715428814291954,0.0,0.0,0.3677166222524157,0.577154603948653
-0.0156221389770507,1.3139642477035522,-0.0955079942941665,-0.3091661036014557,0.0479216910898685,0.0417160876095294,0.0,0.0,-0.7579891765413116,-0.5725265432238706
-0.0165486335754394,1.3066383600234983,-0.0951455980539321,-0.3256767094135284,0.0503982454538345,0.0495357736945152,0.0,0.0,-0.2038707849296988,-0.9040830269247409
-0.0174949653446674,1.298927903175354,-0.0982292965054512,-0.3428075909614563,0.0539575479924678,0.0711925253272056,0.0,0.0,-0.1111704264268997,0.9079131047052212
-0.0183106418699026,1.2908626794815063,-0.0824010521173477,-0.3584857881069183,0.0547764264047145,0.0163789130747318,0.0,0.0,0.5391099330071005,0.7669028064726036
-0.0189250949770212,1.282845973968506,-0.060419775545597,-0.3562615811824798,0.0537585280835628,-0.0203596949577331,0.0,0.0,-0.7294788581916871,-0.7534092504389278
-0.019543170928955,1.2744626998901367,-0.061409592628479,-0.3725740313529968,0.0533663779497146,-0.0078435931354761,0.0,0.0,0.5356590934650953,-0.8236767439276942
-0.0200544353574514,1.266229271888733,-0.0520917400717735,-0.3659638166427612,0.0543126314878463,0.0189268011599779,0.0,0.0,0.8402345894689971,-0.6252318817028957
-0.0205057151615619,1.25897479057312,-0.0470981076359748,-0.322492241859436,0.0562672801315784,0.039096537977457,0.0,0.0,0.7978043719156578,0.5801913740104407
-0.0209975242614746,1.252266764640808,-0.0491854101419448,-0.2981389462947845,0.0562694817781448,4.416603042045608e-05,0.0,0.0,0.110837814574648,-0.6013252009632007
-0.0214277263730764,1.245952606201172,-0.0438318662345409,-0.2806582450866699,0.0570670813322067,0.0159536637365818,0.0,0.0,0.274523277183013,0.9685091399499116
-0.0217486377805471,1.239780068397522,-0.0303954388946294,-0.2742721736431122,0.0553916618227958,-0.0335112735629081,0.0,0.0,0.9091250471859204,0.6663568487862936
-0.0218488685786724,1.2341952323913574,-0.0068595670163631,-0.2481020092964172,0.0522490069270134,-0.0628588944673538,0.0,0.0,-0.0770660642816669,-0.9226249220107918
-0.0219719894230365,1.228223443031311,-0.0102024134248495,-0.2653375267982483,0.0501719750463962,-0.0415441319346427,0.0,0.0,-0.0034823432377795,-0.5943385232729377
-0.0221119876950979,1.2218776941299438,-0.0128085734322667,-0.2819973528385162,0.0489936508238315,-0.0235686637461185,0.0,0.0,0.0048610143875957,0.6858595164805097
-0.0222789756953716,1.2157807350158691,-0.0134716257452964,-0.2708733379840851,0.0458054356276989,-0.0637645497918129,0.0,0.0,0.6151097283581664,0.6013198247401749
-0.022386360913515,1.2103838920593262,-0.0057442234829068,-0.2397085726261139,0.0408627651631832,-0.0988532602787017,0.0,0.0,0.0561800501948603,-0.992388330971682
-0.0226544383913278,1.2054061889648438,-0.0232598297297954,-0.2211436629295349,0.0373657643795013,-0.0699400454759597,0.0,0.0,0.7699666856996148,-0.5877358246683516
-0.0231098178774118,1.2012947797775269,-0.0422059558331966,-0.1826446056365966,0.034073244780302,-0.0658505856990814,0.0,0.0,0.8453910595175917,-0.812510483739989
-0.0236339569091796,1.1976211071014404,-0.0500889718532562,-0.1632265001535415,0.0317731015384197,-0.0460028201341629,0.0,0.0,-0.7504950579945862,-0.816915364491436
-0.0241816528141498,1.19358229637146,-0.0534560307860374,-0.1794753223657608,0.0304731354117393,-0.0259994007647037,0.0,0.0,-0.9132365584373474,0.9401774406433104
-0.0246255882084369,1.1891697645187378,-0.0408499762415885,-0.1960452646017074,0.0269713327288627,-0.070035845041275,0.0,0.0,-0.979933261871338,0.8837387561798096
-0.0249709133058786,1.1843969821929932,-0.0288682486861944,-0.2120327651500702,0.0213774405419826,-0.1118778586387634,0.0,0.0,-0.9933167695999146,0.7453207969665527
-0.0252254493534564,1.1792484521865845,-0.017861858010292,-0.2287336736917495,0.0138838328421115,-0.1498723179101944,0.0,0.0,-0.9857520461082458,0.0112162828445434
-0.0254425052553415,1.173729658126831,-0.0135313645005226,-0.2452304065227508,0.00581526895985,-0.1613708734512329,0.0,0.0,-0.9608765840530396,0.4096900224685669
-0.0256225578486919,1.1678404808044434,-0.0092560620978474,-0.2617283165454864,-0.0028280229307711,-0.1728660762310028,0.0,0.0,-0.9450514316558838,-0.4756456017494201
-0.0257664676755666,1.1615815162658691,-0.0050410698167979,-0.2782274186611175,-0.0120456693693995,-0.1843528747558593,0.0,0.0,-0.9957541823387146,-0.4443416595458984
-0.0258746147155761,1.1549526453018188,-0.0008919177344068,-0.2947278022766113,-0.0218369644135236,-0.1958262324333191,0.0,0.0,-0.963866889476776,-0.5475003719329834
-0.0259937290102243,1.1479617357254028,-0.0025957883335649,-0.3108750283718109,-0.0310406014323234,-0.1840724498033523,0.0,0.0,-0.983896791934967,-0.8781650066375732
-0.0261448863893747,1.1406049728393557,-0.0069005363620817,-0.3271547257900238,-0.0391510240733623,-0.1622083485126495,0.0,0.0,-0.9838094115257264,-0.5805501937866211
-0.0263165477663278,1.1328864097595217,-0.0097547667101025,-0.3432604670524597,-0.0464713126420974,-0.1464057117700576,0.0,0.0,-0.9658666253089904,-0.763534426689148
-0.0265037529170513,1.1247994899749756,-0.0119588579982519,-0.3596499264240265,-0.0531526356935501,-0.1336264759302139,0.0,0.0,-0.9541511535644532,-0.6843231916427612
-0.026704978197813,1.1163382530212402,-0.013953685760498,-0.3762828707695007,-0.0592599362134933,-0.1221458315849304,0.0,0.0,-0.9534642100334167,-0.6111783385276794
-0.026916217058897,1.1075092554092407,-0.015403282828629,-0.3926369249820709,-0.0649160146713256,-0.1131216064095497,0.0,0.0,-0.9637659788131714,-0.7435454726219177
-0.0271612163633108,1.098307490348816,-0.019808005541563,-0.4091855883598327,-0.0695560052990913,-0.0927997678518295,0.0,0.0,-0.9803459644317628,-0.5582982301712036
-0.027419090270996,1.0887336730957031,-0.0215699877589941,-0.4256985485553741,-0.0737298130989074,-0.0834763646125793,0.0,0.0,-0.8941815495491028,-0.5280958414077759
-0.0276878364384174,1.0787910223007202,-0.0230459365993738,-0.4420928061008453,-0.0775154754519462,-0.0757134854793548,0.0,0.0,-0.8810787200927734,-0.7700961232185364
-0.0280028339475393,1.0684945583343506,-0.0289564095437526,-0.4577554166316986,-0.0800317302346229,-0.0503248088061809,0.0,0.0,-0.9100924730300904,-0.6742709279060364
-0.0283584594726562,1.0578413009643557,-0.0341291800141334,-0.4735531806945801,-0.0814566016197204,-0.0284975357353687,0.0,0.0,-0.9199431538581848,-0.6508738398551941
-0.0287451744079589,1.0468223094940186,-0.038031093776226,-0.4897701442241668,-0.0820853188633918,-0.012574647553265,0.0,0.0,-0.9637540578842164,0.3407518863677978
-0.0291112903505563,1.0354328155517578,-0.0354285761713981,-0.5062665939331055,-0.0832552388310432,-0.0233984272927045,0.0,0.0,-0.8616812825202942,-0.1295834183692932
-0.0294585227966308,1.0236726999282837,-0.0330093577504158,-0.522763192653656,-0.084961861371994,-0.0341323055326938,0.0,0.0,-0.9827579855918884,-0.6933639645576477
-0.0298339836299419,1.011544108390808,-0.0364192761480808,-0.5391122102737427,-0.0860709473490715,-0.0221819411963224,0.0,0.0,-0.9662864804267884,-0.7086513042449951
-0.0302495956420898,0.9990587830543518,-0.0413306169211864,-0.5549182295799255,-0.0863004326820373,-0.0045896214433014,0.0,0.0,-0.9333009719848632,-0.405996561050415
-0.0306524280458688,0.9862028956413268,-0.0395160913467407,-0.5714147090911865,-0.0870512649416923,-0.0150168165564537,0.0,0.0,-0.9952783584594728,-0.791273832321167
-0.0311167724430561,0.9729825854301452,-0.0470092743635177,-0.5875396132469177,-0.0864921063184738,0.0111833494156599,0.0,0.0,-0.9833645224571228,0.3444318771362304
-0.0315726287662982,0.9593915343284608,-0.0456377565860748,-0.6040360927581787,-0.0864425227046012,0.000991869950667,0.0,0.0,-0.9809277653694152,0.0048779249191284
-0.032022189348936,0.945430338382721,-0.0444971919059753,-0.6205323934555054,-0.0868961364030838,-0.0090723745524883,0.0,0.0,-0.8721319437026978,-0.4160147905349731
-0.032467745244503,0.9310983419418336,-0.0435924679040908,-0.6370287537574768,-0.0878463014960289,-0.019003240391612,0.0,0.0,-0.975546896457672,-0.5613120198249817
-0.032961081713438,0.9164074063301086,-0.0491531267762184,-0.6529409885406494,-0.088024616241455,-0.0035662367008626,0.0,0.0,-0.980350375175476,-0.7329043745994568
-0.0335082039237022,0.9013466835021972,-0.0554000362753868,-0.6693287491798401,-0.0873510241508483,0.0134718790650367,0.0,0.0,-0.9284986853599548,0.0614498853683471
-0.0340583808720111,0.8859153389930725,-0.055219829082489,-0.6858251094818115,-0.0871521309018135,0.0039779422804713,0.0,0.0,-0.8848088383674622,-0.7213625311851501
-0.0346592888236045,0.8701176047325134,-0.0609650798141956,-0.702071487903595,-0.0862781256437301,0.0174799989908933,0.0,0.0,-0.1661303639411926,-0.7758105993270874
-0.0353264808654785,0.8539581298828125,-0.0686368271708488,-0.7180913090705872,-0.0843772143125534,0.0380184613168239,0.0,0.0,-0.659778356552124,-0.4911953806877136
-0.0360035896301269,0.8374280333518982,-0.0691790431737899,-0.7345876097679138,-0.0829264894127845,0.0290146879851818,0.0,0.0,-0.4625378847122192,0.0166783332824707
-0.0366929061710834,0.8205273747444153,-0.0699555575847625,-0.7510835528373718,-0.0819172114133834,0.0201856475323438,0.0,0.0,-0.0640922784805297,-0.4115797281265259
-0.0373967178165912,0.803256094455719,-0.0709611922502517,-0.7675793170928955,-0.0813403725624084,0.0115367639809846,0.0,0.0,0.279625654220581,-0.2732784748077392
-0.0380352959036827,0.7859450578689575,-0.0643088668584823,-0.7693527340888977,-0.0808926075696945,0.0089554945006966,0.0,0.0,0.0941230058670044,-0.4239342212677002
-0.0386288650333881,0.7691065073013306,-0.0594825968146324,-0.7483736872673035,-0.0807756558060646,0.002339145867154,0.0,0.0,-0.2377490997314453,-0.5965281128883362
-0.0392976775765419,0.7519013285636902,-0.0679757893085479,-0.7646160125732422,-0.0796893611550331,0.0217256434261798,0.0,0.0,0.2256414890289306,-0.2282882332801818
-0.0400168411433696,0.7350847721099854,-0.0723001807928085,-0.7473850250244141,-0.0793119817972183,0.0075476141646504,0.0,0.0,0.3522469997406006,-0.0299370288848876
-0.0406949035823345,0.7186562418937683,-0.0679135620594024,-0.7301547527313232,-0.079201616346836,0.0022072698920965,0.0,0.0,-0.2090411782264709,-0.8606547117233276
-0.041480828076601,0.7018763422966003,-0.0804295688867569,-0.7456761002540588,-0.0773805752396583,0.0364204607903957,0.0,0.0,-0.2291249632835388,0.5779711008071899
-0.04224319383502,0.6847197413444519,-0.0764066651463508,-0.7625033855438232,-0.0772134140133857,0.0033430443145334,0.0,0.0,0.5813779830932617,-0.1176562309265136
-0.0430379882454872,0.667756199836731,-0.0791452452540397,-0.753958523273468,-0.0775468200445175,-0.0066681737080216,0.0,0.0,0.4030802249908447,-0.7275228500366211
-0.0438358299434185,0.6508262157440186,-0.0806604102253913,,-0.0766699835658073,0.0175366234034299,0.0,0.0,0.5703582763671875,-0.3407561182975769
-0.0446706786751747,0.634011447429657,-0.0839011818170547,-0.7473022937774658,-0.0762608349323272,0.0081828581169247,0.0,0.0,0.0236943960189819,-0.3927052021026611
-0.0455063804984092,0.6175616979598999,-0.0836418867111206,-0.7311020493507385,-0.0761928707361221,0.0013594016199931,0.0,0.0,0.3491218090057373,-0.4513737559318542
-0.0462604537606239,0.6017298698425293,-0.0754779428243637,-0.7036315202713013,-0.0761280059814453,0.0012973983539268,0.0,0.0,-0.0975751876831054,-0.764105498790741
-0.0471210479736328,0.5855432152748108,-0.0876530781388282,-0.7193294763565063,-0.0745493248105049,0.0315735563635826,0.0,0.0,0.3969910144805908,0.2598145008087158
-0.0481061935424804,0.5694168210029602,-0.0993141531944274,-0.7166866064071655,-0.0737582817673683,0.015820849686861,0.0,0.0,0.5105483531951904,-0.1169294118881225
-0.0490385070443153,0.553996741771698,-0.0939311310648918,-0.6853014826774597,-0.0730659961700439,0.0138456430286169,0.0,0.0,-0.1968134641647339,0.4515250921249389
-0.0500088706612587,0.5382059216499329,-0.0974777489900589,-0.7017958164215088,-0.0726308226585388,0.0087034767493605,0.0,0.0,0.5857720375061035,0.1600767374038696
-0.0510232932865619,0.5230231881141663,-0.1013912409543991,-0.6747891306877136,-0.0726837813854217,-0.0010592286707833,0.0,0.0,-0.116590142250061,0.2988622188568115
-0.052077293395996,0.507469654083252,-0.1051078587770462,-0.6912831664085388,-0.0729690566658973,-0.0057053570635616,0.0,0.0,0.8613764047622681,-0.0955398678779602
-0.0530255325138568,0.4925150871276855,-0.0947801694273948,-0.6646496653556824,-0.073019690811634,-0.0010127441491931,0.0,0.0,0.7647078037261963,0.6643552780151367
-0.0539084449410438,0.4777213335037231,-0.0867602601647377,-0.6575745344161987,-0.0745372995734214,-0.0303517933934927,0.0,0.0,-0.0072453618049621,0.3435468673706054
-0.0548325553536415,0.4625567495822906,-0.0906872004270553,-0.6740686893463135,-0.0762496590614318,-0.0342470631003379,0.0,0.0,0.5670382976531982,0.3285151720046997
-0.0556179992854595,0.4478154182434082,-0.0772837027907371,-0.6552343964576721,-0.0774987116456031,-0.0249812640249729,0.0,0.0,0.8866736888885498,0.4699586629867553
-0.0562520995736122,0.43335822224617,-0.0627093017101287,-0.6425763964653015,-0.0781811401247978,-0.0136489067226648,0.0,0.0,0.6261966228485107,0.4863096475601196
-0.0568762794137001,0.4196366965770721,-0.061554230749607,-0.6098951101303101,-0.0790467634797096,-0.0173124261200428,0.0,0.0,0.6505502462387085,-0.3443694114685058
-0.0574527755379676,0.4066736102104187,-0.0567698664963245,-0.5761803388595581,-0.0799144357442855,-0.0173532254993915,0.0,0.0,-0.0429359674453735,0.1505229473114013
-0.0580723769962787,0.3933397531509399,-0.0609524622559547,-0.5926739573478699,-0.0809149146080017,-0.0200096536427736,0.0,0.0,0.8517758846282959,0.3485085964202881
-0.058593176305294,0.3801681697368622,-0.0514770671725273,-0.5854357481002808,-0.0815132409334182,-0.0119663998484611,0.0,0.0,-0.2221795320510864,-0.698141872882843
-0.0592176429927349,0.3666309416294098,-0.063258945941925,-0.6016085743904114,-0.0807089507579803,0.0160859860479831,0.0,0.0,0.4547456502914428,0.7402617931365967
-0.0596834197640419,0.353850394487381,-0.0459398478269577,-0.568060576915741,-0.0813362523913383,-0.0125461993739008,0.0,0.0,0.0023322105407714,-0.1754248142242431
-0.0601792335510253,0.3412166833877563,-0.0488007441163063,-0.5615378022193909,-0.0821145251393318,-0.0155651541426777,0.0,0.0,0.7472970485687256,0.4619123935699463
-0.0607814788818359,0.3294860124588012,-0.0587508492171764,-0.5214458107948303,-0.0835757181048393,-0.0292238481342792,0.0,0.0,0.3200656175613403,-0.2588979005813598
-0.0613122954964637,0.3182089924812317,-0.0518668070435524,-0.5012655854225159,-0.0847782865166664,-0.0240515749901533,0.0,0.0,-0.2913527488708496,0.3945330381393432
-0.0618876442313194,0.3065610527992248,-0.0562687404453754,-0.5177587866783142,-0.0860331505537033,-0.0250973105430603,0.0,0.0,0.0935280323028564,0.1365609169006347
-0.062519647181034,0.2952898442745209,-0.0616321191191673,-0.5010340809822083,-0.0875830426812172,-0.0309981554746627,0.0,0.0,-0.3390138149261474,0.1563345193862915
-0.063196375966072,0.2836475372314453,-0.0660759136080741,-0.5175272226333618,-0.0891644656658172,-0.0316283777356147,0.0,0.0,0.4984019994735718,0.8195724487304688
-0.0639225989580154,0.2724572420120239,-0.0691833198070526,-0.4975565671920776,-0.0925734639167785,-0.0681798681616783,0.0,0.0,-0.7753216028213501,-0.2505773305892944
-0.064693734049797,0.2608960568904876,-0.0736619532108306,-0.514050304889679,-0.0959944427013397,-0.068419761955738,0.0,0.0,-0.0056654810905456,-0.4491275548934936
-0.0655097961425781,0.248963862657547,-0.0781555920839309,-0.5305439829826355,-0.0994181856513023,-0.0684746876358985,0.0,0.0,0.5570261478424072,-0.3896311521530151
-0.066278837621212,0.2371711581945419,-0.0737266987562179,-0.5243345499038696,-0.1025683432817459,-0.0630031451582908,0.0,0.0,0.6068704128265381,-0.5330281853675842
-0.0669080764055252,0.2261020094156265,-0.0612386241555213,-0.4920806586742401,-0.1042429059743881,-0.0334910713136196,0.0,0.0,-0.2867304682731628,-0.5775659084320068
-0.0676292404532432,0.2146738618612289,-0.0716562420129776,-0.5079480409622192,-0.1046973243355751,-0.0090884687379002,0.0,0.0,0.7954930067062378,0.0188324451446533
-0.0681441277265548,0.204235628247261,-0.0517884269356727,-0.4638994932174682,-0.104403831064701,0.0058698849752545,0.0,0.0,-0.0587394833564758,-0.3334389925003052
-0.0687040314078331,0.1934263259172439,-0.0563364550471305,-0.4803918898105621,-0.1040723621845245,0.0066295289434492,0.0,0.0,0.8050696849822998,0.1130759716033935
-0.0692243576049804,0.1835779100656509,-0.052368588745594,-0.4376838803291321,-0.1037323325872421,0.0068009598180651,0.0,0.0,-0.4161709547042846,-0.4309746026992798
-0.0697896927595138,0.1733583956956863,-0.0569301024079322,-0.4541761577129364,-0.103340744972229,0.0078317932784557,0.0,0.0,0.1615771055221557,0.0522998571395874
-0.0703104957938194,0.1632398217916488,-0.0527996718883514,-0.4496645927429199,-0.1026293933391571,0.0142271546646952,0.0,0.0,0.5258104801177979,0.5095441341400146
-0.0708982497453689,0.1536154150962829,-0.0582117363810539,-0.4277900159358978,-0.1031864956021308,-0.011142112314701,0.0,0.0,-0.434771716594696,0.3642154932022095
-0.0715310126543045,0.1436198502779007,-0.0627856403589248,-0.4442821443080902,-0.1036747843027114,-0.0097660301253199,0.0,0.0,0.5458502769470215,-0.051195740699768
-0.0721742659807205,0.1340431571006775,-0.0638116970658302,-0.4256666898727417,-0.104182556271553,-0.0101553127169609,0.0,0.0,0.3397440910339355,0.3884527683258056
-0.0727965384721756,0.1247373893857002,-0.0618927851319313,-0.4136156141757965,-0.1045147031545639,-0.0066428906284272,0.0,0.0,0.4328383207321167,0.8135207891464233
-0.0732412338256836,0.1154882758855819,-0.0427536070346832,-0.411192923784256,-0.1062176600098609,-0.0340591296553611,0.0,0.0,0.8487253189086914,-0.0147700309753417
-0.0735412612557411,0.1069918274879455,-0.0288791395723819,-0.3776982426643371,-0.1073301509022712,-0.0222499277442693,0.0,0.0,0.6961734294891357,-0.4074859023094177
-0.0737717598676681,0.0993551835417747,-0.022142069414258,-0.3394741117954254,-0.1082344800233841,-0.0180864706635475,0.0,0.0,-0.0273271799087524,-0.7522916197776794
