x_pos,y_pos,x_vel,y_vel,angle,ang_vel,leg_1,leg_2,main_booster,lat_booster
-0.0014799118507653,1.403403401374817,-0.1499111950397491,-0.3340740501880646,0.0017106082523241,0.0337393954396247,0.0,0.0,0.1542129516601562,0.7997702360153198
-0.0028119087219238,1.39616858959198,-0.1332834213972091,-0.3215455710887909,0.0018021719297394,0.0018320226809009,0.0,0.0,-0.3167870044708252,0.5580724477767944
-0.0040456773713231,1.3887083530426023,-0.1220661848783493,-0.3315686881542206,0.0005126280011609,-0.0257934927940368,0.0,0.0,-0.2806715965270996,-0.1670378446578979
-0.0052344324067234,1.3810269832611084,-0.1175359711050987,-0.3413940966129303,-0.0008103790460154,-0.0264627672731876,0.0,0.0,-0.4040980339050293,0.5805606842041016
-0.0063224793411791,1.3731262683868408,-0.1060277819633483,-0.3511408567428589,-0.0035619740374386,-0.0550370886921882,0.0,0.0,-0.4947465658187866,0.3112243413925171
-0.0073651312850415,1.3650047779083252,-0.101443313062191,-0.3609651029109955,-0.0063474900089204,-0.0557152219116687,0.0,0.0,-0.280130922794342,0.1067920923233032
-0.0083620073273777,1.3566622734069824,-0.0968383103609085,-0.3707893788814544,-0.0091682495549321,-0.0564203150570392,0.0,0.0,-0.620404839515686,-0.585669755935669
-0.0093478206545114,1.3481011390686035,-0.0965658575296402,-0.3805113732814789,-0.0111517244949936,-0.0396732054650783,0.0,0.0,-0.5511965155601501,0.0199363231658935
-0.010287475772202,1.339319109916687,-0.0919290706515312,-0.3903353810310364,-0.0131715023890137,-0.0403992161154747,0.0,0.0,-0.362496018409729,-0.1717418432235717
-0.0111811636015772,1.3303158283233645,-0.0872784331440925,-0.400159478187561,-0.015227380208671,-0.0411215424537658,0.0,0.0,-0.6594164967536926,0.0938813686370849
-0.0120285032317042,1.3210917711257937,-0.0826161727309227,-0.4099836647510528,-0.0173199586570262,-0.041855551302433,0.0,0.0,-0.8367235064506531,0.391933798789978
-0.0128294946625828,1.3116466999053955,-0.0779447332024574,-0.4198079109191894,-0.0194495934993028,-0.0425966382026672,0.0,0.0,-0.8601824641227722,0.472271203994751
-0.0135841369628906,1.30198073387146,-0.0732661411166191,-0.4296322762966156,-0.0216165948659181,-0.0433443747460842,0.0,0.0,-0.3555340766906738,0.1525725126266479
-0.0142922401428222,1.2920936346054075,-0.0685825124382972,-0.4394567310810089,-0.0238213371485471,-0.0440987423062324,0.0,0.0,-0.8453684449195862,0.0390141010284423
-0.0149538991972804,1.281985640525818,-0.0638958662748336,-0.4492812156677246,-0.0260640792548656,-0.0448591597378253,0.0,0.0,-0.9049962162971495,-0.4642312526702881
-0.0155691150575876,1.2716566324234009,-0.0592082142829895,-0.4591058194637298,-0.0283451620489358,-0.0456254445016384,0.0,0.0,-0.899468183517456,-0.4910315275192261
-0.0161377899348735,1.2611068487167358,-0.0545215420424938,-0.4689304530620575,-0.0306647755205631,-0.0463967025279998,0.0,0.0,-0.8505451083183289,-0.2445651292800903
-0.0166600234806537,1.250335931777954,-0.0498378053307533,-0.4787551462650299,-0.033023215830326,-0.0471733622252941,0.0,0.0,-0.881681501865387,-0.8819916844367981
-0.0171941760927438,1.2393553256988523,-0.052467543631792,-0.4880489706993103,-0.0339504517614841,-0.0185464490205049,0.0,0.0,-0.5147659778594971,-0.9314178824424744
-0.0177653320133686,1.2281575202941897,-0.0582623556256294,-0.4976567327976227,-0.0328200086951255,0.0226110890507698,0.0,0.0,-0.9024181365966796,-0.4655178785324096
-0.0182903297245502,1.2167385816574097,-0.0536095723509788,-0.5074809789657593,-0.0317300893366336,0.0218003988265991,0.0,0.0,-0.8967634439468384,-0.3570921421051025
-0.0187694542109966,1.2050987482070925,-0.0489670038223266,-0.5173053741455078,-0.030679827556014,0.0210071019828319,0.0,0.0,-0.7891591787338257,-0.6703136563301086
-0.0192440990358591,1.1932388544082642,-0.0495534352958202,-0.5270643830299377,-0.0286246109753847,0.0411081910133361,0.0,0.0,-0.9422009587287904,0.0268514156341552
-0.0196730606257915,1.1811580657958984,-0.0449414663016796,-0.5368890762329102,-0.0266103222966194,0.0402895435690879,0.0,0.0,-0.8620105385780334,0.5537983179092407
-0.0200230590999126,1.1688563823699951,-0.0361435040831565,-0.5467200875282288,-0.0254778359085321,0.0226518530398607,0.0,0.0,-0.8800358176231384,-0.5316750407218933
-0.0203802101314067,1.1563169956207275,-0.0381496921181678,-0.5572612881660461,-0.0230719484388828,0.04811792075634,0.0,0.0,-0.798111081123352,-0.3650403022766113
-0.0206920616328716,1.1435567140579224,-0.0335875190794467,-0.5670839548110962,-0.0207060426473617,0.0473180674016475,0.0,0.0,-0.9232632517814636,0.4352965354919433
-0.0209589954465627,1.1305756568908691,-0.0290481448173522,-0.5769065618515015,-0.0183797627687454,0.0465256012976169,0.0,0.0,-0.9613870978355408,-0.1695530414581298
-0.0211812015622854,1.1173734664916992,-0.0245336480438709,-0.5867291688919067,-0.0160927101969718,0.0457410141825675,0.0,0.0,-0.939693570137024,-0.5676608085632324
-0.0214055068790912,1.1039495468139648,-0.0258806757628917,-0.5965842008590698,-0.0126763517037034,0.0683270245790481,0.0,0.0,-0.9315384030342102,0.3572832345962524
-0.021585464477539,1.0903048515319824,-0.0214223116636276,-0.6064073443412781,-0.0092983301728963,0.0675603002309799,0.0,0.0,-0.8061792850494385,0.5554366111755371
-0.0216833110898733,1.0764354467391968,-0.0121946223080158,-0.6164042353630066,-0.0069201234728097,0.0475640967488288,0.0,0.0,-0.8762920498847961,0.0080986022949218
-0.0217375755310058,1.0623451471328735,-0.0078010978177189,-0.6262267827987671,-0.004579225089401,0.0468180179595947,0.0,0.0,-0.7386135458946228,-0.0834521651268005
-0.0217487327754497,1.0480339527130127,-0.0034433696419,-0.6360493898391724,-0.0022750694770365,0.0460833273828029,0.0,0.0,-0.802232563495636,0.1614413261413574
-0.0217169765383005,1.0335017442703247,0.000876254751347,-0.6458719372749329,-7.020690190984169e-06,0.0453608408570289,0.0,0.0,-0.8719174265861511,-0.0565247535705566
-0.021642779931426,1.0187486410140991,0.0051554329693317,-0.6556944251060486,0.0022255349904298,0.0446512959897518,0.0,0.0,-0.8202912211418152,-0.2844307422637939
-0.021526526659727,1.003774642944336,0.0093917828053236,-0.6655169725418091,0.0044233063235878,0.0439555346965789,0.0,0.0,-0.914485514163971,0.1086853742599487
-0.0213687904179096,0.9885795712471008,0.0135828806087374,-0.6753394603729248,0.0065870168618857,0.0432742796838283,0.0,0.0,-0.9499169588088988,0.5257003307342529
-0.021131133660674,0.9731699824333192,0.022602692246437,-0.6848809123039246,0.0077401837334036,0.0230632536113262,0.0,0.0,-0.6081981658935547,0.6019799709320068
-0.0208029747009277,0.9575406312942504,0.0329533442854881,-0.6946366429328918,0.0076075498946011,-0.0026526395231485,0.0,0.0,-0.8334081172943115,-0.4188392758369446
-0.0204346664249897,0.9416902661323548,0.0369938127696514,-0.7044587731361389,0.0074432734400033,-0.003285473678261,0.0,0.0,-0.9078908562660216,-0.8202839493751526
-0.0200784690678119,0.925616443157196,0.0345046892762184,-0.7143954634666443,0.0085451127961277,0.0220366902649402,0.0,0.0,-0.871191680431366,0.0910816192626953
-0.0196832660585641,0.909321665763855,0.0384320691227912,-0.7242175936698914,0.0096171032637357,0.0214398447424173,0.0,0.0,-0.7001904845237732,0.2952016592025757
-0.0192498210817575,0.8928059935569763,0.0422990471124649,-0.7340397238731384,0.0106602106243371,0.0208620764315128,0.0,0.0,-0.7760065197944641,0.621452808380127
-0.0187325477600097,0.8760626912117004,0.0518622212111949,-0.7441484928131104,0.0105232801288366,-0.0027387351728975,0.0,0.0,-0.5480940341949463,-0.0153782963752746
-0.0181782729923725,0.8590982556343079,0.0556006245315074,-0.7539705038070679,0.0103594586253166,-0.003276449162513,0.0,0.0,-0.9062126874923706,-0.1139280200004577
-0.0175874717533588,0.8419129252433777,0.0592708773910999,-0.7637926340103149,0.0101697873324155,-0.0037933271378278,0.0,0.0,-0.8885893821716309,0.5522067546844482
-0.0169253349304199,0.8245130777359009,0.0673262029886245,-0.7733208537101746,0.0090619130060076,-0.0221573989838361,0.0,0.0,-0.8464129567146301,-0.6609195470809937
-0.0162921901792287,0.8068971633911133,0.0628412142395973,-0.7829321026802063,0.0095339426770806,0.0094405198469758,0.0,0.0,-0.5462386608123779,0.7963600158691406
-0.01556396484375,0.7890588641166687,0.0739226341247558,-0.7928077578544617,0.0084554618224501,-0.0215698573738336,0.0,0.0,-0.6993353366851807,-0.0716415047645568
-0.0148021699860692,0.7709994912147522,0.0772949904203414,-0.8026300072669983,0.007355491630733,-0.0219992101192474,0.0,0.0,-0.4191038608551025,-0.4253096580505371
-0.0140076633542776,0.7527191042900085,0.0805867761373519,-0.8124521970748901,0.0062351920641958,-0.0224060378968715,0.0,0.0,-0.6681017875671387,-0.8157953023910522
-0.0132340434938669,0.7342127561569214,0.0771679878234863,-0.822503924369812,0.0064234947785735,0.0037661530077457,0.0,0.0,-0.2749530076980591,0.4731245040893554
-0.0124294282868504,0.7154853343963623,0.0802917629480362,-0.8323259949684143,0.0065937265753746,0.0034047677181661,0.0,0.0,-0.151889681816101,-0.3576030135154724
-0.0115944864228367,0.6965370774269104,0.083328291773796,-0.8421480655670166,0.0067470204085111,0.0030660901684314,0.0,0.0,-0.3283682465553283,-0.6680443286895752
-0.0107915876433253,0.6773640513420105,0.0785913839936256,-0.8521369099617004,0.00842378847301,0.0335352048277854,0.0,0.0,0.0614075660705566,-0.1240360736846923
-0.0099041936919093,0.6587389707565308,0.0867747217416763,-0.8277931213378906,0.010365261696279,0.0388294756412506,0.0,0.0,-0.3192986249923706,0.319542646408081
-0.0089892391115427,0.6398929953575134,0.0895378366112709,-0.8376155495643616,0.012293173931539,0.0385582894086837,0.0,0.0,-0.0932391285896301,-0.0730224847793579
-0.0080477716401219,0.6208259463310242,0.0922063589096069,-0.8474379777908325,0.0142086204141378,0.0383092239499092,0.0,0.0,0.4635876417160034,0.2085572481155395
-0.0071579935029149,0.6025807857513428,0.0873618721961975,-0.8109185695648193,0.0158005803823471,0.0318392813205719,0.0,0.0,0.3707022666931152,-0.3521487712860107
-0.0062059401534497,0.5845763087272644,0.0934003442525863,-0.8002185821533203,0.0175787154585123,0.0355628281831741,0.0,0.0,0.2304444313049316,0.2466962337493896
-0.0053140642121434,0.5671324133872986,0.0877433568239212,-0.775303304195404,0.0190021432936191,0.028468657284975,0.0,0.0,-0.3424453735351562,-0.4158799648284912
-0.0043994905427098,0.5494675636291504,0.090020552277565,-0.7851256132125854,0.0204174071550369,0.0283051878213882,0.0,0.0,-0.0200589299201965,-0.6067011952400208
-0.0035094260238111,0.5315812230110168,0.0864092856645584,-0.7949866056442261,0.0229847598820924,0.0513471588492393,0.0,0.0,0.3007407188415527,-0.2487590909004211
-0.0025997161865234,0.5139473676681519,0.0883481055498123,-0.7837660908699036,0.0255744438618421,0.0517937764525413,0.0,0.0,0.5839602947235107,-0.0333508253097534
-0.0018033027881756,0.4969377517700195,0.0775675922632217,-0.7560182213783264,0.0276099108159542,0.0407096855342388,0.0,0.0,0.0527498722076416,0.1650789976119995
-0.0009897232521325,0.4805254936218261,0.0792413502931594,-0.7294755578041077,0.0297044888138771,0.0418915562331676,0.0,0.0,0.1253070831298828,0.1660712957382202
-0.0001083374008885,0.4641934633255005,0.0857499986886978,-0.7259188890457153,0.0320544466376304,0.046999342739582,0.0,0.0,-0.0441573858261108,-0.3662254214286804
0.0007896423339843,0.44764044880867,0.0874220877885818,-0.7357414364814758,0.0344020947813987,0.0469530150294303,0.0,0.0,0.2787748575210571,-0.3376666307449341
0.0016179084777832,0.431412011384964,0.0807961523532867,-0.7213119268417358,0.0364113897085189,0.0401856712996959,0.0,0.0,0.3747700452804565,-0.1640472412109375
0.0023640631698071,0.4158030748367309,0.0729408040642738,-0.693773090839386,0.0380666479468345,0.0331052467226982,0.0,0.0,0.2072799205780029,-0.0552313923835754
0.003129196120426,0.4006561636924743,0.0747261047363281,-0.6732444167137146,0.0398261994123458,0.0351911708712577,0.0,0.0,0.4324480295181274,-0.3438108563423157
0.0037663460243493,0.3863790929317474,0.0624516680836677,-0.6345723867416382,0.0410702340304851,0.0248808767646551,0.0,0.0,-0.150065004825592,-0.3624324202537536
0.0044152261689305,0.3718810081481933,0.063631422817707,-0.6443946361541748,0.0423162393271923,0.0249202493578195,0.0,0.0,-0.0006120204925537,-0.1326348185539245
0.0050749778747558,0.3571618795394897,0.0647165179252624,-0.6542168855667114,0.0435650274157524,0.0249753594398498,0.0,0.0,0.5240352153778076,-0.7591336369514465
0.005741405300796,0.3426638841629028,0.0637200400233268,-0.6444444060325623,0.0464484617114067,0.0576690733432769,0.0,0.0,0.4823838472366333,0.0147653818130493
0.0063744545914232,0.3283993005752563,0.0605086162686347,-0.6340690851211548,0.0492049902677536,0.0551307275891304,0.0,0.0,0.8946897983551025,0.3255183696746826
0.0069612502120435,0.3152759373188019,0.0559362359344959,-0.5833520293235779,0.0519220903515815,0.0543418824672699,0.0,0.0,0.5186333656311035,0.2479842901229858
0.0075900079682469,0.3030607402324676,0.0597757212817668,-0.5430092215538025,0.0549851208925247,0.0612603016197681,0.0,0.0,-0.1247351169586181,0.2466135025024414
0.0082252500578761,0.290624588727951,0.0604170374572277,-0.5528320074081421,0.0580544546246528,0.0613868907094001,0.0,0.0,0.4377980232238769,0.1387572288513183
0.0087369922548532,0.2783894836902618,0.0485906191170215,-0.5438854098320007,0.0606098994612693,0.051108818501234,0.0,0.0,0.5032607316970825,0.0070573091506958
0.0092466352507472,0.2670136988162994,0.0482089519500732,-0.5057037472724915,0.0633427053689956,0.0546561256051063,0.0,0.0,-0.0381677150726318,0.038008689880371
0.0097604747861623,0.255416989326477,0.048613253980875,-0.5155264735221863,0.0660836920142173,0.0548196546733379,0.0,0.0,0.1680067777633667,0.0225942134857177
0.0102073671296238,0.2443128377199173,0.0420955643057823,-0.4936350882053375,0.0686541199684143,0.0514085814356803,0.0,0.0,0.5963194370269775,0.3448296785354614
0.010599136352539,0.233997642993927,0.0366245917975902,-0.4585711658000946,0.0711803063750267,0.0505239367485046,0.0,0.0,0.4542874097824096,0.4399833679199219
0.0110330581665039,0.2242360413074493,0.040475033223629,-0.4339913427829742,0.0740713477134704,0.057820726186037,0.0,0.0,0.5623760223388672,0.2687896490097046
0.0114668849855661,0.2147402316331863,0.0403407514095306,-0.4221874177455902,0.0770763084292411,0.0600994415581226,0.0,0.0,0.7162344455718994,-0.010248839855194
0.011965274810791,0.2056602835655212,0.0463482066988945,-0.4037370979785919,0.0805377811193466,0.0692295208573341,0.0,0.0,0.6660904884338379,-0.4299006462097168
0.0125655177980661,0.1972385048866272,0.0558248236775398,-0.3745347261428833,0.0846967324614524,0.0831790715456008,0.0,0.0,0.6562906503677368,-0.3082590103149414
0.0132712367922067,0.1892046779394149,0.0657118707895279,-0.3573426306247711,0.089513711631298,0.0963392928242683,0.0,0.0,0.7303284406661987,-0.4867168068885803
0.0138998981565237,0.1821249276399612,0.0580245442688465,-0.3149555623531341,0.094315119087696,0.0960280001163482,0.0,0.0,0.8035686016082764,0.1605367660522461
0.0144829750061035,0.1760658621788025,0.0532944574952125,-0.2696174681186676,0.0992850139737129,0.0993978157639503,0.0,0.0,-0.020096480846405,0.6274018287658691
0.0151237491518259,0.1697972118854522,0.0605778321623802,-0.2788406610488891,0.1027570739388465,0.0694412738084793,0.0,0.0,0.4771580696105957,-0.3475393652915954
0.0158221237361431,0.1637572348117828,0.0659113824367523,-0.2687210440635681,0.1066591441631317,0.0780417472124099,0.0,0.0,0.0050207376480102,-0.9086095094680786
0.0163758285343647,0.1579384207725525,0.0495902858674526,-0.2590372860431671,0.1123978272080421,0.1147732958197593,0.0,0.0,-0.0115419030189514,0.4973708391189575
0.0169266704469919,0.1518990844488144,0.0492985174059867,-0.2688622772693634,0.118149884045124,0.1150411739945411,0.0,0.0,0.4872641563415527,-0.0982940196990966
0.0173931121826171,0.1463986188173294,0.0409534573554992,-0.2449264675378799,0.123818464577198,0.1133714094758033,0.0,0.0,-0.2020890712738037,-0.0294336080551147
0.0178563110530376,0.1406775861978531,0.0406070686876773,-0.2547513842582702,0.1295008361339569,0.1136473268270492,0.0,0.0,0.4990127086639404,0.0302356481552124
0.0183125492185354,0.1356932520866394,0.0395284704864025,-0.2220701873302459,0.135562464594841,0.1212324351072311,0.0,0.0,-0.3617491722106933,0.4849724769592285
0.0187648776918649,0.1304883360862732,0.0391419231891632,-0.2318954765796661,0.1416381597518921,0.1215141862630844,0.0,0.0,-0.2462252378463745,-0.2369346022605896
0.0192132946103811,0.1250628978013992,0.0387406423687934,-0.2417208105325698,0.1477280706167221,0.1217981204390525,0.0,0.0,0.1352907419204712,0.5282219648361206
0.0196301452815532,0.1199280098080635,0.0366727337241172,-0.2287255674600601,0.1527413129806518,0.1002646833658218,0.0,0.0,0.1728228330612182,-0.3861576318740845
0.0198962204158306,0.1151864379644393,0.0219564121216535,-0.2112201005220413,0.1573857963085174,0.0928892344236373,0.0,0.0,-0.1781011223793029,0.6486127376556396
0.0201962478458881,0.1102317199110984,0.0263193603605031,-0.2206033766269683,0.161071628332138,0.0737167745828628,0.0,0.0,0.2862640619277954,0.1201846599578857
0.0204838756471872,0.1059044897556305,0.0246818680316209,-0.1927706152200698,0.165153294801712,0.081633485853672,0.0,0.0,-0.4511704444885254,-0.7137777209281921
0.0207180976867675,0.1013379395008087,0.0180474985390901,-0.2035655379295349,0.1705368608236313,0.1076714247465133,0.0,0.0,-0.620696485042572,-0.14837646484375
0.020948315039277,0.0965508073568344,0.0176314990967512,-0.2133902013301849,0.1759347468614578,0.107957974076271,0.0,0.0,-0.2936552762985229,0.3370251655578613
0.0211745258420705,0.0915430858731269,0.0172251239418983,-0.2232148945331573,0.1813469380140304,0.1082432121038436,0.0,0.0,-0.1388726830482483,0.0981286764144897
0.0213968269526958,0.086314782500267,0.0168317034840583,-0.2330396026372909,0.186773270368576,0.1085266470909118,0.0,0.0,0.5384151935577393,0.8086075782775879
0.0216559413820505,0.0817011669278144,0.0219782292842865,-0.2055472582578659,0.1907140016555786,0.0788144767284393,0.0,0.0,0.0881227254867553,-0.2093850970268249
0.0218049045652151,0.0776574686169624,0.0109840678051114,-0.1802282333374023,0.1946466714143753,0.078653447329998,0.0,0.0,-0.735959529876709,0.5648374557495117
0.0219980236142873,0.0734121426939964,0.0166437178850173,-0.1890386193990707,0.1973410844802856,0.053887914866209,0.0,0.0,-0.1013996005058288,0.663366436958313
0.0222469326108694,0.0689600333571434,0.0237021837383508,-0.1980292797088623,0.198540523648262,0.0239886753261089,0.0,0.0,-0.0272175073623657,-0.0980930924415588
0.0224932674318552,0.0642870515584945,0.0234210938215255,-0.207851693034172,0.1997533440589904,0.0242567602545022,0.0,0.0,0.612128496170044,0.4033265113830566
0.0225147251039743,0.0600942224264144,0.0015051116934046,-0.1864325851202011,0.2003999501466751,0.0129319261759519,0.0,0.0,0.1774369478225708,0.5630331039428711
0.0224812515079975,0.0562789775431156,-0.0028504719957709,-0.1694998741149902,0.1998977810144424,-0.0100432690232992,0.0,0.0,0.1116087436676025,0.6171324253082275
0.0224418640136718,0.0527896732091903,-0.0022396582644432,-0.1548531800508499,0.1981964260339737,-0.0340271331369876,0.0,0.0,-0.2588968276977539,0.7583581209182739
0.0224738121032714,0.04909423366189,0.0067002871073782,-0.1637743264436721,0.194658413529396,-0.0707602947950363,0.0,0.0,0.0539953708648681,0.7579114437103271
0.0225492473691701,0.0458616353571414,0.0125230494886636,-0.1430259048938751,0.1896493583917617,-0.1001810431480407,0.0,0.0,-0.2025595903396606,0.5746984481811523
0.0226698871701955,0.0424271933734416,0.0182457603514194,-0.15186208486557,0.1834468096494674,-0.1240513697266578,0.0,0.0,-0.0398616790771484,0.3540935516357422
0.0227906219661235,0.038772378116846,0.0182467605918645,-0.1616875082254409,0.1772557199001312,-0.1238221302628517,0.0,0.0,0.5528304576873779,0.9398701190948486
