x_pos,y_pos,x_vel,y_vel,angle,ang_vel,leg_1,leg_2,main_booster,lat_booster
-0.0014646530617028,1.4031288623809814,-0.1483637690544128,-0.3462818562984466,0.0016962934751063,0.0334560349583625,0.0,0.0,-0.9275987782669076,0.7056451894050376
-0.0028098106849938,1.3948616981506348,-0.1346305012702942,-0.3674297332763672,0.0018044228199869,0.002163415774703,0.0,0.0,0.7818666206647558,-0.820006630406655
-0.0040023801848292,1.386746168136597,-0.121320866048336,-0.3606922328472137,0.0038442818913608,0.0408011153340339,0.0,0.0,0.9295260714925916,0.4197109394473703
-0.0052767754532396,1.3790093660354614,-0.1288089156150818,-0.3438653945922851,0.005198186263442,0.0270807407796382,0.0,0.0,0.4757340617971601,-0.5896811741643219
-0.0064157485030591,1.3716529607772827,-0.1167412996292114,-0.3269655108451843,0.0080116316676139,0.056273978203535,0.0,0.0,0.0596918186957491,0.6893411667493528
-0.0073431013152003,1.3643243312835691,-0.0943133980035781,-0.3257331848144531,0.0095657855272293,0.0310860238969326,0.0,0.0,0.004680176263776,-0.6801378105704551
-0.0082833291962742,1.3570255041122437,-0.0969391614198684,-0.3244077265262604,0.0124535970389842,0.0577612444758415,0.0,0.0,0.3153862067696238,-0.2374258777783009
-0.0090511320158839,1.3500059843063354,-0.0802787020802497,-0.312010645866394,0.0159148350358009,0.0692312493920326,0.0,0.0,0.6922175845039031,0.611768270833463
-0.0097378734499216,1.3437838554382324,-0.0709286406636238,-0.2765666842460632,0.018142145127058,0.0445503965020179,0.0,0.0,-0.7923416655561946,-0.901659970297602
-0.0104358671233057,1.337069749832153,-0.0738793388009071,-0.2984641492366791,0.0221772789955139,0.0807099044322967,0.0,0.0,-0.7935464108868762,0.3051156935835009
-0.0110739711672067,1.3298600912094116,-0.0679120942950248,-0.3204917013645172,0.0262350495904684,0.0811629742383956,0.0,0.0,-0.9672146106650814,0.8515018627626205
-0.0115771293640136,1.3221561908721924,-0.0525411143898963,-0.3424378931522369,0.0284362807869911,0.0440287366509437,0.0,0.0,-0.9834184766879884,0.378915880289562
-0.0120202060788869,1.3139567375183103,-0.0465756058692932,-0.3644698858261108,0.030672276392579,0.0447238944470882,0.0,0.0,0.9065311099086216,0.8494138064941781
-0.0122614856809377,1.3058750629425049,-0.0249079428613185,-0.3591975569725036,0.0314456224441528,0.0154685210436582,0.0,0.0,-0.1911782470137497,-0.9976025313789956
-0.0125032421201467,1.2973051071166992,-0.0265305154025554,-0.3809343576431274,0.0337776355445385,0.0466444417834281,0.0,0.0,-0.0014250850257728,-0.1760369887296666
-0.0126849170774221,1.2882397174835205,-0.0205843839794397,-0.4029640555381775,0.0361558720469474,0.0475694462656974,0.0,0.0,-0.273951947837159,-0.8351854965825649
-0.0128580089658498,1.2786856889724731,-0.021044623106718,-0.4247180819511413,0.0398631580173969,0.0741524249315261,0.0,0.0,0.5913551068057799,-0.2199621921988228
-0.0128484722226858,1.2691854238510132,-0.0034956526942551,-0.4223627746105194,0.0442677326500415,0.0880990996956825,0.0,0.0,-0.5319687775491586,-0.7275330587057254
-0.01282758731395,1.2591933012008667,-0.0036421145778149,-0.4442745447158813,0.0499411709606647,0.1134786009788513,0.0,0.0,0.2459676637295629,0.3514127720689454
-0.0128292087465524,1.2493408918380735,-0.0056601203978061,-0.4380798637866974,0.05539121478796,0.1090104356408119,0.0,0.0,-0.2840291909859391,-0.513033426868056
-999.0,1.2389941215515137,-0.0037872339598834,-0.460101306438446,0.0617091841995716,0.1263708174228668,0.0,0.0,0.1509474969522535,0.8156155926593598
-0.0126629825681447,1.2286159992218018,0.009212234057486,-0.4614583849906921,0.0664790570735931,0.0954059362411499,0.0,0.0,0.9970666060308688,-0.8604960636360345
-0.01240377407521,1.2187368869781494,0.0189503040164709,-0.4394040107727051,0.0733927935361862,0.1382869333028793,0.0,0.0,-0.5594939070467733,-0.9944390357567388
-0.0121541023254394,1.208343744277954,0.0161460600793361,-0.4623639285564422,0.0821300968527793,0.1747616082429886,0.0,0.0,-0.1172830448281694,0.9119199854563176
-0.0117908474057912,1.1974653005599976,0.0288470089435577,-0.4839099049568176,0.0895527973771095,0.1484677195549011,0.0,0.0,0.0499224501491548,0.0220691436032456
-0.0114995958283543,1.186726689338684,0.0219879038631916,-0.4777144193649292,0.0966250896453857,0.1414461582899093,0.0,0.0,-0.1188304414204752,0.3419734329049219
-0.0111495973542332,1.175493240356445,0.027794187888503,-0.4997489750385284,0.1037778109312057,0.1430542767047882,0.0,0.0,-0.3823366889642667,0.3409115367188859
-0.010740851983428,1.1637649536132812,0.0335784554481506,-0.5217836499214172,0.1110133081674575,0.1447099149227142,0.0,0.0,-0.5582342253475343,-0.0802340109647259
-0.0102738384157419,1.151541829109192,0.0393387712538242,-0.5438185334205627,0.1183338612318039,0.1464108973741531,0.0,0.0,-0.023108566408508,-0.4786600183445689
-0.0097486497834324,1.1388237476348877,0.0450730361044406,-0.5658536553382874,0.125741571187973,0.1481542587280273,0.0,0.0,0.284219776620751,-0.6815096704653737
-0.0092861177399754,1.1265912055969238,0.0373339168727397,-0.544455349445343,0.1346206963062286,0.1775826215744018,0.0,0.0,-0.8399776220321655,0.9671840667724608
-0.0086995121091604,1.1138715744018557,0.0513481870293617,-0.5659928917884827,0.1419107466936111,0.1458010226488113,0.0,0.0,-0.4156555533409118,0.9729454517364502
-0.0079907421022653,1.1006801128387451,0.0651582926511764,-0.5868397355079651,0.1476106196641922,0.1139975413680076,0.0,0.0,-0.3668663501739502,0.9541857242584229
-0.0071575166657567,1.0869998931884766,0.0792287141084671,-0.6084235906600952,0.1517032980918884,0.0818535163998603,0.0,0.0,-0.8889507055282593,0.9399893283843994
-0.0061923982575535,1.0728434324264526,0.0942518860101699,-0.6294039487838745,0.153959721326828,0.045128159224987,0.0,0.0,-0.8742690682411194,0.533278226852417
-0.0051285745576024,1.0582056045532229,0.1051253676414489,-0.6507019400596619,0.155212253332138,0.0250507891178131,0.0,0.0,-0.7127202153205872,0.7120112180709839
-0.0039554596878588,1.0430811643600464,0.1173205375671386,-0.6721962094306946,0.1552030891180038,-0.0001833944843383,0.0,0.0,-0.5235200524330139,-0.214782178401947
-0.0027271271683275,1.027461290359497,0.1227464526891708,-0.6942272186279297,0.155294269323349,0.0018235439201816,0.0,0.0,-0.5791898965835571,-0.5384078621864319
-0.0014893531333655,1.0113413333892822,0.1224292293190956,-0.7165829539299011,0.1566314846277237,0.0267446488142013,0.0,0.0,-0.4707233905792236,0.3957633972167969
-0.0001975059567485,0.9947258830070496,0.1277421712875366,-0.7386142015457153,0.1580715179443359,0.0288005918264389,0.0,0.0,-0.0798600912094116,0.8701317310333252
0.0012028694618493,0.9776357412338256,0.1399361193180084,-0.7595774531364441,0.1581784635782241,0.0021389031317085,0.0,0.0,0.4460407495498657,0.0307199954986572
0.0026906966231763,0.9607542753219604,0.1480688154697418,-0.7503622174263,0.1588901430368423,0.0142336664721369,0.0,0.0,0.07438325881958,-0.5499814748764038
0.0042253495194017,0.9436798095703124,0.1514364928007125,-0.7590831518173218,0.1609269082546234,0.0407348051667213,0.0,0.0,0.379148006439209,0.5057258605957031
0.0058686258271336,0.9267935156822203,0.1629781872034073,-0.7506528496742249,0.1622752845287323,0.0269675254821777,0.0,0.0,0.0917925834655761,0.9225751161575316
0.0075726509094238,0.909699022769928,0.1707982420921325,-0.7597158551216125,0.161891222000122,-0.0076812403276562,0.0,0.0,0.2590159177780151,0.1094921827316284
0.0093199731782078,0.8924943804740906,0.1748368591070175,-0.7646341919898987,0.1617781221866607,-0.0022620821837335,0.0,0.0,-0.1938387751579284,0.6559021472930908
0.011172485537827,0.874804675579071,0.1867051422595977,-0.7860525846481323,0.1603307276964187,-0.0289478302001953,0.0,0.0,-0.2740342617034912,-0.92567777633667
0.0129858013242483,0.8566085696220398,0.1804750114679336,-0.8088088631629944,0.1611874252557754,0.0171338226646184,0.0,0.0,-0.5348081588745117,0.5479850769042969
0.0148782730102539,0.8379299640655518,0.1891416311264038,-0.8301738500595093,0.1612976044416427,0.0022036260925233,0.0,0.0,-0.1464242935180664,-0.4656071662902832
0.0168160442262887,0.8187558054924011,0.1935496181249618,-0.8522051572799683,0.1615203768014907,0.0044553740881383,0.0,0.0,-0.3352094888687134,-0.848822295665741
0.0187471397221088,0.7990738749504089,0.1914923638105392,-0.87493497133255,0.1631513088941574,0.0326187387108802,0.0,0.0,0.3906011581420898,-0.7761327028274536
0.0205055233091115,0.7797911167144775,0.1726167500019073,-0.8573643565177917,0.1663719564676284,0.0644129961729049,0.0,0.0,-0.4847733974456787,0.4767360687255859
0.0223049167543649,0.7600132822990417,0.1766106486320495,-0.8793965578079224,0.1697077602148056,0.0667160078883171,0.0,0.0,0.8849666118621826,-0.3256318569183349
0.0239937789738178,0.7410866618156433,0.1654237806797027,-0.8415873050689697,0.1731763631105423,0.0693721175193786,0.0,0.0,0.7502214908599854,0.900019645690918
0.0258749015629291,0.7224881052970886,0.1860426962375641,-0.8268393278121948,0.1752439141273498,0.0413510724902153,0.0,0.0,-0.5011674761772156,0.229765772819519
0.0277920719236135,0.7033942341804504,0.189544603228569,-0.8488712310791016,0.1774291545152664,0.0437046699225902,0.0,0.0,0.175851821899414,0.2908293008804321
0.0297094341367483,0.6846603751182556,0.1891330480575561,-0.8329307436943054,0.180042415857315,0.0522649809718132,0.0,0.0,0.0714255571365356,0.4870214462280273
0.0316690430045127,0.6661006808280945,0.1928253918886184,-0.825256884098053,0.1831889897584915,0.0629312992095947,0.0,0.0,0.3843131065368652,0.7235677242279053
0.0336573608219623,0.6481050848960876,0.1969136744737625,-0.8000357747077942,0.1851088255643844,0.038396693766117,0.0,0.0,0.0225182771682739,-0.5158770680427551
0.0354925170540809,0.6303101181983948,0.1805465370416641,-0.7912622094154358,0.1880944818258285,0.0597129389643669,0.0,0.0,0.6523642539978027,0.9433603286743164
0.0374156944453716,0.6125946640968323,0.1910169273614883,-0.7875210642814636,0.1893898844718933,0.0259082075208425,0.0,0.0,0.6270583868026733,-0.6574516296386719
0.0390758514404296,0.5953599214553833,0.1635386794805526,-0.7663120627403259,0.1918879747390747,0.0499618351459503,0.0,0.0,0.8278970718383789,0.6553354263305664
0.040844440460205,0.5785276889801025,0.1751991808414459,-0.7483170032501221,0.1935569494962692,0.0333792939782142,0.0,0.0,0.6966919898986816,0.7072716951370239
0.0425921455025672,0.5621513724327087,0.1743386089801788,-0.7278895974159241,0.1939852386713028,0.0085658784955739,0.0,0.0,0.7995328903198242,-0.1738029718399047
0.0442811027169227,0.545924961566925,0.1683142632246017,-0.7212551832199097,0.194577544927597,0.0118462275713682,0.0,0.0,0.6870169639587402,0.4847514629364013
0.0457442291080951,0.5300545692443848,0.1461790204048156,-0.7053657174110413,0.1947103142738342,0.0026554528158158,0.0,0.0,0.6485625505447388,0.7577285766601562
0.0471351630985736,0.5149784684181213,0.1403042823076248,-0.669888436794281,0.1934858411550521,-0.0244892388582229,0.0,0.0,0.8046094179153442,0.2632286548614502
0.0485624298453331,0.4999031126499176,0.1434110105037689,-0.6699264645576477,0.1928024590015411,-0.0136676430702209,0.0,0.0,0.8870638608932495,0.2834024429321289
0.0498406402766704,0.48577681183815,0.1282325387001037,-0.6277816295623779,0.1923886090517044,-0.0082770800217986,0.0,0.0,0.5422496795654297,0.9938191175460817
0.0510187149047851,0.4717953503131866,0.1201615557074546,-0.6210935115814209,0.1900148838758468,-0.0474742576479911,0.0,0.0,0.3054574728012085,0.5462220907211304
0.052062414586544,0.4580988585948944,0.1078719720244407,-0.6082906126976013,0.1865021735429763,-0.0702544525265693,0.0,0.0,0.4945762157440185,0.8845758438110352
0.0531010627746582,0.4447669088840484,0.1089688763022422,-0.5918985605239868,0.1813790053129196,-0.1024633795022964,0.0,0.0,0.8969106674194336,-0.7193238139152527
0.053748033940792,0.4323196709156036,0.0686205402016639,-0.552734911441803,0.177445501089096,-0.0786702707409858,0.0,0.0,-0.2570654153823852,-0.4934056997299194
0.0543902404606342,0.419377326965332,0.0680137127637863,-0.5747678279876709,0.1736398041248321,-0.0761135965585708,0.0,0.0,-0.0166562795639038,0.2756490707397461
0.055025290697813,0.4059398174285888,0.0671728327870369,-0.5968005657196045,0.1699618548154831,-0.0735585689544677,0.0,0.0,0.8218493461608887,0.5439019203186035
0.0557119362056255,0.3925625383853912,0.0730751678347587,-0.5940483808517456,0.1655490100383758,-0.0882569998502731,0.0,0.0,0.7885403633117676,-0.3340295553207397
0.0562926307320594,0.3792253732681274,0.0625125244259834,-0.5922775864601135,0.1611051559448242,-0.0888770744204521,0.0,0.0,0.7861559391021729,0.0016164779663085
0.0567130073904991,0.366660475730896,0.0463997572660446,-0.5579737424850464,0.1567462533712387,-0.0871779173612594,0.0,0.0,0.3232744932174682,0.486762523651123
0.0570788383483886,0.3545834720134735,0.0405194200575351,-0.5363452434539795,0.1528101861476898,-0.078721210360527,0.0,0.0,0.7030744552612305,0.181572675704956
0.0571840293705463,0.3432340025901794,0.014879873022437,-0.5039820075035095,0.1484646201133728,-0.0869112759828567,0.0,0.0,-0.0073639750480651,0.3455084562301636
0.0572694763541221,0.331389307975769,0.0127653153613209,-0.5260148644447327,0.1442438513040542,-0.0844150707125663,0.0,0.0,-0.2438132762908935,0.7015292644500732
0.0573908798396587,0.319068431854248,0.0177612975239753,-0.5470597147941589,0.1386470943689346,-0.1119352132081985,0.0,0.0,0.4555521011352539,-0.5064812898635864
0.0572839751839637,0.3069774806499481,-0.0059697870165109,-0.5369428992271423,0.1339427530765533,-0.0940868258476257,0.0,0.0,0.2548930644989013,0.6977660655975342
0.0570911392569541,0.2951615154743194,-0.0132097471505403,-0.5246235728263855,0.1278988122940063,-0.1208788007497787,0.0,0.0,0.1420985460281372,-0.4480862617492676
0.0568016059696674,0.2835680842399597,-0.0229670275002717,-0.5147614479064941,0.1219369545578956,-0.119237020611763,0.0,0.0,0.2595654726028442,0.2224612236022949
0.0564955696463584,0.2721520960330963,-0.0250369310379028,-0.5069304704666138,0.1164015457034111,-0.1107081919908523,0.0,0.0,0.2293089628219604,0.5928184986114502
0.0561963096261024,0.2606264650821686,-0.0233139134943485,-0.5117527842521667,0.1098379343748092,-0.1312727034091949,0.0,0.0,0.150581955909729,0.262582778930664
0.0558992400765419,0.2490344643592834,-0.0235158279538154,-0.5147556662559509,0.103688858449459,-0.1229811757802963,0.0,0.0,0.7689602375030518,0.399221658706665
0.0556628219783306,0.2378841191530227,-0.0182882789522409,-0.4952104985713959,0.0983824878931045,-0.1061277389526367,0.0,0.0,0.8422472476959229,-0.1277271509170532
0.0555040352046489,0.2269179672002792,-0.0113656781613826,-0.4870966374874115,0.0939072296023368,-0.0895052701234817,0.0,0.0,0.6271264553070068,-0.2038598656654358
0.0552351959049701,0.2165606319904327,-0.0224504768848419,-0.4600531458854675,0.0895162150263786,-0.0878201574087143,0.0,0.0,0.797351598739624,0.6337165832519531
0.0549422279000282,0.2069573998451233,-0.0237964075058698,-0.4264920353889465,0.0840595662593841,-0.1091331094503402,0.0,0.0,0.6569466590881348,-0.2322189807891845
0.0546802505850791,0.1978746503591537,-0.0213788114488124,-0.40341517329216,0.0792865231633186,-0.0954610258340835,0.0,0.0,0.2416005134582519,-0.5072252750396729
0.0544031150639057,0.1886630803346634,-0.0241978578269481,-0.409220427274704,0.0758103057742118,-0.0695242285728454,0.0,0.0,0.3367184400558471,-0.1216390132904052
0.0540133491158485,0.1795675307512283,-0.0353737249970436,-0.4040674567222595,0.0722386911511421,-0.0714319348335266,0.0,0.0,0.8669739961624146,0.5638580322265625
0.0536589622497558,0.171457827091217,-0.0310775432735681,-0.3602249920368194,0.0679259896278381,-0.0862541943788528,0.0,0.0,0.6245311498641968,-0.7983468770980835
0.0531374923884868,0.1636809855699539,-0.0494460016489028,-0.3455182611942291,0.0652546808123588,-0.0534262470901012,0.0,0.0,-0.0264131426811218,0.1601860523223877
0.0525744445621967,0.1554086357355117,-0.0536966733634471,-0.3675490617752075,0.0626773312687873,-0.051547348499298,0.0,0.0,0.7001011371612549,0.7137972116470337
0.0520779602229595,0.1477339416742324,-0.0459085069596767,-0.3409448564052582,0.0589785538613796,-0.0739756077527999,0.0,0.0,0.6882288455963135,0.2370436191558838
0.0514387115836143,0.1407069712877273,-0.0600111968815326,-0.3121590316295624,0.0551155246794223,-0.077260747551918,0.0,0.0,0.2633290290832519,-0.1390247344970703
0.050661277025938,0.1340370029211044,-0.0736232176423072,-0.2962979972362518,0.0510460250079631,-0.0813898593187332,0.0,0.0,-0.4607350826263428,0.1072760820388794
0.0498397834599018,0.126871645450592,-0.0781162604689598,-0.3183294832706451,0.0470600873231887,-0.0797185748815536,0.0,0.0,-0.0071148872375488,0.2929457426071167
0.0489737503230571,0.1192108243703842,-0.0826589688658714,-0.3403608500957489,0.0431550703942775,-0.0781003162264823,0.0,0.0,-0.0497471094131469,0.5528242588043213
0.0480953231453895,0.1110555529594421,-0.0831298381090164,-0.3623289763927459,0.0385034531354904,-0.0930322259664535,0.0,0.0,0.38788902759552,0.2650882005691528
0.0472371093928813,0.1033149063587188,-0.0816068202257156,-0.343927651643753,0.0343390367925167,-0.0832884237170219,0.0,0.0,0.223941683769226,-0.0848499536514282
0.0463689789175987,0.0954909399151802,-0.082883819937706,-0.3476475179195404,0.0304578077048063,-0.0776245966553688,0.0,0.0,0.5536537170410156,-0.0987386703491211
0.0455690398812294,0.0882533416152,-0.0767744928598404,-0.3216071724891662,0.0272778682410717,-0.0635987594723701,0.0,0.0,0.2523912191390991,-0.043629765510559
-999.0,0.0814016908407211,-0.0847648382186889,-0.3044651448726654,0.0240854080766439,-0.0638489797711372,0.0,0.0,0.1666929721832275,0.3434661626815796
0.043848417699337,0.0749629586935043,-0.0813787728548049,-0.2861248254776001,0.0214241910725832,-0.0532242730259895,0.0,0.0,0.4700400829315185,-0.6791128516197205
0.0429702773690223,0.0688027441501617,-0.0866901651024818,-0.2737703323364258,0.0203190464526414,-0.0221028290688991,0.0,0.0,-0.0226145982742309,0.7279345989227295
0.0421014800667762,0.0621560178697109,-0.0843720734119415,-0.2953795790672302,0.0178430769592523,-0.0495193898677825,0.0,0.0,0.6599822044372559,-0.2405691742897033
0.0412318222224712,0.056202158331871,-0.0848049968481063,-0.264595091342926,0.0157067123800516,-0.0427271537482738,0.0,0.0,0.5820317268371582,0.2301399707794189
0.0403844825923442,0.0504128783941268,-0.0829898566007614,-0.2572833597660064,0.0139825055375695,-0.0344840362668037,0.0,0.0,0.4925439357757568,0.1448273658752441
0.0393707267940044,0.0449634902179241,-0.0991650372743606,-0.2421764284372329,0.0118000842630863,-0.0436483100056648,0.0,0.0,0.8209829330444336,0.7815876007080078
0.0382093414664268,0.0398659333586692,-0.1120864897966384,-0.2265338450670242,0.0077909114770591,-0.0801832526922226,0.0,0.0,0.8029305934906006,0.6283214092254639
0.0370190627872943,0.0351956002414226,-0.1136749386787414,-0.2075507640838623,0.0025167148560285,-0.1054838076233863,0.0,0.0,0.7027019262313843,0.0631555318832397
0.0358057990670204,0.0308547113090753,-0.1161556094884872,-0.1929270178079605,-0.0025873505510389,-0.1020814180374145,0.0,0.0,0.6309020519256592,0.667778491973877
0.0347381606698036,0.0265442226082086,-0.1006075143814086,-0.1916000843048095,-0.0086667584255337,-0.1215879470109939,0.0,0.0,0.6302800178527832,-0.795526385307312
0.0336711890995502,0.0227534398436546,-0.1023753508925437,-0.1685098707675933,-0.0129329888150095,-0.0853247120976448,0.0,0.0,0.438639760017395,-0.4276220798492431
0.0325864776968956,0.0195202678442001,-0.1042894721031189,-0.1437363028526306,-0.01705789193511,-0.082498088479042,0.0,0.0,-0.1474330425262451,0.3310589790344238
0.0314531326293945,0.0157917123287916,-0.1091929227113723,-0.1657674014568328,-0.0211441703140735,-0.0817255303263664,0.0,0.0,0.4083007574081421,-0.340924859046936
0.0303659439086914,0.0123541923239827,-0.1050081849098205,-0.1528362333774566,-0.0248066522181034,-0.0732496380805969,0.0,0.0,0.1986500024795532,0.2585465908050537
