x_pos,y_pos,x_vel,y_vel,angle,ang_vel,leg_1,leg_2,main_booster,lat_booster
-0.0015182495117187,1.4029483795166016,-0.1541692316532135,-0.3543022572994232,0.002101361984387,0.0414765737950801,0.0,0.0,0.067104697227478,0.7652449607849121
-0.0029349327087402,1.394767165184021,-0.1425859779119491,-0.3636137545108795,0.0030005294829607,0.0179857425391674,0.0,0.0,-0.0754429697990417,0.449460506439209
-0.0043503763154149,1.3859093189239502,-0.142783373594284,-0.3936925530433655,0.0042313584126532,0.0246188100427389,0.0,0.0,0.1268489360809326,0.919000506401062
-0.005791091825813,1.3768831491470337,-0.1437856256961822,-0.4011622965335846,0.0039448849856853,-0.0057299425825476,0.0,0.0,0.6303539276123047,0.7698758840560913
-0.0070363045670092,1.3681496381759644,-0.123306892812252,-0.3881545960903168,0.0027526039630174,-0.0238478351384401,0.0,0.0,0.3391194343566894,-0.0897765755653381
-0.0081758499145507,1.3594006299972534,-0.1136338710784912,-0.3888456225395202,0.0024247760884463,-0.0065571791492402,0.0,0.0,-0.0230811834335327,0.4621154069900512
-0.0093220714479684,1.349975347518921,-0.114622950553894,,0.0024292177986353,8.880493260221556e-05,0.0,0.0,0.2263641357421875,0.5414568185806274
-0.0103137018159031,1.3405966758728027,-0.0986864119768142,-0.4168343544006347,0.001957640517503,-0.0094324070960283,0.0,0.0,-0.7789765000343323,0.5233739614486694
-0.0112751964479684,1.3305474519729614,-0.0949769839644432,-0.4466325640678406,0.0008031910401768,-0.0230909846723079,0.0,0.0,-0.6311861872673035,0.251446008682251
-0.0122486110776662,1.319822072982788,-0.0965074449777603,-0.4766817092895508,-1.809892273740843e-05,-0.0164276175200939,0.0,0.0,0.4074493646621704,0.8163412809371948
-0.0130886081606149,1.309180736541748,-0.0819909274578094,-0.4729462563991546,-0.0020077317021787,-0.0397964008152484,0.0,0.0,-0.6489369869232178,-0.3300443291664123
-0.0139438631013035,1.2978631258010864,-0.0838504880666732,-0.5030043721199036,-0.003664695424959,-0.0331422910094261,0.0,0.0,-0.551767110824585,0.3701498508453369
-0.014815998263657,1.285869598388672,-0.085867203772068,-0.5330541133880615,-0.0049904133193194,-0.0265170484781265,0.0,0.0,0.0113321542739868,-0.598020076751709
-0.0157048217952251,1.2735202312469482,-0.0891399532556533,-0.5488566756248474,-0.0047360491007566,0.0050877137109637,0.0,0.0,-0.190024733543396,-0.2623215317726135
-0.016613483428955,1.2604947090148926,-0.0914532467722892,-0.5789113640785217,-0.004152818582952,0.0116656487807631,0.0,0.0,0.0206793546676635,0.1463656425476074
-0.0174747463315725,1.247067928314209,-0.0873744636774063,-0.5967369079589844,-0.0029225014150142,0.0246086306869983,0.0,0.0,-0.0760673284530639,-0.6030310988426208
-0.0183952338993549,1.2329723834991455,-0.0945588946342468,-0.6264706254005432,-0.0004424931539688,0.0496046990156173,0.0,0.0,0.2815574407577514,0.3310310840606689
-0.0192289352416992,1.2186365127563477,-0.0867233946919441,-0.6371496319770813,0.0028802177403122,0.0664600729942321,0.0,0.0,0.0100647211074829,0.1257612705230713
-0.0200295448303222,1.204361081123352,-0.0840274021029472,-0.6344769597053528,0.006803507450968,0.078472651541233,0.0,0.0,-0.4122874736785888,-0.0520749688148498
-0.0208561904728412,1.189409613609314,-0.0869586765766143,-0.664534866809845,0.0110474424436688,0.0848865434527397,0.0,0.0,-0.3113622665405273,0.236230731010437
-0.0217100139707326,1.173782467842102,-0.0899928361177444,-0.6945874691009521,0.0156096406280994,0.0912522077560424,0.0,0.0,0.1119393110275268,0.2763755321502685
-0.0225887298583984,1.157926082611084,-0.0928365811705589,-0.7047836780548096,0.0205238088965415,0.0982920005917549,0.0,0.0,-0.1992615461349487,0.7134678363800049
-0.0234278682619333,1.1413949728012085,-0.0874556750059127,-0.7347680330276489,0.024026408791542,0.0700581446290016,0.0,0.0,0.1568515300750732,0.8394508361816406
-0.0241789817810058,1.1245107650756836,-0.0773124396800994,-0.7504433989524841,0.026203790679574,0.0435515418648719,0.0,0.0,0.5610582828521729,0.0492339134216308
-0.0251108165830373,1.1078572273254397,-0.0950690954923629,-0.7401959300041199,0.0280640386044979,0.0372082367539405,0.0,0.0,0.6466972827911377,0.4318798780441284
-0.0262386314570903,1.0915520191192627,-0.1142873764038086,-0.7246978282928467,0.0295528676360845,0.0297768916934728,0.0,0.0,0.3689103126525879,0.6255655288696289
-0.0273634903132915,1.0754798650741575,-0.113035500049591,-0.714336097240448,0.0300992913544178,0.0109281484037637,0.0,0.0,-0.8712695240974426,0.0730648040771484
-0.0285211559385061,1.0587315559387207,-0.1166128516197204,-0.7443869709968567,0.0309356115758419,0.0167262610048055,0.0,0.0,-0.3221199512481689,0.4283317327499389
-0.0297122951596975,1.0413070917129517,-0.1202493533492088,-0.7744379043579102,0.0320555716753006,0.0223990902304649,0.0,0.0,-0.4414387941360473,0.0912516117095947
-0.0309375766664743,1.0232068300247192,-0.1239407286047935,-0.8044889569282532,0.0334523394703865,0.027934918180108,0.0,0.0,0.7065908908843994,0.8298523426055908
-0.03214006498456,1.0057553052902222,-0.1202930435538292,-0.775623619556427,0.0335045680403709,0.0010444584768265,0.0,0.0,-0.1604288220405578,-0.5471891760826111
-0.0334264747798442,0.9876222610473632,-0.1302067339420318,-0.805953323841095,0.0350473523139953,0.0308557208627462,0.0,0.0,0.6739742755889893,0.8091833591461182
-0.0348056778311729,0.9700368642807008,-0.1379398852586746,-0.78157639503479,0.0350654497742652,0.0003618756018113,0.0,0.0,-0.8250182271003723,0.3209176063537597
-0.0362211242318153,0.9517753720283508,-0.1418118923902511,-0.8116272687911987,0.0353263393044471,0.0052176648750901,0.0,0.0,-0.5784069895744324,0.3803780078887939
-0.0376733765006065,0.9328378438949584,-0.1457202434539795,-0.8416782021522522,0.0358197167515754,0.0098676150664687,0.0,0.0,0.8304734230041504,0.5901813507080078
-0.0391245856881141,0.9144884943962096,-0.1447179019451141,-0.8155125379562378,0.0354176126420497,-0.0080421138554811,0.0,0.0,-0.6005351543426514,-0.1073883175849914
-0.0406134612858295,0.8954632878303528,-0.1486895233392715,-0.8455634713172913,0.0352251529693603,-0.0038488577120006,0.0,0.0,0.5516135692596436,-0.072954773902893
-0.0421297065913677,0.8768354654312134,-0.1517983525991439,-0.8279047012329102,0.0353950932621955,0.003398788627237,0.0,0.0,0.5193233489990234,0.4306309223175049
-0.0437479019165039,0.8586912751197815,-0.1620082259178161,-0.8064113259315491,0.0355813130736351,0.0037242285907268,0.0,0.0,-0.115135371685028,0.8673213720321655
-0.0453330054879188,0.8398760557174683,-0.1570450365543365,-0.8361989855766296,0.0341308005154132,-0.0290101524442434,0.0,0.0,0.7521073818206787,0.462894082069397
-0.0470985397696495,0.8216168284416199,-0.1747111827135086,-0.8114781975746155,0.0323113463819026,-0.0363890938460826,0.0,0.0,0.0169934034347534,0.1061011552810669
-0.048837948590517,0.803168535232544,-0.1725946962833404,-0.819901168346405,0.0309828389436006,-0.0265702195465564,0.0,0.0,0.4855555295944214,0.9173409938812256
-0.0504539497196674,0.7844647765159607,-0.1586460173130035,-0.8312212824821472,0.0280640237033367,-0.0583762414753437,0.0,0.0,0.5565100908279419,-0.3454194068908691
-0.0520304664969444,0.7658356428146362,-0.1552375704050064,-0.8279168009757996,0.0256847906857728,-0.0475847423076629,0.0,0.0,0.6785293817520142,0.9824256896972656
-0.0536234863102436,0.7469687461853027,-0.1549440920352935,-0.8384568691253662,0.0213833935558795,-0.0860278233885765,0.0,0.0,0.9617282152175904,0.2598700523376465
-0.0552108772099018,0.7280229330062866,-0.1547189652919769,-0.8419893383979797,0.0174067821353673,-0.0795322880148887,0.0,0.0,0.8947300910949707,0.6646027565002441
-0.0567201599478721,0.7091695070266724,-0.145803228020668,-0.8378786444664001,0.0123531445860862,-0.1010725647211074,0.0,0.0,0.912266492843628,0.5668587684631348
-0.0583759322762489,0.6910922527313232,-0.1589539945125579,-0.8033924698829651,0.0058173714205622,-0.1307156234979629,0.0,0.0,0.1702195405960083,0.774960994720459
-0.060122299939394,0.6731833815574646,-0.1663749366998672,-0.795937716960907,-0.00233592139557,-0.1630659997463226,0.0,0.0,0.4694664478302002,0.6822147369384766
-0.0618756301701068,0.6552760004997253,-0.1656648069620132,-0.7959285378456116,-0.011884213425219,-0.1909659057855606,0.0,0.0,-0.324034571647644,0.0609140396118164
-0.0636705383658409,0.6366937756538391,-0.1698023527860641,-0.8259862661361694,-0.0214491263031959,-0.1912983208894729,0.0,0.0,0.8695416450500488,-0.4574757814407348
-0.0655544251203537,0.6186889410018921,-0.1783550083637237,-0.8003921508789062,-0.0313496068120002,-0.1980096399784088,0.0,0.0,0.1431524753570556,0.0001634359359741
-0.067394733428955,0.6004669070243835,-0.1743133962154388,-0.8101040720939636,-0.0409514978528022,-0.1920377314090728,0.0,0.0,0.9060986042022704,-0.0257076025009155
-0.0692355185747146,0.5829489827156067,-0.1743148118257522,-0.7788693904876709,-0.0506044179201126,-0.1930584013462066,0.0,0.0,0.2524759769439697,-0.5323771834373474
-0.0710185021162033,0.5653016567230225,-0.1697861403226852,-0.7846355438232422,-0.0590222440659999,-0.1683561503887176,0.0,0.0,0.9849346876144408,-0.5418549180030823
-0.0729743987321853,0.5478390455245972,-0.1877059191465377,-0.7764486074447632,-0.0668219700455665,-0.1559944450855255,0.0,0.0,0.5792909860610962,0.3652626276016235
-0.0748318657279014,0.5308323502540588,-0.1781632453203201,-0.7562091946601868,-0.0743209198117256,-0.1499792635440826,0.0,0.0,-0.0655227899551391,0.3332725763320923
-0.0767313987016677,0.5131503939628601,-0.1822439730167389,-0.7862648367881775,-0.0819491073489189,-0.1525636911392212,0.0,0.0,0.99863600730896,0.3580327033996582
-0.0785012245178222,0.4962711334228515,-0.1695669889450073,-0.7506133317947388,-0.0893021002411842,-0.1470600366592407,0.0,0.0,0.5573165416717529,0.590407133102417
-0.0802776366472244,0.4798326194286346,-0.1686921715736389,-0.7311561107635498,-0.098169095814228,-0.177340418100357,0.0,0.0,0.7521979808807373,0.0668867826461792
-0.0820034965872764,0.4632975459098816,-0.1637232303619384,-0.7354957461357117,-0.1069528833031654,-0.1756760030984878,0.0,0.0,0.6516915559768677,0.063984990119934
-0.0837958306074142,0.4471496343612671,-0.1697476655244827,-0.7183918356895447,-0.1163798049092292,-0.1885384172201156,0.0,0.0,0.427606463432312,0.9253227710723876
-0.085384652018547,0.4309568405151367,-0.1474631130695343,-0.720608115196228,-0.1277294754981994,-0.2269934862852096,0.0,0.0,0.1172211170196533,-0.6801583766937256
-0.0869974121451377,0.4147143065929413,-0.1510716825723648,-0.7227970361709595,-0.1378999054431915,-0.2034085094928741,0.0,0.0,0.3931837081909179,-0.0625596046447753
-0.0885987281799316,0.3982983231544494,-0.1497438848018646,-0.7305948138237,-0.1482492089271545,-0.2069861888885498,0.0,0.0,0.7599046230316162,-0.7397710680961609
-0.0903482437133789,0.3821871280670166,-0.1655447781085968,-0.7170173525810242,-0.1576427668333053,-0.1878715008497238,0.0,0.0,0.8154866695404053,-0.57445228099823
-0.0920103043317794,0.366805762052536,-0.1578075736761093,-0.6845263838768005,-0.1660409718751907,-0.1679640710353851,0.0,0.0,0.7528846263885498,-0.7502101063728333
-0.0936275497078895,0.3511909246444702,-0.1547917425632476,-0.6947834491729736,-0.172977477312088,-0.1387304365634918,0.0,0.0,0.8421759605407715,-0.7675147652626038
-0.0951476097106933,0.3363234102725982,-0.1464682668447494,-0.6614352464675903,-0.1785407215356826,-0.1112647652626037,0.0,0.0,0.7889121770858765,-0.7908250093460083
-0.0967888832092285,0.3215802907943725,-0.1596875637769699,-0.6557912826538086,-0.1829910278320312,-0.0890061259269714,0.0,0.0,0.9788210391998292,0.18720543384552
-0.0984306335449218,0.3073880970478058,-0.1589857637882232,-0.6314107775688171,-0.1882030218839645,-0.1042401045560836,0.0,0.0,0.887864351272583,-0.8430717587471008
-0.1000062972307205,0.2935780882835388,-0.1538845002651214,-0.6142523884773254,-0.1919042319059372,-0.0740243420004844,0.0,0.0,0.9331612586975098,0.6518900394439697
-0.1015399917960167,0.2805866003036499,-0.1477197259664535,-0.5781405568122864,-0.1975900530815124,-0.1137166991829872,0.0,0.0,0.8233568668365479,0.0125861167907714
-0.1029079407453537,0.2678336799144745,-0.1312564015388488,-0.5675483345985413,-0.2031687945127487,-0.111574612557888,0.0,0.0,0.8902707099914551,-0.3951724767684936
-0.1042618751525878,0.2550747990608215,-0.1294112652540207,-0.5678939819335938,-0.2091982364654541,-0.1205891743302345,0.0,0.0,0.8614997863769531,-0.3951386213302612
-0.1055027991533279,0.2421546280384063,-0.1181965917348861,-0.5750781893730164,-0.2151495069265365,-0.1190257295966148,0.0,0.0,0.9912328720092772,-0.939230501651764
-0.1068087592720985,0.2291869074106216,-0.1262192279100418,-0.5769850611686707,-0.2195746004581451,-0.0885017588734626,0.0,0.0,0.9972057342529296,-0.7093937993049622
-0.1080072373151779,0.21697598695755,-0.1165864095091819,-0.5431975722312927,-0.2228767573833465,-0.0660431534051895,0.0,0.0,0.9978890419006348,-0.6296378970146179
-0.1089709252119064,0.2055213004350662,-0.0943578779697418,-0.5094025731086731,-0.2249131947755813,-0.0407286994159221,0.0,0.0,0.9817686080932616,-0.2681595087051391
-0.1098832115530967,0.1948700696229934,-0.088320754468441,-0.4738370180130005,-0.227861687541008,-0.058969922363758,0.0,0.0,0.9777657985687256,-0.7840739488601685
-0.1109668761491775,0.1841931641101837,-0.1063479036092758,-0.4748452603816986,-0.2299055010080337,-0.0408761501312255,0.0,0.0,0.9822776317596436,-0.8983895182609558
-0.1118852645158767,0.1742400974035263,-0.0914292484521865,-0.4424237310886383,-0.2303239703178405,-0.0083697270601987,0.0,0.0,0.7812163829803467,-0.7611594796180725
-0.1128710731863975,0.1645792871713638,-0.0991421788930893,-0.4292811155319214,-0.229752168059349,0.0114359119907021,0.0,0.0,0.8381376266479492,-0.5700929164886475
-0.1138256043195724,0.155384674668312,-0.0966824293136596,-0.4084589183330536,-0.228505939245224,0.0249247048050165,0.0,0.0,0.8269822597503662,-0.2832137942314148
-0.1146509200334549,0.1466491073369979,-0.0834011062979698,-0.3881133794784546,-0.2276220470666885,0.0176777467131614,0.0,0.0,0.7409986257553101,-0.6217278242111206
-0.1153215393424034,0.1381173878908157,-0.069114826619625,-0.3788691163063049,-0.225544586777687,0.041549164801836,0.0,0.0,0.7559909820556641,-0.7829702496528625
-0.1159770041704177,0.1294464915990829,-0.0689014345407486,-0.3848635852336883,-0.2221460938453674,0.0679699927568435,0.0,0.0,0.8717905282974243,-0.3224979043006897
-0.1164603233337402,0.1207332462072372,-0.0518731065094471,-0.3867273926734924,-0.2185679674148559,0.0715626701712608,0.0,0.0,0.9165228605270386,-0.5376924872398376
-0.1166949272155761,0.1122697666287422,-0.0282883886247873,-0.3754476606845855,-0.2136906087398529,0.0975471511483192,0.0,0.0,0.9548674821853638,-0.19125896692276
-0.1166987419128418,0.1037630140781402,-0.0056689945049583,-0.3773251473903656,-0.2083598971366882,0.1066146492958068,0.0,0.0,0.90815007686615,-0.1556775569915771
-0.1165581718087196,0.0958566516637802,0.0091082202270627,-0.3507030308246612,-0.203370526432991,0.0997873172163963,0.0,0.0,0.921765685081482,-0.6836650967597961
-0.1162814125418663,0.0885813534259796,0.0215701647102832,-0.3225187659263611,-0.1972198635339737,0.1230132579803466,0.0,0.0,0.8381757736206055,-0.2366636395454406
-0.1157504096627235,0.0816822871565818,0.0466657802462577,-0.3057828247547149,-0.1907419115304947,0.1295591741800308,0.0,0.0,0.7800248861312866,-0.05222749710083
-0.1150721535086631,0.074595533311367,0.0611870773136615,-0.3141287267208099,-0.1840761452913284,0.1333152949810028,0.0,0.0,0.7986276149749756,0.579204797744751
-0.1143332496285438,0.067653976380825,0.0688860416412353,-0.3079003095626831,-0.1790526807308197,0.1004691570997238,0.0,0.0,0.7491559982299805,0.1036661863327026
-0.1133679375052452,0.061361726373434,0.0914163589477539,-0.2790486216545105,-0.1739318072795868,0.1024174466729164,0.0,0.0,0.1706891059875488,-0.4511198997497558
-0.1123729720711708,0.0549945197999477,0.0947875156998634,-0.2824440002441406,-0.1692054718732834,0.0945267304778099,0.0,0.0,0.7301769256591797,-0.4295679926872253
-0.1113888770341873,0.0492167584598064,0.0946054086089134,-0.2563605010509491,-0.1654010713100433,0.0760879963636398,0.0,0.0,0.8437247276306152,-0.467232882976532
-0.1102027893066406,0.0438920371234416,0.1146806851029396,-0.2362230718135833,-0.161467432975769,0.0786728113889694,0.0,0.0,0.8164713382720947,-0.9429491758346558
-0.1090425476431846,0.0391538962721824,0.1106235831975936,-0.2100074589252472,-0.1560674458742141,0.1079998239874839,0.0,0.0,0.4970036745071411,-0.7987907528877258
-0.1079413443803787,0.034785971045494,0.1035562977194786,-0.1934548169374466,-0.1495147347450256,0.1310542374849319,0.0,0.0,0.4057388305664062,-0.3686944246292114
-0.1068172454833984,0.030376348644495,0.1062597781419754,-0.1953803896903991,-0.1433825492858886,0.1226436495780944,0.0,0.0,0.392285943031311,-0.3249961137771606
-0.1057365387678146,0.0260650739073753,0.1027034670114517,-0.1911041140556335,-0.1380285322666168,0.1070802211761474,0.0,0.0,0.5001764297485352,-0.7655574679374695
-0.1048183441162109,0.0218274686485528,0.0854852125048637,-0.1877665072679519,-0.1317193061113357,0.126184731721878,0.0,0.0,0.5411891937255859,0.5123748779296875
-0.1036832779645919,0.0178856942802667,0.1082385331392288,-0.174735277891159,-0.1264799982309341,0.104786142706871,0.0,0.0,0.753696084022522,-0.4301059246063232
-0.1024500876665115,0.0138391349464654,0.1180775165557861,-0.1794112473726272,-0.1212648972868919,0.1043021082878112,0.0,0.0,0.7921003103256226,-0.444523811340332
-0.1008872985839843,0.0110610099509358,0.1323189586400985,-0.1216994747519493,-0.0974765717983245,0.4757662713527679,1.0,0.0,0.3850570917129516,-0.6470458507537842
-0.0993323326110839,0.0086017819121479,0.1302227079868316,-0.1078416109085083,-0.0724371671676635,0.5007884502410889,1.0,0.0,0.2732555866241455,-0.2386958003044128
-0.0976196303963661,0.0064482544548809,0.1454381644725799,-0.0946622118353843,-0.0468902215361595,0.5109391212463379,0.0,0.0,0.4455102682113647,-0.0761276483535766
-0.0958303436636924,0.004382595885545,0.1530808508396148,-0.0911960750818252,-0.0213621631264686,0.5105613470077515,0.0,0.0,0.7274341583251953,-0.263368010520935
-0.0940435379743576,0.0029299117159098,0.1531841158866882,-0.0643916651606559,0.0038028338458389,0.5033004283905029,0.0,0.0,-0.3397001028060913,-0.4990690946578979
-0.0922693237662315,0.0008094286895357,0.1522647887468338,-0.0944947525858879,0.0286393240094184,0.4967299997806549,0.0,1.0,0.2688559293746948,0.9689016342163086
-0.0905181914567947,-0.0010132575407624,0.1665339469909668,-0.0813328549265861,0.0365629531443119,0.1577602624893188,0.0,1.0,-0.9327681064605712,0.3775856494903564
-0.0890028923749923,-0.0029685520566999,0.1630721986293792,-0.0866614356637001,0.0251476615667343,-0.2283218652009964,0.0,1.0,-0.0107995867729187,-0.0857509970664978
-0.087684154510498,-0.0051273014396429,0.1601618379354477,-0.0957159250974655,-0.002814067993313,-0.5592845678329468,1.0,1.0,0.2962878942489624,-0.9386838674545288
-0.0867917984724044,-0.006140031851828,0.1126414760947227,-0.0457123592495918,-0.0241293124854564,-0.4240321218967438,1.0,1.0,-0.2542371749877929,-0.9532842636108398
-0.0859522819519043,-0.0069220922887325,0.0951448380947113,-0.0349809080362319,-0.0351959690451622,-0.2213453352451324,0.0,1.0,-0.3708807826042175,-0.1210467219352722
-0.0851489081978797,-0.0074082873761653,0.0858770161867141,-0.0217499714344739,-0.0406790263950824,-0.10967268794775,0.0,1.0,-0.6679277420043945,-0.1119583845138549
-0.0844130516052246,-0.0075367833487689,0.0761237516999244,-0.005784548819065,-0.043194942176342,-0.0503291487693786,0.0,1.0,-0.7594115734100342,-0.0802751183509826
-0.0837643593549728,-0.0072675608098506,0.0660579353570938,0.0119290947914123,-0.0443783551454544,-0.0236760191619396,0.0,1.0,-0.7670244574546814,-0.0515505671501159
-0.0831533446907997,-0.0067393803037703,0.0571265593171119,0.0235889218747615,-0.0404481701552867,0.0785955786705017,0.0,1.0,-0.9496124982833862,0.4121670722961426
