x_pos,y_pos,x_vel,y_vel,angle,ang_vel,leg_1,leg_2,main_booster,lat_booster
-0.0014859199291095,1.4033030271530151,-0.1505161523818969,-0.3385365903377533,0.0017273237463086,0.0340705662965774,0.0,0.0,-0.7596462703932934,-0.6961860620711886
-0.0029839514754712,1.3953843116760254,-0.1527574211359024,-0.3519528210163116,0.0046487944200634,0.0584353730082511,0.0,0.0,0.7087086081291729,0.953017726089108
-0.0042162896133959,1.3877650499343872,-0.1245142817497253,-0.3386388123035431,0.0059103905223309,0.0252344701439142,0.0,0.0,-0.3710921041057562,-0.6362273816978938
-0.0054705617949366,1.379821538925171,-0.1282043755054474,-0.3530552983283996,0.008658729493618,0.0549719147384166,0.0,0.0,0.0496369632723086,0.7764734608708279
-0.0065343854948878,1.3721826076507568,-0.1076527461409568,-0.3395137190818786,0.0099124414846301,0.0250766072422266,0.0,0.0,-0.7623040731023727,-0.5710392741547876
-0.0075948713347315,1.3642208576202393,-0.1081892699003219,-0.3538699746131897,0.0120187420397996,0.0421299301087856,0.0,0.0,-0.0233447867956295,0.6108369841967018
-0.0085713388398289,1.3559387922286987,-0.0985732600092887,-0.3681070506572723,0.0129383746534585,0.01839454844594,0.0,0.0,-0.6112520701020596,-0.9097460591892856
-0.0095637319609522,1.3473366498947144,-0.101525105535984,-0.3823338150978088,0.0151919601485133,0.0450757779181003,0.0,0.0,-0.739453260124828,-0.9161247025071336
-0.0105921747162938,1.3384215831756592,-0.1069649830460548,-0.3962711989879608,0.0192723162472248,0.0816148072481155,0.0,0.0,-0.1420821259463207,0.5808561791079433
-0.0115372659638524,1.329190373420715,-0.0974495261907577,-0.4103237390518188,0.0221794359385967,0.0581476800143718,0.0,0.0,-0.4719476409222121,-0.8815779986910318
-0.0125043867155909,1.319636344909668,-0.1011328697204589,-0.4246929883956909,0.0265615973621606,0.0876509994268417,0.0,0.0,-0.4925310931867008,0.5637469107219377
-0.0133843421936035,1.3097620010375977,-0.0911338478326797,-0.4389220476150512,0.0296706836670637,0.0621869675815105,0.0,0.0,-0.3485345210764643,-0.7632508946958212
-0.0142740253359079,1.2995681762695312,-0.0932914763689041,-0.4531526565551758,0.03394291177392,0.0854525044560432,0.0,0.0,-0.2984905651404872,0.7377527844326326
-0.0150614734739065,1.289049506187439,-0.081394612789154,-0.4675613641738891,0.0365600660443306,0.0523477904498577,0.0,0.0,0.1904359879258075,-0.6717232165128568
-0.0157727245241403,1.2791099548339844,-0.0752512067556381,-0.441853255033493,0.0406528897583484,0.0818638056516647,0.0,0.0,-0.3533393273271266,0.6298096170040587
-0.016387939453125,1.268845558166504,-0.0641427189111709,-0.456276923418045,0.043243683874607,0.0518206059932708,0.0,0.0,0.7511408743805004,0.900618583201779
-0.0167725570499897,1.2596440315246582,-0.0395267084240913,-0.408986359834671,0.0442982092499733,0.0210924111306667,0.0,0.0,0.9637683659419544,0.678872213678017
-0.0169045440852642,1.250798225402832,-0.0133573217317461,-0.3931561708450317,0.0444561131298542,0.0031580161303281,0.0,0.0,-0.3085476989206401,-0.5105881452532177
-0.017033863812685,1.2416332960128784,-0.0139236850664019,-0.4073542356491089,0.0454392172396183,0.0196639895439147,0.0,0.0,-0.2352838579680811,0.7609393394586486
-0.0170746799558401,1.2321504354476929,-0.0037313986103981,-0.4214563965797424,0.0450874976813793,-0.0070348307490348,0.0,0.0,-0.5830033504356957,-0.8244365035931139
-0.0171308517456054,1.22234845161438,-0.006538338959217,-0.435668796300888,0.0460022203624248,0.0182958953082561,0.0,0.0,-0.7024755123583539,0.7461450627015459
-0.017090892419219,1.2122249603271484,0.0046298932284116,-0.4499114155769348,0.0453795120120048,-0.0124552501365542,0.0,0.0,-0.2215045354020071,0.994535420627735
-0.0169196128845214,1.2017853260040283,0.0202128551900386,-0.4638960659503937,0.0423291735351085,-0.0610124468803405,0.0,0.0,-0.8093403470345437,-0.618546204833471
-0.0167558677494525,1.191014528274536,0.0183877851814031,-0.4786414206027984,0.0403432063758373,-0.0397228822112083,0.0,0.0,0.5279318180166703,-0.6131458344527007
-0.0167720802128314,1.1808044910430908,-0.0004997426876798,-0.4537429511547088,0.0392293334007263,-0.0222795307636261,0.0,0.0,0.5299827296072939,0.9508673044717008
-0.0168564803898334,1.171229600906372,-0.0052094710990786,-0.4254757463932037,0.0360314324498176,-0.063957929611206,0.0,0.0,0.476227130092985,-0.84508618587034
-0.0169931408017873,1.1623079776763916,-0.0120996544137597,-0.3964733183383941,0.0344938263297081,-0.0307521037757396,0.0,0.0,0.2562236833112592,0.9976655499667322
-0.0171549804508686,1.1540143489837646,-0.0125721488147974,-0.3685268759727478,0.0309164728969335,-0.0715470686554908,0.0,0.0,0.288061349613623,0.9206342565625604
-0.0173468589782714,1.146310567855835,-0.0136048765853047,-0.3422856032848358,0.02540866099298,-0.1101564392447471,0.0,0.0,0.2127000614823542,0.872165395592431
-0.0174633972346782,1.138821363449097,-0.0042850477620959,-0.3327497243881225,0.0181314460933208,-0.1455443203449249,0.0,0.0,0.7091609005378583,0.7331331864391494
-0.0174841880798339,1.132335543632507,0.0067540882155299,-0.288176953792572,0.0094160083681344,-0.1743087172508239,0.0,0.0,-0.9956667423248292,-0.1914926171302795
-0.0174728389829397,1.125529408454895,0.0099835116416215,-0.3024674654006958,0.0006771232001483,-0.1747777760028839,0.0,0.0,-0.9974746108055116,-0.6985008716583252
-0.0174929611384868,1.1184091567993164,0.0052663017995655,-0.3164701163768768,-0.0065054618753492,-0.1436517387628555,0.0,0.0,-0.992944061756134,0.0250049829483032
-0.0174821857362985,1.1109682321548462,0.0083709862083196,-0.3307586312294006,-0.0137106841430068,-0.1441043764352798,0.0,0.0,-0.9740466475486756,-0.3078030347824096
-0.0174413677304983,1.1032066345214844,0.0114056961610913,-0.3450472056865692,-0.0209380518645048,-0.1445473134517669,0.0,0.0,-0.9923847913742064,-0.327488899230957
-0.0173711776733398,1.0951242446899414,0.0143649084493517,-0.3593358397483825,-0.0281870514154434,-0.1449798792600631,0.0,0.0,-0.96437269449234,-0.7516949772834778
-0.0173344612121582,1.0867197513580322,0.0094496300444006,-0.3736491501331329,-0.0338973067700862,-0.1142052263021469,0.0,0.0,-0.9592905044555664,-0.8096604943275452
-0.0173298828303813,1.0780035257339478,0.004727313760668,-0.3874891996383667,-0.0381186306476593,-0.0844265669584274,0.0,0.0,-0.9876301288604736,0.155286431312561
-0.0172986034303903,1.0689661502838137,0.0074237948283553,-0.401774913072586,-0.0423597954213619,-0.0848234668374061,0.0,0.0,-0.8363432884216309,-0.2859306335449219
-0.0172415729612112,1.0596076250076294,0.0100194895640015,-0.4160607159137726,-0.0466201268136501,-0.0852065160870552,0.0,0.0,-0.9578607678413392,-0.4726220369338989
-0.0171598438173532,1.0499279499053955,0.0125073241069912,-0.4303464889526367,-0.050898864865303,-0.0855747684836387,0.0,0.0,-0.9448018670082092,-0.7014700770378113
-0.0170986168086528,1.039928913116455,0.0093442108482122,-0.4445149600505829,-0.0540858022868633,-0.063738539814949,0.0,0.0,-0.946768581867218,-0.3409014940261841
-0.0170149803161621,1.0296086072921753,0.0115942461416125,-0.4588000476360321,-0.0572895184159278,-0.0640741735696792,0.0,0.0,-0.9791681170463562,-0.9511126279830932
-0.0169732086360454,1.0189704895019531,0.0058326227590441,-0.4728706181049347,-0.0589287243783474,-0.03278399258852,0.0,0.0,-0.953719437122345,-0.8112886548042297
-0.0169806480407714,1.008007526397705,-0.0008077095262706,-0.4872443079948425,-0.0588611997663974,0.001350236358121,0.0,0.0,-0.9719747304916382,-0.3923196792602539
-0.0169697757810354,0.9967228770256042,0.0010282424045726,-0.5015285611152649,-0.0588076412677764,0.0010712628718465,0.0,0.0,-0.975310742855072,-0.2261267304420471
-0.01694231107831,0.9851171374320984,0.0027107805944979,-0.515812873840332,-0.0587669648230075,0.0008132591028697,0.0,0.0,-0.9872378706932068,-0.2742625474929809
-0.0168996807187795,0.9731900095939636,0.0042324541136622,-0.5300971269607544,-0.0587380938231945,0.0005773153388872,0.0,0.0,-0.9950615167617798,-0.17010498046875
-0.0168436057865619,0.9609413743019104,0.0055861077271401,-0.544381320476532,-0.0587198846042156,0.0003643068484961,0.0,0.0,-0.9676873683929444,-0.075935423374176
-0.0167758949100971,0.9483714699745178,0.0067649902775883,-0.5586655139923096,-0.0587111115455627,0.0001752587559167,0.0,0.0,-0.9700868725776672,0.0525590181350708
-0.0166982654482126,0.9354801177978516,0.0077628633007407,-0.5729497075080872,-0.0587105564773082,1.10018427221803e-05,0.0,0.0,-0.9702537655830384,-0.7817588448524475
-0.0166800506412982,0.9222785234451294,0.0001045168246491,-0.586669921875,-0.0570111609995365,0.0339878723025321,0.0,0.0,-0.9754371047019958,0.2941077947616577
-0.0166556350886821,0.9087556004524232,0.0007242963183671,-0.6009544134140015,-0.0553173944354057,0.0338753946125507,0.0,0.0,-0.9758002161979676,0.1179451942443847
-0.0166271217167377,0.8949112296104431,0.0011485948925837,-0.6152389645576477,-0.0536278970539569,0.0337897054851055,0.0,0.0,-0.9678933024406432,0.5429352521896362
-0.0165428165346384,0.8807393312454224,0.0080826608464121,-0.6298545598983765,-0.0532895661890506,0.0067666978575289,0.0,0.0,-0.992136299610138,-0.8292967081069946
-0.0165344234555959,0.8662482500076294,-0.0014327445533126,-0.6439640522003174,-0.0510413646697998,0.0449641309678554,0.0,0.0,-0.8311728239059448,0.2588018178939819
-0.0165277477353811,0.8514358401298523,-0.0016093604499474,-0.6582486629486084,-0.0487933196127414,0.044960867613554,0.0,0.0,-0.9542767405509948,0.4491368532180786
-0.0165248867124319,0.8363023400306702,-0.0019876067526638,-0.6725332736968994,-0.0465440489351749,0.0449852980673313,0.0,0.0,-0.9647177457809448,-0.0799421668052673
-0.0165277477353811,0.8208473920822144,-0.0025663473643362,-0.6868178844451904,-0.0442921929061412,0.0450372844934463,0.0,0.0,-0.8994751572608948,-0.148592472076416
-0.0165383331477642,0.8050711154937744,-0.0033433784265071,-0.7011024951934814,-0.0420363657176494,0.045116551220417,0.0,0.0,-0.8555668592453003,0.2969720363616943
-0.0165586471557617,0.7889734506607056,-0.004315473139286,-0.7153871655464172,-0.0397752188146114,0.0452226921916008,0.0,0.0,-0.7355514168739319,0.6437549591064453
-0.016547966748476,0.7725552916526794,-0.0001457711477996,-0.7296645045280457,-0.0385744497179985,0.0240154899656772,0.0,0.0,-0.6439679861068726,0.4274601936340332
-0.0165506359189748,0.7558157444000244,-0.001494548167102,-0.7439488172531128,-0.0373657755553722,0.0241735577583313,0.0,0.0,-0.7373655438423157,-0.217568039894104
-0.0165685657411813,0.7387547492980957,-0.0030233121942728,-0.7582331299781799,-0.0361479446291923,0.0243565179407596,0.0,0.0,-0.4171763658523559,0.2700514793395996
-0.0166034698486328,0.7213724851608276,-0.004725563339889,-0.7725173830986023,-0.0349197573959827,0.0245634540915489,0.0,0.0,-0.7625025510787964,0.183607816696167
-0.0166567806154489,0.7036688923835754,-0.0065942532382905,-0.7868016362190247,-0.0336801037192344,0.0247934125363826,0.0,0.0,-0.4591484069824219,0.0637354850769043
-0.0167303085327148,0.6856438517570496,-0.0086219059303402,-0.8010860085487366,-0.0324278324842453,0.0250454787164926,0.0,0.0,-0.6828803420066833,0.8490082025527954
-0.0167494770139455,0.6672835350036621,-0.0012480106670409,-0.8160277605056763,-0.0330820530652999,-0.0130845261737704,0.0,0.0,-0.3729866743087768,0.1300517320632934
-0.0167916305363178,0.648601770401001,-0.003570023458451,-0.8303120136260986,-0.033721636980772,-0.0127915292978286,0.0,0.0,-0.0746554136276245,-0.3828681707382202
-0.0168581958860158,0.6295987367630005,-0.0060271495021879,-0.8445961475372314,-0.034345619380474,-0.0124796349555253,0.0,0.0,-0.1220563650131225,-0.0202348232269287
-0.0169504173099994,0.6102743744850159,-0.0086113158613443,-0.8588802814483643,-0.0349531210958957,-0.0121500035747885,0.0,0.0,0.3783681392669678,-0.0026443004608154
-0.0170257575809955,0.5914055109024048,-0.007053549401462,-0.8386276364326477,-0.0354245752096176,-0.0094294063746929,0.0,0.0,0.4268120527267456,-0.0512053966522216
-0.0172143932431936,0.5733144879341125,-0.0178797077387571,-0.8040684461593628,-0.0363925732672214,-0.0193600300699472,0.0,0.0,-0.0988348722457885,0.2031571865081787
-0.0174320228397846,0.5549021363258362,-0.0207978151738643,-0.8183526396751404,-0.0373417362570762,-0.0189833864569664,0.0,0.0,0.6710047721862793,-0.4088958501815796
-0.017698859795928,0.5367631316184998,-0.0255823321640491,-0.8062038421630859,-0.0384291596710681,-0.0217485651373863,0.0,0.0,0.7319869995117188,-0.6186621785163879
-0.0179557800292968,0.5188053846359253,-0.0260477270931005,-0.7981115579605103,-0.0380758717656135,0.0070657967589795,0.0,0.0,0.8937373161315918,-0.4250587224960327
-0.0182657241821289,0.5011115670204163,-0.0312016047537326,-0.7863891124725342,-0.0378694124519825,0.0041292859241366,0.0,0.0,0.696110725402832,0.2131447792053222
-0.0185857769101858,0.484317272901535,-0.0321967676281929,-0.7464044690132141,-0.0376814045011997,0.003760176943615,0.0,0.0,0.4481962919235229,-0.293087363243103
-0.0188418384641408,0.4682695865631103,-0.0261510107666254,-0.7132188677787781,-0.0371470637619495,0.0106868036091327,0.0,0.0,0.501293420791626,-0.3052983283996582
-0.0192059520632028,0.453019380569458,-0.0365007035434246,-0.6777825951576233,-0.0370621494948864,0.0016984173562377,0.0,0.0,-0.2635815143585205,0.6449800729751587
-0.0195646286010742,0.43743896484375,-0.0349492616951465,-0.6924865245819092,-0.0379627645015716,-0.0180125143378973,0.0,0.0,0.6495065689086914,-0.2215276360511779
-0.0198878291994333,0.4227178692817688,-0.0316268764436244,-0.6542898416519165,-0.0386539883911609,-0.0138242151588201,0.0,0.0,0.5056740045547485,0.1217938661575317
-0.0203184131532907,0.4084668159484863,-0.0419555827975273,-0.633407473564148,-0.0397488698363304,-0.0218976214528083,0.0,0.0,0.0171922445297241,-0.5453305840492249
-0.0208490379154682,0.3945270776748657,-0.0530152097344398,-0.6195487380027771,-0.0397921167314052,-0.0008650831878185,0.0,0.0,-0.5931928753852844,0.6392569541931152
-0.0213662143796682,0.3802660703659057,-0.0504399314522743,-0.6338529586791992,-0.0410572029650211,-0.0253018345683813,0.0,0.0,0.6936013698577881,0.3962624073028564
-0.0218062400817871,0.3665721416473388,-0.0431658998131752,-0.6086435914039612,-0.0418843366205692,-0.0165426675230264,0.0,0.0,0.7011682987213135,-0.2901581525802612
-0.0222440715879201,0.3530834913253784,-0.043088611215353,-0.5995157957077026,-0.0425738170742988,-0.0137894600629806,0.0,0.0,0.8825700283050537,0.2141090631484985
-0.0225941650569438,0.3399542570114136,-0.0348243936896324,-0.5835265517234802,-0.042749285697937,-0.0035095470957458,0.0,0.0,0.7216198444366455,-0.0338580608367919
-0.0228031165897846,0.3273855149745941,-0.0214651487767696,-0.5585923790931702,-0.0421902872622013,0.0111799659207463,0.0,0.0,0.1156314611434936,0.5684716701507568
-0.022889519110322,0.314880758523941,-0.0082560759037733,-0.5557790994644165,-0.0425637774169445,-0.0074698766693472,0.0,0.0,0.4629068374633789,-0.8281440138816833
-0.0230566021054983,0.3030620217323303,-0.0180141106247901,-0.5252387523651123,-0.0412708260118961,0.0258590187877416,0.0,0.0,0.5424474477767944,0.5328348875045776
-0.0231595039367675,0.2919827699661255,-0.0106291733682155,-0.4923998117446899,-0.0409323014318943,0.0067703686654567,0.0,0.0,0.1016569137573242,-0.0154944658279418
-0.0231996532529592,0.2812438011169433,-0.0047789351083338,-0.4772709608078003,-0.0401835329830646,0.0149753736332058,0.0,0.0,-0.3458811044692993,-0.2467613220214843
-0.0232786182314157,0.2701832950115204,-0.0086777796968817,-0.4915551245212555,-0.0394084714353084,0.0155010120943188,0.0,0.0,0.3134737014770508,0.0207065343856811
-0.0234222412109375,0.2594106793403625,-0.014975992962718,-0.4787655174732208,-0.0388002544641494,0.0121646132320165,0.0,0.0,0.0146257877349853,0.74558424949646
-0.0234648697078228,0.2491128593683242,-0.0034390774089843,-0.4577028155326843,-0.0396154783666133,-0.0163046587258577,0.0,0.0,0.0454120635986328,-0.3588849306106567
-0.0235471725463867,0.2390342503786087,-0.0073624486103653,-0.4479601681232452,-0.0404722467064857,-0.0171352289617061,0.0,0.0,0.2079203128814697,-0.7973441481590271
-0.0238121040165424,0.2295234352350235,-0.0271561350673437,-0.4226866364479065,-0.0398079939186573,0.0132847502827644,0.0,0.0,-0.2675561904907226,0.8225653171539307
-0.0240417476743459,0.2196908742189407,-0.0217744316905736,-0.437034547328949,-0.0409891419112682,-0.0236227586865425,0.0,0.0,0.5108938217163086,-0.2181543707847595
-0.0243318565189838,0.2105682939291,-0.0276042819023132,-0.4054877161979675,-0.042369682341814,-0.0276109389960765,0.0,0.0,-0.0038195252418518,0.2279556989669799
-0.0246614459902048,0.2011242657899856,-0.0315951630473136,-0.4197720289230346,-0.0437230207026004,-0.0270667020231485,0.0,0.0,0.162077784538269,-0.2307456135749817
-0.025032902136445,0.1918850243091583,-0.0357287302613258,-0.4106790423393249,-0.045129969716072,-0.0281391739845275,0.0,0.0,0.043205976486206,-0.7531269788742065
-0.0255717281252145,0.182903841137886,-0.0539515502750873,-0.3991598486900329,-0.0450615175068378,0.0013692292850464,0.0,0.0,-0.3334982395172119,0.864363431930542
-0.0260992050170898,0.1735959351062774,-0.0515403933823108,-0.4137236773967743,-0.046255923807621,-0.0238883234560489,0.0,0.0,-0.4943172335624695,-0.0896993279457092
-0.0266666412353515,0.1639665216207504,-0.055561788380146,-0.4280079007148742,-0.0474227704107761,-0.0233367942273616,0.0,0.0,-0.4159754514694214,0.4411108493804931
-0.0272740367799997,0.1540158092975616,-0.0595889911055564,-0.4422920942306518,-0.0485619530081748,-0.0227837562561035,0.0,0.0,0.5557518005371094,0.6071189641952515
-0.0276904106140136,0.1448104679584503,-0.0396407172083854,-0.4091925323009491,-0.0505398586392402,-0.0395581200718879,0.0,0.0,-0.1865093111991882,-0.6285873055458069
-0.0281984321773052,0.1352928429841995,-0.0501304753124713,-0.4230266809463501,-0.0511907525360584,-0.0130178527906537,0.0,0.0,0.5649676322937012,0.5829365253448486
-0.028512667864561,0.1266584247350692,-0.0299876537173986,-0.3838036358356476,-0.0526222847402095,-0.0286303646862506,0.0,0.0,-0.2196897268295288,-0.6085566282272339
-0.0289092063903808,0.1177058517932891,-0.0393017455935478,-0.3979004919528961,-0.0529683455824852,-0.0069210939109325,0.0,0.0,0.7175517082214355,0.2745554447174072
-0.029308509081602,0.1097040027379989,-0.0395661368966102,-0.3556519150733948,-0.0533211417496204,-0.0070559037849307,0.0,0.0,0.3742910623550415,-0.712843656539917
-0.0297130588442087,0.102368339896202,-0.0416532792150974,-0.3259896039962768,-0.0521357394754886,0.0237079542130231,0.0,0.0,-0.1764252185821533,0.3035868406295776
-0.0301578529179096,0.0947112441062927,-0.045705534517765,-0.3402738273143768,-0.0509222894906997,0.0242688190191984,0.0,0.0,0.3251278400421142,0.7170261144638062
-0.0306703560054302,0.0874809324741363,-0.0509015545248985,-0.3213599324226379,-0.0512714348733425,-0.006982765160501,0.0,0.0,0.577751636505127,0.6002410650253296
-0.0312830917537212,0.0806705579161644,-0.059426199644804,-0.3027457594871521,-0.0530996695160865,-0.0365647226572036,0.0,0.0,0.2808891534805298,0.8153162002563477
-0.031867504119873,0.0741894841194152,-0.0549563877284526,-0.288175106048584,-0.0565416067838668,-0.0688389018177986,0.0,0.0,-0.1151939630508422,0.2979364395141601
-0.0324921607971191,0.0673871114850044,-0.0590127781033515,-0.3024601638317108,-0.0599553808569908,-0.0682755336165428,0.0,0.0,0.6589570045471191,0.1383367776870727
-0.0330045707523822,0.0607923120260238,-0.0484277121722698,-0.2932156920433044,-0.0627343878149986,-0.0555799789726734,0.0,0.0,0.5113064050674438,0.7312469482421875
-0.0333617217838764,0.0548012591898441,-0.0316451452672481,-0.2664464712142944,-0.0667633190751075,-0.0805786401033401,0.0,0.0,0.2880163192749023,-0.6936798691749573
-0.0337498672306537,0.0494399890303611,-0.0362018123269081,-0.2383952438831329,-0.0693486183881759,-0.051705677062273,0.0,0.0,-0.1435527801513672,0.4764962196350097
