x_pos,y_pos,x_vel,y_vel,angle,ang_vel,leg_1,leg_2,main_booster,lat_booster
-0.0015417098766192,1.4034441709518433,-0.1556109488010406,-0.3322637677192688,0.0012877795379608,0.0253672450780868,0.0,0.0,0.4558991804200549,-0.6307475398249707
-0.0031025887001305,1.3964176177978516,-0.1582247614860534,-0.3122874200344085,0.0034100429620593,0.042450301349163,0.0,0.0,0.2776661263183193,-0.6809952280579512
-0.004622459411621,1.3896745443344116,-0.15519680082798,-0.2997102439403534,0.0065877032466232,0.0635588616132736,0.0,0.0,-0.4208431515754842,-0.8914234574995428
-0.006246471311897,1.3827474117279053,-0.1672570258378982,-0.307904303073883,0.0113907326012849,0.0960694178938865,0.0,0.0,0.0108577714982476,-0.6501055845066526
-0.007857322692871,1.3762413263320925,-0.1668543517589569,-0.2892097532749176,0.0171005688607692,0.1142071709036827,0.0,0.0,-0.8318293694727836,-0.7295378093705152
-0.0095339771360158,1.3695532083511353,-0.174093410372734,-0.2973396182060241,0.0234475750476121,0.1269518285989761,0.0,0.0,0.8127036038519462,-0.6189118559984872
-0.011323070153594,1.3636327981948853,-0.1860184371471405,-0.2632595896720886,0.0304730385541915,0.1405224353075027,0.0,0.0,0.2386194502854053,0.639372240695755
-0.0129753109067678,1.358269214630127,-0.1707792282104492,-0.2385027855634689,0.0359821394085884,0.110192134976387,0.0,0.0,-0.194636610379973,0.9826599436153856
-0.0145753864198923,1.3527401685714722,-0.1631698608398437,-0.2458169311285019,0.0391174107789993,0.0627108216285705,0.0,0.0,0.1002064355891918,-0.8720204591397693
-0.0162876136600971,1.34775710105896,-0.1756764948368072,-0.2215879559516906,0.0435209944844245,0.0880796462297439,0.0,0.0,0.6471923901967283,-0.8800314117980537
-0.0180237777531147,1.3434842824935913,-0.1795246303081512,-0.1900831907987594,0.0493720658123493,0.117031916975975,0.0,0.0,-0.5334399347817098,-0.8066699755374493
-0.0198410991579294,1.3390254974365234,-0.1886122822761535,-0.1984077394008636,0.0561865344643592,0.1363017857074737,0.0,0.0,0.8744700064221544,0.924571182991372
-0.0214926712214946,1.3355998992919922,-0.1700483560562133,-0.1524421721696853,0.0610254034399986,0.0967862904071807,0.0,0.0,-0.6900122804119473,0.9501335085310972
-0.0230866428464651,1.3319923877716064,-0.1617277860641479,-0.1604321449995041,0.0633296146988868,0.0460883863270282,0.0,0.0,0.7051888256492473,0.986732260824002
-0.0245203021913766,1.3295111656188965,-0.1435097306966781,-0.1102822199463844,0.0634726956486702,0.0028620124794542,0.0,0.0,0.4493277175976169,-0.7266037651016533
-0.0259478576481342,1.3272356986999512,-0.1441291868686676,-0.1011939793825149,0.0648310109972953,0.0271689742803573,0.0,0.0,-0.2990291542327323,0.798771778932202
-0.0273260120302438,1.324796438217163,-0.1367982327938079,-0.1083714887499809,0.0638246834278106,-0.0201282687485218,0.0,0.0,-0.2811441171774498,0.9287853978181724
-0.0286410339176654,1.3221774101257324,-0.1277831941843032,-0.1162478625774383,0.0601371973752975,-0.073756530880928,0.0,0.0,0.962083736502196,0.8504531694848857
-0.0298486705869436,1.3208308219909668,-0.1152152866125106,-0.0596301890909671,0.0546330623328685,-0.1100925579667091,0.0,0.0,0.3384790682740684,-0.8845971803873595
-0.031254194676876,1.3199784755706787,-0.1363109052181244,-0.0377395115792751,0.0504343993961811,-0.0839806795120239,0.0,0.0,0.955945423144932,-0.9862083619218088
-0.0326440818607807,1.3202929496765137,-0.136644646525383,0.0140601191669702,0.0481114350259304,-0.0464632138609886,0.0,0.0,0.4887864060434237,-0.9642867555870036
-0.034146212041378,1.3210142850875854,-0.1494535654783249,0.0320800095796585,0.0473563112318515,-0.015103799290955,0.0,0.0,-0.6496614484358265,0.8298602882247219
-0.035598088055849,1.3215595483779907,-0.1420474350452423,0.0243330914527177,0.0442460514605045,-0.0622108578681945,0.0,0.0,-0.4729145007405306,0.6501825237534752
-0.037022016942501,1.3219212293624878,-0.1374563127756118,0.0162138119339942,0.0393587164580822,-0.0977554470300674,0.0,0.0,0.8953510426026512,0.705582562274474
-0.0386250503361225,1.3232043981552124,-0.1531906723976135,0.0572038777172565,0.0323207415640354,-0.1407718807458877,0.0,0.0,0.6737004043791062,0.9654132784456838
-0.0403705611824989,1.3253567218780518,-0.1649440079927444,0.0958377122879028,0.022834938019514,-0.1897164285182953,0.0,0.0,0.0573950073018685,0.6080726739277339
-0.0421062484383583,1.3280329704284668,-0.1624360084533691,0.1190720647573471,0.0118483277037739,-0.2197322845458984,0.0,0.0,-0.0593079223302723,-0.9604197529917786
-0.043964959681034,1.3305385112762451,-0.1768115013837814,0.1114022806286811,0.0029060863889753,-0.1788447201251983,0.0,0.0,0.7472491164395718,0.7768771476826184
-0.0459465011954307,1.3340998888015747,-0.186949610710144,0.1582680195569992,-0.008148280903697,-0.2210872173309326,0.0,0.0,0.5404490856796282,-0.7486720388031993
-0.0480358116328716,1.3381626605987549,-0.1989528685808181,0.1804795861244201,-0.0179994609206914,-0.1970239579677581,0.0,0.0,0.2377028363179076,-0.8438489054918454
-0.0501949302852153,1.3430083990097046,-0.2074153125286102,0.2152409851551056,-0.0263887904584407,-0.1677863299846649,0.0,0.0,0.3187619370579815,0.8458407308398976
-0.0523793213069438,1.3481948375701904,-0.207960695028305,0.2302916944026947,-0.0367424339056015,-0.2070729732513427,0.0,0.0,0.3441087707030053,-0.8446984552450608
-0.0547133460640907,1.3541959524154663,-0.2243450134992599,0.2664617896080017,-0.0456881523132324,-0.1789143234491348,0.0,0.0,0.8482766484674407,0.8492655334820708
-0.0570709221065044,1.360615849494934,-0.2246682345867157,0.2849491834640503,-0.0566499046981334,-0.2192350178956985,0.0,0.0,-0.3369458727904231,0.9768346645937568
-0.0593795776367187,1.3668527603149414,-0.2176126986742019,0.2766412794589996,-0.0697622820734977,-0.2622477412223816,0.0,0.0,-0.9228551584766542,0.9991356143136638
-0.0616369247436523,1.3729112148284912,-0.2102890759706497,0.268471747636795,-0.0850565880537033,-0.3058866262435913,0.0,0.0,-0.1597296603310884,-0.6985395702140738
-0.0639820098876953,1.378796100616455,-0.2204357087612152,0.2606914937496185,-0.0990135893225669,-0.2791396677494049,0.0,0.0,0.6655228488960419,0.7201986237099884
-0.06618233025074,1.3856399059295654,-0.2045219838619232,0.3030732870101928,-0.1144110560417175,-0.3079493343830108,0.0,0.0,0.3821798021228442,0.8101433986920276
-0.0683042556047439,1.3933618068695068,-0.1949692219495773,0.3417927026748657,-0.1315405368804931,-0.3425897359848022,0.0,0.0,-0.091275362685911,-0.9678482867584448
-0.0705278366804122,1.400922775268555,-0.2069561779499054,0.3346115052700043,-0.1468783169984817,-0.3067555427551269,0.0,0.0,0.8873146460580359,-0.7827202139689909
-0.0728421211242675,1.4096754789352417,-0.217335894703865,0.3875559270381927,-0.1609646379947662,-0.2817263603210449,0.0,0.0,-0.566589891910553,-0.0582795143127441
-0.0751853957772255,1.418250560760498,-0.2202372550964355,0.3795278966426849,-0.1750606447458267,-0.2819202542304992,0.0,0.0,-0.454269528388977,-0.0292587876319885
-0.0775569900870323,1.4266479015350342,-0.22312693297863,0.3715001940727234,-0.1891455352306366,-0.2816981971263885,0.0,0.0,-0.5542559027671814,0.0547305345535278
-0.0799566283822059,1.43486750125885,-0.2260016649961471,0.3634729087352752,-0.2031987756490707,-0.2810644805431366,0.0,0.0,-0.519588053226471,0.603132963180542
-0.0823415741324424,1.4428892135620115,-0.2234824150800705,0.3543831706047058,-0.2183356136083603,-0.3027366995811462,0.0,0.0,-0.5005331039428711,0.5283925533294678
-0.0847104042768478,1.4507137537002563,-0.2208806276321411,0.3453046977519989,-0.2345495074987411,-0.3242785930633545,0.0,0.0,-0.4691168665885925,0.2691705226898193
-0.0871058478951454,1.458361268043518,-0.2236921489238739,0.3372735977172851,-0.2506718635559082,-0.3224474489688873,0.0,0.0,-0.6804985404014587,-0.4681515097618103
-0.0895276069641113,1.465831279754639,-0.2264750301837921,0.3292433321475982,-0.2666836380958557,-0.3202356398105621,0.0,0.0,-0.6643655896186829,-0.7304223775863647
-0.0920413956046104,1.4731574058532717,-0.237654447555542,0.3230461180210113,-0.2807553708553314,-0.2814354598522186,0.0,0.0,-0.7601033449172974,-0.396908164024353
-0.0945802703499794,1.4803054332733154,-0.2403670102357864,0.3150220811367035,-0.2946802079677582,-0.2784968316555023,0.0,0.0,-0.8019914627075195,-0.2604433298110962
-0.0971438437700271,1.4872748851776123,-0.2430393993854522,0.3069990873336792,-0.3084408044815063,-0.2752119898796081,0.0,0.0,-0.7138844728469849,-0.4932829141616821
-0.0997313484549522,1.4940656423568726,-0.2456676214933395,0.2989770770072937,-0.3220205307006836,-0.2715937495231628,0.0,0.0,-0.8853565454483032,-0.4349994659423828
-0.1023421287536621,1.5006775856018066,-0.2482476234436035,0.2909561693668365,-0.3354033529758453,-0.267655611038208,0.0,0.0,-0.9242799282073976,-0.3253357410430908
-0.1049756035208702,1.507110595703125,-0.2507751882076263,0.2829364240169525,-0.3485739231109619,-0.2634113430976867,0.0,0.0,-0.8279866576194763,0.0893677473068237
-0.1076310127973556,1.513364553451538,-0.2532460391521454,0.2749177515506744,-0.3615176677703857,-0.2588749825954437,0.0,0.0,-0.923263132572174,-0.4975212812423706
-0.1103075966238975,1.5194391012191772,-0.255655825138092,0.2669002711772918,-0.3742206990718841,-0.2540606260299682,0.0,0.0,-0.9364391565322876,-0.6793842315673828
-0.1130450218915939,1.5253643989562988,-0.2631519436836242,0.2605312168598175,-0.3854818046092987,-0.225222036242485,0.0,0.0,-0.8966186046600342,-0.0094740390777587
-0.1158022880554199,1.5311095714569092,-0.2654247581958771,0.2525182664394378,-0.396476536989212,-0.2198944389820099,0.0,0.0,-0.9281059503555298,-0.4496619701385498
-0.1185784339904785,1.5366746187210083,-0.2676227688789367,0.2445064485073089,-0.4071930646896362,-0.2143305987119674,0.0,0.0,-0.9397610425949096,-0.4245643615722656
-0.121372602880001,1.5420591831207275,-0.2697413563728332,0.2364957332611084,-0.417620301246643,-0.2085441648960113,0.0,0.0,-0.9171602129936218,-0.3713611960411072
-0.1241839379072189,1.547263264656067,-0.2717757225036621,0.228486105799675,-0.4277477264404297,-0.2025483548641204,0.0,0.0,-0.8787199854850769,-0.3294026851654053
-0.1270115822553634,1.5522863864898682,-0.2737210094928741,0.2204775661230087,-0.4375655353069305,-0.1963561922311782,0.0,0.0,-0.9044630527496338,-0.0103604793548583
-0.1298543959856033,1.5571287870407104,-0.2755722999572754,0.2124700844287872,-0.4470645487308502,-0.1899802386760711,0.0,0.0,-0.9004988670349121,-0.52210932970047
-0.1327464133501052,1.5618159770965576,-0.2817998230457306,0.2059322297573089,-0.4551881849765777,-0.162472516298294,0.0,0.0,-0.9138644933700562,-0.546012282371521
-0.1356907784938812,1.5663459300994873,-0.2883777022361755,0.1993369609117508,-0.4618557691574096,-0.1333518177270889,0.0,0.0,-0.8871323466300964,-0.0070955157279968
-0.1386472731828689,1.5706939697265625,-0.2899156808853149,0.1913349628448486,-0.4681805670261383,-0.126495823264122,0.0,0.0,-0.9694070219993592,-0.317724347114563
-0.1416145265102386,1.5748602151870728,-0.29134002327919,0.1833337247371673,-0.4741556644439697,-0.1195018440485,0.0,0.0,-0.9562117457389832,-0.291860818862915
-0.1445916146039962,1.5788445472717283,-0.2926459014415741,0.1753332465887069,-0.4797746837139129,-0.1123802214860916,0.0,0.0,-0.8200329542160034,-0.0650112628936767
-0.1475770026445388,1.5826464891433716,-0.2938285171985626,0.1673334389925003,-0.4850317239761352,-0.1051409244537353,0.0,0.0,-0.9474921226501464,0.0282621383666992
-0.1505696326494217,1.586266279220581,-0.2948831617832184,0.1593342870473861,-0.4899213910102844,-0.0977934449911117,0.0,0.0,-0.9565640091896056,-0.2339125275611877
-0.1535679847002029,1.5897037982940674,-0.295805275440216,0.1513357460498809,-0.4944387674331665,-0.0903468951582908,0.0,0.0,-0.8988460302352905,-0.2353657484054565
-0.1565708220005035,1.592958927154541,-0.2965904176235199,0.1433377861976623,-0.4985792636871338,-0.0828099399805069,0.0,0.0,-0.9025505781173706,-0.1938429474830627
-0.1595765054225921,1.5960314273834229,-0.2972343564033508,0.1353403478860855,-0.5023388266563416,-0.0751908496022224,0.0,0.0,-0.9271280169487,-0.3287546634674072
-0.1625838279724121,1.598921298980713,-0.2977330088615417,0.1273433715105056,-0.505713701248169,-0.067497469484806,0.0,0.0,-0.951769232749939,0.0521162748336792
-0.165591150522232,1.6016287803649902,-0.2980826497077942,0.1193468496203422,-0.5087005496025085,-0.0597373470664024,0.0,0.0,-0.8643931150436401,-0.410293698310852
-0.1685968339443206,1.604153394699097,-0.2982798218727112,0.1113507002592086,-0.5112964510917664,-0.0519175641238689,0.0,0.0,-0.9764227867126464,-0.554110586643219
-0.1716410666704177,1.606523871421814,-0.3035588562488556,0.1050322502851486,-0.5122740864753723,-0.0195530317723751,0.0,0.0,-0.9309441447257996,-0.4460912346839905
-0.1746806204319,1.60871160030365,-0.3034415543079376,0.097036987543106,-0.5128557682037354,-0.0116339772939682,0.0,0.0,-0.907812774181366,-0.0016989111900329
-0.1777138710021972,1.610716462135315,-0.3031633496284485,0.0890418663620948,-0.5130395293235779,-0.0036748382262885,0.0,0.0,-0.9052830934524536,-0.2823947668075561
-0.1807392090559005,1.612538456916809,-0.3027222156524658,0.081046849489212,-0.5128235816955566,0.004318662919104,0.0,0.0,-0.966160535812378,-0.3316452503204345
-0.1837549209594726,1.6141775846481323,-0.3021165132522583,0.0730518847703933,-0.5122065544128418,0.0123408017680048,0.0,0.0,-0.9294949173927308,-0.6125108003616333
-0.1867962777614593,1.615671157836914,-0.3061213195323944,0.0671260207891464,-0.5099701881408691,0.0447271838784217,0.0,0.0,-0.9189607501029968,-0.4364174604415893
-0.1898248642683029,1.616982102394104,-0.3051836192607879,0.0591307021677494,-0.507330596446991,0.0527907013893127,0.0,0.0,-0.9228033423423768,-0.2373758554458618
-0.1928386688232422,1.618110179901123,-0.3040792346000671,0.0511351823806762,-0.5042872428894043,0.0608674101531505,0.0,0.0,-0.97434401512146,-0.505317211151123
-0.1958704888820648,1.6190871000289917,-0.3072128891944885,0.0448907949030399,-0.4997476041316986,0.0907930135726928,0.0,0.0,-0.9445886611938475,-0.2885500192642212
-0.1988842040300369,1.6198813915252686,-0.3057768940925598,0.0368940718472003,-0.4948035180568695,0.0988818258047103,0.0,0.0,-0.932254672050476,-0.2969471216201782
-0.2018782198429107,1.6204931735992432,-0.3041763603687286,0.0288969166576862,-0.4894550144672394,0.1069700270891189,0.0,0.0,-0.9033169746398926,-0.2183441519737243
-0.2048508673906326,1.6209224462509155,-0.3024129271507263,0.0208992753177881,-0.4837023615837097,0.1150533929467201,0.0,0.0,-0.884282112121582,-0.4070586562156677
-0.2078004777431488,1.6211694478988647,-0.3004887104034424,0.0129011087119579,-0.4775459766387939,0.1231278553605079,0.0,0.0,-0.8563395142555237,0.0008827447891235
-0.2107254564762115,1.6212342977523804,-0.2984061539173126,0.004902365617454,-0.4709865152835846,0.1311894506216049,0.0,0.0,-0.8600507378578186,-0.330879271030426
-0.2136242389678955,1.6211168766021729,-0.2961682081222534,-0.0030969968065619,-0.4640248119831085,0.1392343491315841,0.0,0.0,-0.9336950778961182,-0.3634490966796875
-0.2164952307939529,1.6208175420761108,-0.293778121471405,-0.0110970251262187,-0.4566618800163269,0.1472588777542114,0.0,0.0,-0.8636347055435181,-0.0170249342918396
-0.2193368971347808,1.6203361749649048,-0.291239470243454,-0.019097764045,-0.4488989114761352,0.155259370803833,0.0,0.0,-0.9290388226509094,-0.4812446236610412
-0.2221477925777435,1.6196731328964231,-0.288556158542633,-0.0270992554724216,-0.4407373070716858,0.1632322818040847,0.0,0.0,-0.9116716384887696,0.3659113645553589
-0.2249265164136886,1.6188284158706665,-0.2857323288917541,-0.035101544111967,-0.4321786165237427,0.171174094080925,0.0,0.0,-0.9417412877082824,-0.347939133644104
-0.2276717126369476,1.6178020238876345,-0.282772421836853,-0.0431046821177005,-0.423224538564682,0.1790814101696014,0.0,0.0,-0.9341579675674438,-0.4909638166427612
-0.2303820103406906,0.0,-0.279680997133255,-0.0511087030172348,-0.413877010345459,0.1869508326053619,0.0,0.0,-0.8121814727783203,-0.6266178488731384
-0.2331088036298751,1.6152465343475342,-0.2831912934780121,-0.0568654686212539,-0.4025625884532928,0.2262882888317108,0.0,0.0,-0.8445404171943665,-0.482490062713623
-0.2357979714870453,1.6137179136276243,-0.27985280752182,-0.0648739859461784,-0.3908590674400329,0.2340707331895828,0.0,0.0,-0.8799766898155212,-0.4606094360351562
-0.2384484708309173,1.6120089292526243,-0.2763972878456116,-0.0728836804628372,-0.3787688314914703,0.2418047487735748,0.0,0.0,-0.8157544136047363,-0.2156745195388794
-0.2410590648651123,1.6101195812225342,-0.2728296518325805,-0.0808945745229721,-0.3662945032119751,0.2494869977235794,0.0,0.0,-0.8096147775650024,-0.3598639965057373
-0.2436287403106689,1.6080502271652222,-0.2691548764705658,-0.0889067202806472,-0.3534387946128845,0.2571140825748443,0.0,0.0,-0.9069804549217224,0.4739019870758056
-0.2461564987897873,1.6058011054992676,-0.2653779089450836,-0.0969201549887657,-0.340204656124115,0.2646825909614563,0.0,0.0,-0.9071354269981384,0.6930756568908691
-0.2486031055450439,1.603350043296814,-0.2566677927970886,-0.1061496213078498,-0.3276613056659698,0.2508668303489685,0.0,0.0,-0.918327271938324,0.2719900608062744
-0.2510059475898742,1.600719332695007,-0.2526997029781341,-0.1141634881496429,-0.3147458732128143,0.2583087682723999,0.0,0.0,-0.9396699666976928,0.5954184532165527
-0.2533162236213684,1.5978798866271973,-0.2425518780946731,-0.1237440258264541,-0.3028050661087036,0.2388159036636352,0.0,0.0,-0.8835946321487427,0.34443199634552
-0.2555810809135437,1.594860553741455,-0.2384114265441894,-0.1317577362060547,-0.2904991805553436,0.2461178004741668,0.0,0.0,-0.922754168510437,0.7155748605728149
-0.2577467858791351,1.5916435718536377,-0.2275262773036956,-0.1408250033855438,-0.2792247533798218,0.2254886180162429,0.0,0.0,-0.934897780418396,0.5802578926086426
-0.25981006026268,1.588229775428772,-0.2162538319826126,-0.1498607099056244,-0.2690424919128418,0.2036451995372772,0.0,0.0,-0.8332856297492981,0.222094178199768
-0.2618259489536285,1.5846359729766846,-0.2118877172470092,-0.1578726917505264,-0.2585069537162781,0.2107110321521759,0.0,0.0,-0.839270830154419,0.5975627899169922
-0.2637476921081543,1.5808498859405518,-0.2016836106777191,-0.1666280180215835,-0.2488114982843399,0.1939092576503753,0.0,0.0,-0.853510856628418,0.4006673097610473
-0.2656208574771881,1.5768836736679075,-0.1971882730722427,-0.1746399700641632,-0.2387715429067611,0.2007989883422851,0.0,0.0,-0.7709788680076599,0.6192398071289062
-0.2673915922641754,1.5727148056030271,-0.1859062761068344,-0.1838859170675277,-0.2298112362623214,0.1792062222957611,0.0,0.0,-0.906693160533905,0.2996194362640381
-0.269112765789032,1.568365454673767,-0.1812965422868728,-0.1918975412845611,-0.2205160111188888,0.1859046220779419,0.0,0.0,-0.851660966873169,0.5071430206298828
-0.2707533836364746,1.5638244152069092,-0.172786682844162,-0.2005458176136016,-0.211695596575737,0.1764086782932281,0.0,0.0,-0.6027536392211914,0.7519369125366211
-0.2722876071929931,1.55908465385437,-0.1610414683818817,-0.2095855921506881,-0.2040096223354339,0.1537193953990936,0.0,0.0,-0.605831503868103,0.4992194175720215
-0.2737709581851959,1.5541646480560305,-0.1562852561473846,-0.217596486210823,-0.196004569530487,0.1601009666919708,0.0,0.0,-0.6234774589538574,0.547197699546814
-0.2751522064208984,1.549043893814087,-0.1450640708208084,-0.2266845852136612,-0.1890270262956619,0.1395509392023086,0.0,0.0,-0.6681903004646301,0.1982898712158203
-0.2764819264411926,1.5437428951263428,-0.140225201845169,-0.2346952259540558,-0.1817419826984405,0.145700991153717,0.0,0.0,-0.8524252772331238,0.4356793165206909
-0.2777597904205322,1.5382617712020874,-0.135349303483963,-0.2427064925432205,-0.1741555482149124,0.1517290323972702,0.0,0.0,-0.7934339046478271,0.3506174087524414
-0.2789854407310486,1.532600164413452,-0.1304387599229812,-0.2507184147834778,-0.1662739962339401,0.1576308757066726,0.0,0.0,-0.7414945363998413,0.5717945098876953
