x_pos,y_pos,x_vel,y_vel,angle,ang_vel,leg_1,leg_2,main_booster,lat_booster
-0.0015328407753258,1.4029806852340698,-0.1552330702543258,-0.3528645932674408,0.0017423301469534,0.0343677960336208,0.0,0.0,0.6586049623269477,0.814628600718571
-0.0029558180831372,1.3951115608215332,-0.1424682438373565,-0.3497390747070312,0.0019074782030656,0.0033039737027138,0.0,0.0,0.4764623922367776,-0.8010195308381243
-0.004321479704231,1.3871339559555054,-0.1385321915149688,-0.3545647859573364,0.003846387611702,0.0387820340692997,0.0,0.0,-0.4037083788130553,0.8792195067427069
-0.0056455610319972,1.3785099983215332,-0.1329215466976165,-0.3832939565181732,0.0043560932390391,0.0101948743686079,0.0,0.0,0.3251432887684957,-0.959770711754085
-0.0069429399445652,1.3700299263000488,-0.132240429520607,-0.3768962025642395,0.0068259057588875,0.0494010969996452,0.0,0.0,0.158914601415554,-0.717252247411831
-0.0082068443298339,1.3614771366119385,-0.1304365992546081,-0.3801486194133758,0.0108238905668258,0.0799672380089759,0.0,0.0,-0.0688750941769584,0.636401752984671
-0.0094404220581054,1.3522815704345703,-0.1261491477489471,-0.4087216258049011,0.0135836759582161,0.0552007742226123,0.0,0.0,-0.9808997443896026,-0.5233470273267187
-0.0107239726930856,1.3424428701400757,-0.1319157630205154,-0.4373014867305755,0.0171020720154047,0.0703746229410171,0.0,0.0,-0.7095818512724497,0.5899605810254536
-0.0119821550324559,1.3319684267044067,-0.1282040178775787,-0.465566486120224,0.0194553863257169,0.0470706038177013,0.0,0.0,0.4560803399318702,0.5294513670123083
-0.0132330898195505,1.3218146562576294,-0.1263883411884308,-0.4512962400913238,0.0207429155707359,0.025752967223525,0.0,0.0,0.6029247104323268,0.7597949341713792
-0.0143658639863133,1.31188702583313,-0.1132290586829185,-0.4412232935428619,0.0206949803978204,-0.0009587629465386,0.0,0.0,-0.7949997403422862,-0.5834591451856037
-0.0155619625002145,1.3013132810592651,-0.1205963268876075,-0.4699643552303314,0.0216611344367265,0.0193250719457864,0.0,0.0,0.6561932650649365,-0.9335120542977768
-0.0167242046445608,1.291154384613037,-0.119287297129631,-0.4515522122383117,0.0246916096657514,0.0606151595711708,0.0,0.0,0.6533063218489326,0.5581914791621796
-0.0178014747798442,1.2808836698532104,-0.109873279929161,-0.4565111100673675,0.0268150400370359,0.0424721166491508,0.0,0.0,-0.6710383348103677,0.8892017301318736
-0.0188175197690725,1.269981861114502,-0.1015542298555374,-0.4845231771469116,0.0267675686627626,-0.0009493919205851,0.0,0.0,-0.3966508143253513,-0.6176984830353759
-0.0198989864438772,1.2584275007247925,-0.1091242581605911,-0.5135470628738403,0.0277356598526239,0.0193635188043117,0.0,0.0,0.5787065906418762,0.622966674890427
-0.0208374969661235,1.2474702596664429,-0.0939343348145484,-0.4869928061962127,0.0278174746781587,0.0016362473834306,0.0,0.0,0.5992849022839901,-0.947704954872958
-0.0217320434749126,1.2364081144332886,-0.0916637256741523,-0.4916936159133911,0.0300053842365741,0.0437620170414447,0.0,0.0,-0.7630329144897117,0.6421087945260865
-0.0225951187312603,1.2247108221054075,-0.0870511680841445,-0.5198908448219299,0.0307376086711883,0.0146458223462104,0.0,0.0,0.0375027152790954,-0.788723644800466
-0.0236180312931537,1.2128968238830566,-0.1046282276511192,-0.5251172780990601,0.03304348513484,0.0461217202246189,0.0,0.0,0.1082168568917008,0.9471707160144036
-0.0245097167789936,1.2012104988098145,-0.089637316763401,-0.5193936824798584,0.0335049368441104,0.0092298034578561,0.0,0.0,0.9245215948408788,0.8978258363252527
-0.0253610610961914,1.1896525621414185,-0.0838658660650253,-0.5136643648147583,0.032257080078125,-0.0249592904001474,0.0,0.0,-0.5356862883178657,0.606149025863977
-0.026182746514678,1.177452564239502,-0.0794781222939491,-0.5421622395515442,0.0295963548123836,-0.0532192476093769,0.0,0.0,0.7608793851050413,0.8308774585108282
-0.026895236223936,1.165105223655701,-0.0671024173498153,-0.5486928224563599,0.0254966951906681,-0.0820004791021347,0.0,0.0,0.9201610480347988,0.7201237484333844
-0.0277773849666118,1.1532334089279177,-0.0822563022375106,-0.5275477170944214,0.0196018163114786,-0.1179079636931419,0.0,0.0,0.2277119527608861,-0.9602054281321358
-0.0289016719907522,1.1414804458618164,-0.1084199324250221,-0.5223104357719421,0.0156483706086874,-0.0790687352418899,0.0,0.0,-0.6396490765615348,-0.6605246381719792
-0.0301075931638479,1.12908673286438,-0.1179839521646499,-0.5508092045783997,0.0130767729133367,-0.0514320842921733,0.0,0.0,-0.9004260453444721,0.611788421914425
-0.0313054099678993,1.1160564422607422,-0.1163007393479347,-0.5790985226631165,0.009635642170906,-0.0688226819038391,0.0,0.0,0.9303316536064584,-0.920057889237058
-0.0327831283211708,1.1037440299987793,-0.1459107100963592,-0.5472068190574646,0.0078049572184681,-0.0366135090589523,0.0,0.0,-0.1683491955878957,0.8330617002821026
-0.0342272743582725,1.0907856225967407,-0.1410354077816009,-0.5759175419807434,0.0044722352176904,-0.0666544139385223,0.0,0.0,0.8488632367812621,-0.7670261350062701
-0.035743810236454,1.0786129236221311,-0.1499701291322708,-0.5410000681877136,0.0028174128383398,-0.0330965146422386,0.0,0.0,-0.929456353187561,0.621345043182373
-0.0372477546334266,1.06579327583313,-0.1477415859699249,-0.5697637796401978,0.0001968388241948,-0.0524112991988658,0.0,0.0,-0.9865232706069946,0.5388932228088379
-0.0387453064322471,1.052334904670715,-0.1462844312191009,-0.5981512069702148,-0.0032314921263605,-0.0685666427016258,0.0,0.0,-0.9650150537490844,-0.7573762536048889
-0.0403396598994731,1.0382263660430908,-0.1577765196561813,-0.6270524859428406,-0.0048706936649978,-0.0327841565012931,0.0,0.0,-0.9092645049095154,-0.256471574306488
-0.0419646278023719,1.0234739780426023,-0.1609638631343841,-0.6556651592254639,-0.0063794064335525,-0.0301738940179348,0.0,0.0,-0.8169845938682556,-0.825633704662323
-0.0436834320425987,1.008084774017334,-0.172110453248024,-0.6839689016342163,-0.0061585269868373,0.004417463671416,0.0,0.0,-0.9830179810523988,-0.0747315287590026
-0.0454329475760459,0.9920515418052672,-0.175320416688919,-0.7125813961029053,-0.0057936799712479,0.0072968089953064,0.0,0.0,-0.8720260262489319,-0.3297635912895202
-0.0472131744027137,0.9753746390342712,-0.1785402745008468,-0.7411937713623047,-0.0052782059647142,0.0103093674406409,0.0,0.0,-0.6542230248451233,-0.038124144077301
-0.0490240082144737,0.9580540060997008,-0.1817691475152969,-0.7698061466217041,-0.0046055265702307,0.0134538142010569,0.0,0.0,-0.5084701776504517,-0.6127434968948364
-0.0509118065237998,0.9400906562805176,-0.1908044517040252,-0.7983661890029907,-0.0026078443042933,0.0399537906050682,0.0,0.0,-0.2314736247062683,0.5632047653198242
-0.0527936927974224,0.9214881658554076,-0.1894472241401672,-0.826775848865509,-0.001361361821182,0.024929616600275,0.0,0.0,-0.524482011795044,0.7278527021408081
-0.0546368584036827,0.9022400379180908,-0.1839901655912399,-0.8554695844650269,-0.0016824197955429,-0.0064211683347821,0.0,0.0,0.8526737689971924,0.4765076637268066
-0.0564011558890342,0.8828755021095276,-0.1768029332160949,-0.8606483340263367,-0.0013168208533897,0.0073121623136103,0.0,0.0,0.1388739347457885,0.8355153799057007
-0.0580502524971962,0.8634116649627686,-0.1638292521238327,-0.8650577664375305,-0.0023812565486878,-0.0212886463850736,0.0,0.0,0.9239778518676758,0.2701121568679809
-0.0597765929996967,0.8438186645507812,-0.1715260446071624,-0.8707999587059021,-0.0034699011594057,-0.0217729806900024,0.0,0.0,0.6575924158096313,0.9207234382629396
-0.0614078529179096,0.824074923992157,-0.1604501605033874,-0.8775123953819275,-0.0061155147850513,-0.0529120191931724,0.0,0.0,0.997278332710266,0.3575353622436523
-0.0629927664995193,0.8044969439506531,-0.1563653945922851,-0.8701381683349609,-0.0082138162106275,-0.0419657900929451,0.0,0.0,0.9993642568588256,0.7348271608352661
-0.0646885856986045,0.7857978343963623,-0.1658380776643753,-0.831096351146698,-0.0119180735200643,-0.0740848928689956,0.0,0.0,0.9587316513061525,0.3436883687973022
-0.066561222076416,0.7678595185279846,-0.1829956918954849,-0.7973014712333679,-0.0161329917609691,-0.0842984840273857,0.0,0.0,0.459858775138855,0.9346261024475098
-0.0684044808149337,0.7499476671218872,-0.1783863008022308,-0.7961533665657043,-0.0220058783888816,-0.117457702755928,0.0,0.0,-0.4043684005737304,-0.5606998205184937
-0.0703123062849044,0.7313935160636902,-0.1859142482280731,-0.824712872505188,-0.0268022660166025,-0.0959277749061584,0.0,0.0,0.832341194152832,0.4963388442993164
-0.0722925215959549,0.7134234309196472,-0.193095713853836,-0.7987673878669739,-0.0316623225808143,-0.0972013622522354,0.0,0.0,0.8134365081787109,0.8088107109069824
-0.0740922912955284,0.6955275535583496,-0.1739333420991897,-0.795507550239563,-0.0376324132084846,-0.1194017678499221,0.0,0.0,0.5497567653656006,0.410973310470581
-0.075891301035881,0.6781098246574402,-0.1741215139627456,-0.7742809653282166,-0.0433480851352214,-0.1143133416771888,0.0,0.0,0.645014762878418,0.1998292207717895
-0.0775515586137771,0.6607663035392761,-0.1611802875995636,-0.7709696888923645,-0.0481327958405017,-0.0956941246986389,0.0,0.0,-0.3893774747848511,0.9015947580337524
-0.079182431101799,0.6427708864212036,-0.1569613665342331,-0.8000028729438782,-0.0541790053248405,-0.1209243983030319,0.0,0.0,0.8554824590682983,-0.2014053463935852
-0.0806895270943641,0.6254639625549316,-0.1453534066677093,-0.7693958878517151,-0.0594847165048122,-0.1061140671372413,0.0,0.0,0.908524751663208,-0.3875524997711181
-0.0820215195417404,0.6086657643318176,-0.1288413107395172,-0.7467631101608276,-0.0637974515557289,-0.086254671216011,0.0,0.0,0.8742674589157104,0.30789315700531
-0.0832397490739822,0.592613935470581,-0.118109717965126,-0.713577151298523,-0.0674594119191169,-0.0732395499944686,0.0,0.0,0.2870286703109741,0.5523502826690674
-0.0844676941633224,0.5768412947654724,-0.1181092858314514,-0.7012203931808472,-0.0720937848091125,-0.0926874205470085,0.0,0.0,0.4198353290557861,0.1220484972000122
-0.0856589302420616,0.5608963966369629,-0.1149189323186874,-0.7088733315467834,-0.0762604400515556,-0.083333134651184,0.0,0.0,0.8171398639678955,-0.0802956223487854
-0.086931511759758,0.5454740524291992,-0.1228033080697059,-0.6856690645217896,-0.0806707218289375,-0.0882055759429931,0.0,0.0,0.8311190605163574,0.7492852210998535
-0.0879803672432899,0.5302379727363586,-0.0995295792818069,-0.6774588227272034,-0.0859783068299293,-0.1061515063047409,0.0,0.0,0.6814858913421631,-0.7003375887870789
-0.0890347510576248,0.515295147895813,-0.1018205061554908,-0.6643388271331787,-0.0895633473992347,-0.0717009082436561,0.0,0.0,0.1949681043624878,0.4094760417938232
-0.0900875106453895,0.5001407265663147,-0.1019612327218055,-0.6737312078475952,-0.0928500667214393,-0.0657342970371246,0.0,0.0,0.7171075344085693,-0.0041323900222778
-0.0912413597106933,0.4852776527404785,-0.1117416396737098,-0.660810112953186,-0.0964584723114967,-0.0721684545278549,0.0,0.0,0.709979772567749,0.4877009391784668
-0.09231748431921,0.4710898995399475,-0.1043619886040687,-0.6307808756828308,-0.0996896401047706,-0.0646234005689621,0.0,0.0,0.868004322052002,-0.0982047915458679
-0.0932981520891189,0.4567377865314483,-0.0955238491296768,-0.638044536113739,-0.1022162288427352,-0.0505316630005836,0.0,0.0,0.7505888938903809,0.6887751817703247
-0.0941305160522461,0.4430862665176391,-0.0796610862016677,-0.6069859266281128,-0.1057668402791023,-0.071012295782566,0.0,0.0,0.2487101554870605,0.5915638208389282
-0.0949864387512207,0.4293268322944641,-0.0809559971094131,-0.6118648052215576,-0.1103670373558998,-0.0920041352510452,0.0,0.0,0.8626644611358643,-0.4313463568687439
-0.0958906188607215,0.4160788059234619,-0.0855869799852371,-0.589168131351471,-0.1151704117655754,-0.0960671231150627,0.0,0.0,0.5248944759368896,-0.2708104848861694
-0.096730038523674,0.403037816286087,-0.0795209482312202,-0.5799462199211121,-0.1195670887827873,-0.087933674454689,0.0,0.0,0.5830585956573486,0.6151340007781982
-0.0975862517952919,0.3905802071094513,-0.079940028488636,-0.5541372895240784,-0.1252224594354629,-0.1131073236465454,0.0,0.0,-0.2606784105300903,-0.3355623483657837
-0.0984717383980751,0.3774788081645965,-0.0831448882818222,-0.5827495455741882,-0.1306042969226837,-0.107636734843254,0.0,0.0,0.4910846948623657,-0.1837440133094787
-999.0,0.3642643690109253,-0.0846157073974609,-0.5877789855003357,-0.1358547508716583,-0.105009339749813,0.0,0.0,-0.0608135461807251,-0.7711901664733887
-0.1003530472517013,0.3504087924957275,-0.0945999473333358,-0.6161366105079651,-0.1394717991352081,-0.0723413899540901,0.0,0.0,0.6824530363082886,-0.4017753601074219
-0.1013481169939041,0.3364293575286865,-0.0959967300295829,-0.6216428279876709,-0.1429693698883056,-0.0699514597654342,0.0,0.0,0.4198428392410278,-0.7552870512008667
-0.1023411750793457,0.3228389918804168,-0.097573347389698,-0.6041845679283142,-0.1446999013423919,-0.0346103720366954,0.0,0.0,0.8176751136779785,-0.6848140954971313
-0.1031921356916427,0.3099344074726105,-0.0852263122797012,-0.5735248923301697,-0.1445691287517547,0.0026155244559049,0.0,0.0,0.0632842779159545,-0.8254538178443909
-0.1041431427001953,0.2972068786621094,-0.0971177667379379,-0.5654721856117249,-0.1425500661134719,0.0403808876872062,0.0,0.0,0.5371603965759277,0.6488714218139648
-0.1051585227251052,0.2843031585216522,-0.102246880531311,-0.5734323263168335,-0.1418531090021133,0.0139392642304301,0.0,0.0,0.8249732255935669,-0.1574099063873291
-0.1060346588492393,0.2720423936843872,-0.088768258690834,-0.5448141098022461,-0.1406971365213394,0.023119555786252,0.0,0.0,0.2015480995178222,0.4817428588867187
-0.1069530472159385,0.2597744464874267,-0.0929025560617446,-0.5451396107673645,-0.1396333426237106,0.0212755426764488,0.0,0.0,0.5732604265213013,0.7752907276153564
-0.107805535197258,0.2478236109018325,-0.0849086120724678,-0.5311819911003113,-0.1399739533662796,-0.0068117887713015,0.0,0.0,0.2274110317230224,0.1656328439712524
-0.1086218804121017,0.2360020726919174,-0.0814951062202453,-0.5254181623458862,-0.1401165872812271,-0.0028522422071546,0.0,0.0,0.9452400207519532,0.7293862104415894
-0.1092028617858886,0.2245184332132339,-0.0569911375641822,-0.510485053062439,-0.1412195861339569,-0.0220598019659519,0.0,0.0,0.3316844701766968,-0.8588776588439941
-0.1098184585571289,0.2128018289804458,-0.0624297186732292,-0.5206586718559265,-0.1403613537549972,0.017164533957839,0.0,0.0,0.9581897258758544,0.6520378589630127
-0.1102269142866134,0.2011094689369201,-0.0409193597733974,-0.5196506381034851,-0.1402793973684311,0.001639217720367,0.0,0.0,0.9538295269012452,0.14723801612854
-0.1103950515389442,0.1897395402193069,-0.0179151929914951,-0.5052271485328674,-0.1391776502132415,0.0220346860587596,0.0,0.0,0.962306022644043,-0.131542682647705
-0.1103603392839431,0.1783868670463562,0.0013933244626969,-0.5043699741363525,-0.1371022164821624,0.0415087565779686,0.0,0.0,0.9484609365463256,-0.3903731107711792
-0.1102367416024208,0.1677080243825912,0.0100983111187815,-0.4744095206260681,-0.1348575502634048,0.0448937639594078,0.0,0.0,0.9056351184844972,0.4140245914459228
-0.1099855452775955,0.1576784998178482,0.0225073881447315,-0.4455255568027496,-0.1322555541992187,0.0520399399101734,0.0,0.0,0.797493577003479,-0.3790173530578613
-0.1095292121171951,0.1480572372674942,0.0422059819102287,-0.4273107349872589,-0.1288430541753769,0.0682499259710311,0.0,0.0,0.7193059921264648,-0.512010395526886
-0.1089834198355674,0.1382784694433212,0.0496280863881111,-0.4341945946216583,-0.1239214912056922,0.0984313115477562,0.0,0.0,0.8273909091949463,0.0099513530731201
-0.1084496527910232,0.1287051290273666,0.0485334321856498,-0.425088495016098,-0.1191034764051437,0.0963604897260665,0.0,0.0,0.8000619411468506,0.1991081237792968
-0.1077360138297081,0.1198716461658477,0.0659360736608505,-0.3921728432178497,-0.1137034967541694,0.1079995781183242,0.0,0.0,0.8733739852905273,-0.2547114491462707
-0.1069980636239051,0.1113609671592712,0.0683276802301406,-0.3778504431247711,-0.1082808077335357,0.1084536164999008,0.0,0.0,0.3295978307723999,-0.8362455368041992
-0.106391429901123,0.1031981781125068,0.0534971356391906,-0.362286776304245,-0.1011716425418853,0.1421835571527481,0.0,0.0,0.6901021003723145,-0.1168961524963378
-0.1056456565856933,0.0954440906643867,0.0668754130601883,-0.3441250920295715,-0.0935278013348579,0.1528767347335815,0.0,0.0,0.5198352336883545,0.3464066982269287
-0.1049051284790039,0.0880845412611961,0.0664551109075546,-0.3266377449035644,-0.0860008001327514,0.1505398601293563,0.0,0.0,0.4756863117218017,0.1580984592437744
-0.1042008399963378,0.0810907706618309,0.0630783289670944,-0.3104276061058044,-0.0787168741226196,0.14567831158638,0.0,0.0,0.5474264621734619,0.8653688430786133
-0.1034370437264442,0.0741433501243591,0.0707182884216308,-0.3084892928600311,-0.07310800999403,0.1121773347258567,0.0,0.0,0.6976308822631836,0.7510280609130859
-0.1027182564139366,0.0674854591488838,0.0679245442152023,-0.2957195043563843,-0.0691864714026451,0.0784307271242141,0.0,0.0,0.7169708013534546,0.7407909631729126
-0.1020915061235427,0.0610083192586898,0.060505099594593,-0.2877739667892456,-0.0670359134674072,0.04301118850708,0.0,0.0,0.4848279953002929,0.756737470626831
-0.1012724861502647,0.0548417419195175,0.0810203403234481,-0.2740283906459808,-0.066170297563076,0.0173124857246875,0.0,0.0,0.6504747867584229,0.3169928789138794
-0.1003835648298263,0.0485771037638187,0.0876978784799575,-0.278378427028656,-0.064990259706974,0.0236009024083614,0.0,0.0,0.7807142734527588,0.5568529367446899
-0.099244974553585,0.0428831689059734,0.1133050695061683,-0.2530372738838196,-0.0644454807043075,0.0108959460631012,0.0,0.0,0.2569208145141601,0.4096429347991943
-0.0980992317199707,0.0374309867620468,0.1141041293740272,-0.2423011213541031,-0.0639800578355789,0.0093082943931221,0.0,0.0,0.6233838796615601,-0.0280223488807678
-0.0967721939086914,0.0325784049928188,0.131588265299797,-0.2156223952770233,-0.0628803446888923,0.0219944901764392,0.0,0.0,0.3420097827911377,-0.5225917100906372
-0.0954010039567947,0.0277846194803714,0.1348279118537902,-0.2129653096199035,-0.0606153234839439,0.0453003719449043,0.0,0.0,0.5777410268783569,-0.6101321578025818
-0.0940480232238769,0.0235256999731063,0.1318439096212387,-0.1891481876373291,-0.0571975819766521,0.0683548599481582,0.0,0.0,0.5577517747879028,-0.725348174571991
-0.092655561864376,0.0197412818670272,0.1342687904834747,-0.1680153906345367,-0.0522775463759899,0.0984006598591804,0.0,0.0,0.3295859098434448,-0.6962358355522156
-0.091234490275383,0.0158614497631788,0.1356925666332245,-0.172226533293724,-0.0459360256791114,0.1268301457166671,0.0,0.0,0.3128875494003296,-0.7308863997459412
-0.0899638161063194,0.0120874736458063,0.1194319128990173,-0.1675145626068115,-0.0383885949850082,0.1509486138820648,0.0,0.0,0.7398152351379395,-0.7505084872245789
-0.0888847336173057,0.0084932064637541,0.099195972084999,-0.159546747803688,-0.0297660510987043,0.1724508553743362,0.0,0.0,0.9272112846374512,0.796501636505127
-0.0877540558576583,0.0052399015985429,0.1061211377382278,-0.1444704383611679,-0.0229143127799034,0.1370348781347274,0.0,0.0,0.7197055816650391,0.0939017534255981
-0.0865862816572189,0.0021752452012151,0.1098498925566673,-0.1361185163259506,-0.016080692410469,0.1366724669933319,0.0,0.0,0.5705773830413818,-0.4296188354492187
-0.0852903351187706,-0.0010228418977931,0.1222525984048843,-0.1420752704143524,-0.008832168765366,0.1449705213308334,0.0,0.0,0.6460952758789062,0.7013487815856934
-0.0837595909833908,-0.0033812904730439,0.1344633400440216,-0.1048285439610481,0.0095909871160984,0.3685346245765686,1.0,1.0,-0.1046589612960815,-0.8545004725456238
-0.0824069008231163,-0.0054458044469356,0.1191985011100769,-0.0921272411942482,0.0246183704584836,0.2994804084300995,1.0,1.0,-0.5146954655647278,-0.9191656708717346
-0.0812583938241005,-0.0071247960440814,0.1016089171171188,-0.0749047622084617,0.0377208404242992,0.2620742619037628,1.0,1.0,-0.495307981967926,-0.8957747220993042
