x_pos,y_pos,x_vel,y_vel,angle,ang_vel,leg_1,leg_2,main_booster,lat_booster
-0.0016164779663085,1.4034433364868164,-0.1642360240221023,-0.3323067128658294,0.0023136935196816,0.0456809699535369,0.0,0.0,-0.4503804685082591,-0.7348149250123847
-0.0033804893027991,1.3958046436309814,-0.1804982721805572,-0.339504987001419,0.0063755777664482,0.0812461748719215,0.0,0.0,0.726107572222209,0.6954701524025149
-0.0050361631438136,1.388614535331726,-0.1691364645957946,-0.3195798993110657,0.0099031096324324,0.0705572441220283,0.0,0.0,0.6665114457587975,-0.9709600002358773
-0.00700464239344,1.3819929361343384,-0.2026413679122924,-0.2943410277366638,0.0156300719827413,0.1145498007535934,0.0,0.0,-0.0889598050798539,-0.8736986089448451
-0.0091243740171194,1.375192165374756,-0.2196173667907714,-0.3023527860641479,0.0231904052197933,0.1512205302715301,0.0,0.0,0.2117749321261628,-0.7071385419448071
-0.0112936971709132,1.3688098192214966,-0.2266285866498947,-0.2838415503501892,0.0327865742146968,0.1919412165880203,0.0,0.0,-0.3985900526367845,0.9537566527226976
-0.013489437289536,1.3622509241104126,-0.2279213666915893,-0.2917121052742004,0.0410361886024475,0.1650075018405914,0.0,0.0,-0.1462885051033198,0.5013941552938163
-0.0157354362308979,1.3555164337158203,-0.2321663647890091,-0.2995384931564331,0.0485185161232948,0.1496606171131134,0.0,0.0,0.4521014848376585,0.9098822374679348
-0.0180579181760549,1.3497177362442017,-0.2384474277496338,-0.2579335570335388,0.0546508729457855,0.1226586923003196,0.0,0.0,0.7552385847677259,-0.626827190662482
-0.0205735210329294,1.3448944091796875,-0.259473979473114,-0.214687630534172,0.0624910108745098,0.156817078590393,0.0,0.0,0.5828908314346888,0.5528431425657869
-0.0230937004089355,1.340756058692932,-0.2595325410366058,-0.184254914522171,0.0699337124824523,0.1488675028085708,0.0,0.0,0.3610021448785718,-0.5238515849617622
-0.0257241241633892,1.337090015411377,-0.2722262740135193,-0.163383200764656,0.0790335536003112,0.1820137500762939,0.0,0.0,-0.8153931726330759,-0.6134632966918009
-0.0284948348999023,1.3332432508468628,-0.2876662909984588,-0.1715627759695053,0.0895467028021812,0.2102821320295334,0.0,0.0,0.4019805533795961,-0.6077998566326992
-0.0313788428902626,1.3296642303466797,-0.3007993400096893,-0.1598535180091858,0.1018640473484993,0.246369406580925,0.0,0.0,0.9328190336219072,-0.7054443435654121
-0.0343428626656532,1.3273723125457764,-0.3111055791378021,-0.1029407680034637,0.1164830327033996,0.292406290769577,0.0,0.0,-0.7575313287815673,-0.6972676432134266
-0.0374547950923442,1.3248863220214844,-0.3274608850479126,-0.111828826367855,0.1326887756586074,0.3241444528102875,0.0,0.0,0.3561077913178638,-0.98141671919684
-0.0407121665775775,1.323290228843689,-0.3444463610649109,-0.0727148130536079,0.1513729691505432,0.3737178444862366,0.0,0.0,0.0864637608161091,0.5554950704857562
-0.0439650528132915,1.3219120502471924,-0.3434431850910187,-0.0632036030292511,0.1695645898580551,0.3638651669025421,0.0,0.0,0.8471208279377811,-0.9489297496845376
-0.0474303252995014,1.3217058181762695,-0.3671660423278808,-0.0116520533338189,0.1902845799922943,0.414437472820282,0.0,0.0,-0.3507019233350035,-0.9201724723190988
-0.0510824210941791,1.3213016986846924,-0.3882445096969604,-0.0210877247154712,0.2135212868452072,0.4647757411003113,0.0,0.0,0.0804778226886986,-0.9478184104083864
-0.0549223907291889,1.3214606046676636,-0.4091854095458984,0.0032178843393921,0.2390620708465576,0.5108615159988403,0.0,0.0,0.1937985431659605,-0.8322515579839054
-0.0589988715946674,1.3218897581100464,-0.434734433889389,0.0144405765458941,0.2667018473148346,0.552844762802124,0.0,0.0,0.5813703901076719,-0.7582585466713913
-0.0632460564374923,1.322933316230774,-0.4537085592746734,0.0408152416348457,0.2965259253978729,0.5965351462364197,0.0,0.0,0.8305267652734507,-0.5468155706925926
-0.0676643401384353,1.324316143989563,-0.4722279608249664,0.054955169558525,0.3280898034572601,0.6313343644142151,0.0,0.0,-0.6804647287300989,-0.8822170231793827
-0.0722742080688476,1.3254934549331665,-0.49353688955307,0.0445668660104274,0.3622601330280304,0.6834678053855896,0.0,0.0,-0.5427186749996573,0.6340727110641886
-0.0769547447562217,1.3265085220336914,-0.4996500015258789,0.0367642454802989,0.3958123624324798,0.6710452437400818,0.0,0.0,-0.3243267826343652,0.7312907640478943
-0.0816931724548339,1.3273950815200806,-0.503936767578125,0.0306779183447361,0.4282009303569793,0.6477721929550171,0.0,0.0,0.9575096313486896,-0.8376598015002592
-0.0871644020080566,1.3293118476867676,-0.5783432722091675,0.0752961635589599,0.4623313546180725,0.6826084852218628,0.0,0.0,-0.2726381053862312,0.9174805239851268
-0.0926987677812576,1.3311071395874023,-0.5830850005149841,0.0695676505565643,0.4952821731567383,0.6590172052383423,0.0,0.0,-0.2163525139853563,-0.61259463737398
-0.0983876213431358,1.3326990604400637,-0.5994714498519897,0.0593314729630947,0.5298934578895569,0.6922274231910706,0.0,0.0,-0.3690698854078182,0.9636537712344988
-0.1041255965828895,1.334192991256714,-0.6022061109542847,0.0549242831766605,0.5626826882362366,0.6557852625846863,0.0,0.0,-0.8998517990112305,0.9953244924545288
-0.109916403889656,1.3355684280395508,-0.6056035757064819,0.0496277287602424,0.5939159989356995,0.6246660947799683,0.0,0.0,-0.9257367253303528,0.9982712268829346
-0.1157671958208084,1.336838722229004,-0.6097399592399597,0.0450359508395195,0.6235489249229431,0.5926586389541626,0.0,0.0,-0.9892421960830688,0.9996099472045898
-0.1216698661446571,1.3379919528961182,-0.6130529642105103,0.0400430560111999,0.651511549949646,0.5592527985572815,0.0,0.0,-0.9905261397361756,0.995718240737915
-0.1276217401027679,1.3390473127365112,-0.6159210801124573,0.0361126996576786,0.6774716377258301,0.5192012190818787,0.0,0.0,-0.9988245964050292,0.9996371269226074
-0.1336259841918945,1.340010166168213,-0.6191150546073914,0.0325472578406333,0.7013699412345886,0.477966159582138,0.0,0.0,-0.996417224407196,0.9994194507598876
-0.1396820992231369,1.3408665657043457,-0.6224853992462158,0.028365671634674,0.7233585715293884,0.4397727847099304,0.0,0.0,-0.999878466129303,0.999675750732422
-0.1457902938127517,1.3416343927383425,-0.6257370710372925,0.0251991860568523,0.7431445121765137,0.3957186639308929,0.0,0.0,-0.9796051383018494,0.9970217943191528
-0.1519606560468673,1.3423068523406982,-0.6302334070205688,0.0216623842716217,0.7609803676605225,0.3567177355289459,0.0,0.0,-0.9999526143074036,0.9974442720413208
-0.1581825315952301,1.3428857326507568,-0.633573055267334,0.0184047762304544,0.7766008377075195,0.3124094009399414,0.0,0.0,-0.998688817024231,0.9987753629684448
-0.164472296833992,1.3433589935302734,-0.6389192342758179,0.0144223487004637,0.7904613018035889,0.277209460735321,0.0,0.0,-0.9983915090560912,0.9970259666442872
-0.1708041131496429,1.3437496423721311,-0.6411594152450562,0.0119521729648113,0.801695704460144,0.2246886938810348,0.0,0.0,-0.9997682571411132,0.9793918132781982
-0.1771777123212814,1.3440475463867188,-0.6435004472732544,0.0089800059795379,0.8104335069656372,0.1747566163539886,0.0,0.0,-0.9993727803230286,0.9972047805786132
-0.1835963279008865,1.344260334968567,-0.6461325287818909,0.0064480202272534,0.8165750503540039,0.122831717133522,0.0,0.0,-0.9995003938674928,0.9812724590301514
-0.1900679618120193,1.3443613052368164,-0.649996280670166,0.0024659566115587,0.8206697702407837,0.081893965601921,0.0,0.0,-0.999114453792572,0.9735054969787598
-0.196586325764656,1.344362497329712,-0.6530240774154663,-0.000797654793132,0.8223878741264343,0.0343621708452701,0.0,0.0,-0.9994938969612122,0.987167477607727
-0.2031514197587967,1.3442702293395996,-0.6559701561927795,-0.0037211521994322,0.8216078281402588,-0.0156007586047053,0.0,0.0,-0.9999790787696838,0.9910273551940918
-0.2097854614257812,1.3440709114074707,-0.6615460515022278,-0.0075270780362188,0.818916916847229,-0.0538187213242054,0.0,0.0,-0.9999412894248962,0.97121262550354
-0.2164895087480545,1.343759059906006,-0.6672782897949219,-0.0116410087794065,0.8144088983535767,-0.0901608020067215,0.0,0.0,-0.9992863535881042,0.9064180850982666
-0.2232511937618255,1.3433367013931274,-0.6715768575668335,-0.0155445085838437,0.8078186511993408,-0.1318053156137466,0.0,0.0,-0.999900996685028,0.95734965801239
-0.2300546616315841,1.3428308963775637,-0.6737368106842041,-0.0179101731628179,0.7984209060668945,-0.1879545003175735,0.0,0.0,-0.9879269599914552,0.9484682083129884
-0.2369196414947509,1.3422183990478516,-0.6783298850059509,-0.0216828566044569,0.7869299650192261,-0.2298186272382736,0.0,0.0,-0.985750377178192,0.9120285511016846
-0.2438276708126068,1.341509461402893,-0.6806817650794983,-0.024826418608427,0.7728579044342041,-0.281440794467926,0.0,0.0,-0.9965257048606871,0.8673090934753418
-0.2507952749729156,1.3406955003738403,-0.6849108338356018,-0.0285834167152643,0.7566330432891846,-0.3244966268539428,0.0,0.0,-0.7494683265686035,0.9766616821289062
-0.2577963471412658,1.339795470237732,-0.6858930587768555,-0.0312076434493064,0.737492561340332,-0.3828097879886627,0.0,0.0,-0.9989029169082642,0.9926836490631104
-0.2648507058620453,1.338778018951416,-0.6893998980522156,-0.0356894172728061,0.71628737449646,-0.4241036772727966,0.0,0.0,-0.9992763996124268,0.9857537746429444
-0.2719453871250152,1.3376758098602295,-0.6909757852554321,-0.0384865961968898,0.6923131942749023,-0.4794840216636657,0.0,0.0,-0.9087769985198976,0.9720239639282228
-0.2790728211402893,1.3364883661270142,-0.69159334897995,-0.0413667112588882,0.6654583215713501,-0.5370978713035583,0.0,0.0,-0.9978126883506776,0.4087481498718261
-0.2863014340400696,1.3351250886917114,-0.7010564208030701,-0.0494550503790378,0.6383492946624756,-0.5421808958053589,0.0,0.0,-0.9879825115203856,0.44808030128479
-0.2936298847198486,1.3335864543914795,-0.7103745341300964,-0.0575451627373695,0.6109738945960999,-0.5475084185600281,0.0,0.0,-0.9916926622390748,0.7595031261444092
-0.3010019361972809,1.331923246383667,-0.712567150592804,-0.0627412796020507,0.5815504193305969,-0.588470458984375,0.0,0.0,-0.9981678128242492,0.0381491184234619
-0.3084711134433746,1.3300862312316897,-0.721550703048706,-0.0708424821496009,0.5518386363983154,-0.5942360162734985,0.0,0.0,-0.9949191212654114,0.1703765392303466
-0.316035658121109,1.3280762434005735,-0.7303505539894104,-0.0789462476968765,0.5218284726142883,-0.6002029180526733,0.0,0.0,-0.9981151819229126,-0.1508654356002807
-0.3236934244632721,1.3258934020996094,-0.738951563835144,-0.0870527252554893,0.4915105104446411,-0.6063593029975891,0.0,0.0,-0.9903272986412048,0.3924710750579834
-0.3314424157142639,1.323538064956665,-0.7473379969596863,-0.095162034034729,0.4608758389949798,-0.6126941442489624,0.0,0.0,-0.9816719889640808,0.417849063873291
-0.3392800688743591,1.321010947227478,-0.7554928064346313,-0.1032743081450462,0.4299159944057464,-0.6191975474357605,0.0,0.0,-0.9805095791816713,0.3410602807998657
-0.3472040593624115,1.318312644958496,-0.763398289680481,-0.1113896742463111,0.3986229598522186,-0.6258608102798462,0.0,0.0,-0.9804012179374696,0.5450432300567627
-0.3551650941371918,1.3154664039611816,-0.765194296836853,-0.1181820631027221,0.3657168745994568,-0.658122181892395,0.0,0.0,-0.9863231182098388,0.4366533756256103
-0.3632068037986755,1.312450885772705,-0.7725399136543274,-0.1263103783130645,0.3324630260467529,-0.6650768518447876,0.0,0.0,-0.9772653579711914,0.9391076564788818
-0.3712663650512695,1.3092937469482422,-0.7720461487770081,-0.1329012960195541,0.2972389459609985,-0.7044819593429565,0.0,0.0,-0.979674994945526,0.9000263214111328
-0.3793436586856842,1.3060009479522705,-0.7715763449668884,-0.1394061744213104,0.2600986957550049,-0.7428059577941895,0.0,0.0,-0.9596775770187378,0.3942797183990478
-0.387491762638092,1.3025434017181396,-0.7779265642166138,-0.1475640088319778,0.2225914299488067,-0.750146210193634,0.0,0.0,-0.8520841002464294,0.9675740003585817
-0.3956497311592102,1.2989531755447388,-0.7766939401626587,-0.1541446596384048,0.1831702440977096,-0.7884246110916138,0.0,0.0,-0.7141860127449036,0.9960434436798096
-0.4037834703922272,1.295226812362671,-0.7713606953620911,-0.1609730720520019,0.1411280035972595,-0.8408459424972534,0.0,0.0,-0.94705468416214,0.9989197254180908
-0.4119008183479309,1.291351079940796,-0.7671781778335571,-0.1686344891786575,0.0968202501535415,-0.8861562013626099,0.0,0.0,-0.2175766825675964,0.6422028541564941
-0.4200146198272705,1.287322163581848,-0.7647944688796997,-0.1766925007104873,0.0507004559040069,-0.9223971366882324,0.0,0.0,-0.3657686710357666,0.9847350120544434
-0.4281021654605865,1.2831374406814575,-0.7597750425338745,-0.185046374797821,0.0023307830560952,-0.967395007610321,0.0,0.0,0.9302158355712892,-0.0209980010986328
-0.4362436830997467,1.280192732810974,-0.7647120356559753,-0.1315188854932785,-0.0464841127395629,-0.9762994647026062,0.0,0.0,0.9242982864379884,0.9653551578521729
-0.4441971182823181,1.278521180152893,-0.7438386082649231,-0.0766835361719131,-0.0974484905600547,-1.0192896127700806,0.0,0.0,0.8245265483856201,0.59220290184021
-0.4521771371364593,1.2780704498291016,-0.744800329208374,-0.0243513267487287,-0.1503550708293914,-1.0581333637237549,0.0,0.0,0.9373538494110109,-0.946041703224182
-0.4603626728057861,1.278096079826355,-0.7669337391853333,-0.0048883515410125,-0.20208440721035,-1.0345882177352903,0.0,0.0,0.6332552433013916,0.937779426574707
-0.4682894647121429,1.2790988683700562,-0.7394068241119385,0.036391369998455,-0.2560565173625946,-1.079444169998169,0.0,0.0,0.8462426662445068,-0.8837341666221619
-0.4762505888938904,1.2809655666351318,-0.744672954082489,0.0731164142489433,-0.3088902533054352,-1.0566766262054443,0.0,0.0,0.3485764265060425,0.6417663097381592
-0.4840435087680816,1.2834820747375488,-0.7269710302352905,0.0997679010033607,-0.3635487854480743,-1.0931726694107056,0.0,0.0,0.7021758556365967,-0.9851283431053162
-0.4916588366031647,1.2869187593460083,-0.7117434144020081,0.1392072588205337,-0.4166299104690552,-1.0616239309310913,0.0,0.0,0.9116262197494508,-0.9848770499229432
-0.498957872390747,1.291112184524536,-0.682869017124176,0.1716287583112716,-0.4679392874240875,-1.0261894464492798,0.0,0.0,0.5981458425521851,-0.9949645400047302
-0.5061386823654175,1.2956269979476929,-0.6736981868743896,0.1848688870668411,-0.5176017880439758,-0.9932515025138856,0.0,0.0,0.3768270015716553,-0.97888445854187
-0.5131206512451172,1.300412893295288,-0.6564540266990662,0.1960602551698684,-0.5656177997589111,-0.9603217244148254,0.0,0.0,0.4595177173614502,-0.9994155764579772
-0.5197421312332153,1.3056271076202393,-0.623116135597229,0.2144595086574554,-0.6118755340576172,-0.9251561164855956,0.0,0.0,-0.2835811376571655,-0.989638328552246
-0.5263791680335999,1.3107311725616455,-0.6268497705459595,0.208853930234909,-0.6569638848304749,-0.901767373085022,0.0,0.0,-0.7953991293907166,-0.9985722303390504
-0.5330336093902588,1.3157553672790527,-0.6312075853347778,0.2049790322780609,-0.7003030180931091,-0.8667839765548706,0.0,0.0,-0.7409549951553345,-0.994774043560028
-0.5396940112113953,1.3206969499588013,-0.6342456340789795,0.2010698318481445,-0.7420153021812439,-0.8342472910881042,0.0,0.0,-0.8455460667610168,-0.996057629585266
-0.546346127986908,1.325542449951172,-0.6355403065681458,0.1965460926294326,-0.7824324369430542,-0.808343768119812,0.0,0.0,-0.8777022957801819,-0.9923491477966307
-0.5529921650886536,1.3302860260009766,-0.6370359659194946,0.1919020712375641,-0.8214845657348633,-0.781044065952301,0.0,0.0,-0.9098119735717772,-0.979910969734192
-0.5596346259117126,1.3349539041519165,-0.6391005516052246,0.1888260245323181,-0.858599841594696,-0.7423063516616821,0.0,0.0,-0.9251273274421692,-0.9560633301734924
-0.5662477016448975,1.339535355567932,-0.6381182074546814,0.1851296871900558,-0.8942922353744507,-0.7138492465019226,0.0,0.0,-0.9593517184257508,-0.9211152791976928
-0.5728381872177124,1.3440358638763428,-0.6379180550575256,0.1819249242544174,-0.9282572865486144,-0.6793013215065002,0.0,0.0,-0.944072961807251,-0.9369984269142152
-0.5794037580490112,1.348477482795715,-0.6376208066940308,0.1800252050161361,-0.9600598812103271,-0.6360520720481873,0.0,0.0,-0.9498597979545592,-0.8835539221763611
-0.5859246253967285,1.3528234958648682,-0.6347146034240723,0.1761190146207809,-0.9905681014060974,-0.6101642847061157,0.0,0.0,-0.9491372108459472,-0.7858870029449463
-0.5923996567726135,1.35708487033844,-0.6317320466041565,0.1728859394788742,-1.01953387260437,-0.5793165564537048,0.0,0.0,-0.964994490146637,-0.8896965384483337
-0.5988300442695618,1.3612769842147827,-0.6289742588996887,0.1706427037715912,-1.0465748310089111,-0.5408192873001099,0.0,0.0,-0.9388486742973328,-0.7682310342788696
-0.6052085161209106,1.365375280380249,-0.6251152157783508,0.167071908712387,-1.0721980333328247,-0.5124629139900208,0.0,0.0,-0.943903923034668,-0.7620900273323059
-0.6115332841873169,1.369392991065979,-0.6211169958114624,0.1642876416444778,-1.0961260795593262,-0.4785618185997009,0.0,0.0,-0.9487301111221312,-0.7971015572547913
-0.6178052425384521,1.373337984085083,-0.6171995401382446,0.1620354056358337,-1.1181451082229614,-0.4403814673423767,0.0,0.0,-0.9440460205078124,-0.7270027995109558
-0.6240040063858032,1.377172827720642,-0.6107336282730103,0.1575961858034134,-1.1391957998275757,-0.4210143685340881,0.0,0.0,-0.9168596267700196,-0.8823300004005432
-0.6301401257514954,1.3809128999710083,-0.6054548025131226,0.1541361808776855,-1.158820867538452,-0.3925014734268188,0.0,0.0,-0.8530948758125305,-0.8719320297241211
-0.6361979246139526,1.38455069065094,-0.5984176397323608,0.1501903533935547,-1.1773114204406738,-0.3698101341724396,0.0,0.0,-0.859096348285675,-0.8419746160507202
-0.6421808004379272,1.388108253479004,-0.591866135597229,0.1475815027952194,-1.1941452026367188,-0.3366751968860626,0.0,0.0,-0.8237252831459045,-0.9222777485847472
-0.6480792164802551,1.3915692567825315,-0.5841379165649414,0.1440138667821884,-1.2097278833389282,-0.3116532862186432,0.0,0.0,-0.8356480002403259,-0.8763564825057983
-0.6538993120193481,1.3949369192123413,-0.5770165920257568,0.1406833082437515,-1.2239171266555786,-0.2837845981121063,0.0,0.0,-0.8501670956611633,-0.8942428231239319
-0.6596370339393616,1.3982290029525757,-0.5695582628250122,0.1383888125419616,-1.236355543136597,-0.2487678825855255,0.0,0.0,-0.8188353776931763,-0.8933929800987244
-0.6652886867523193,1.401434063911438,-0.561585545539856,0.1354614794254303,-1.247289776802063,-0.2186844646930694,0.0,0.0,-0.7734889984130859,-0.828794002532959
-0.6708582639694214,1.404539704322815,-0.5538855791091919,0.1318402886390686,-1.2569398880004885,-0.1930033415555954,0.0,0.0,-0.6769917011260986,-0.8558909296989441
-0.6763478517532349,1.407581090927124,-0.5466108322143555,0.1302891224622726,-1.2645282745361328,-0.1517685353755951,0.0,0.0,-0.6879205703735352,-0.8903933167457581
-0.6817596554756165,1.410562515258789,-0.5395467877388,0.1290237009525299,-1.2699313163757324,-0.1080597639083862,0.0,0.0,-0.5762456059455872,-0.8850739002227783
-0.6870877742767334,1.4134670495986938,-0.5317280292510986,0.1267555654048919,-1.2735480070114136,-0.0723334699869155,0.0,0.0,-0.6712411642074585,-0.8505508303642273
-0.692329466342926,1.416283369064331,-0.5235549211502075,0.1238255724310875,-1.2756316661834717,-0.0416743233799934,0.0,0.0,-0.5105810761451721,-0.6690502166748047
-0.6974804997444153,1.418979287147522,-0.5147312879562378,0.1189925149083137,-1.2769019603729248,-0.0254057794809341,0.0,0.0,-0.6899129748344421,-0.8292840719223022
-0.7025375366210938,1.421575665473938,-0.505698561668396,0.1153790727257728,-1.2769252061843872,-0.0004654525255318,0.0,0.0,-0.6567521095275879,-0.6615751385688782
-0.7074968814849854,1.4240667819976809,-0.4962526857852936,0.1114111468195915,-1.2758487462997437,0.0215291380882263,0.0,0.0,-0.732134222984314,-0.6197105646133423
-0.7123647928237915,1.4264402389526367,-0.4873654842376709,0.1067611426115036,-1.273882508277893,0.0393253527581691,0.0,0.0,-0.5283513069152832,-0.5261420607566833
