x_pos,y_pos,x_vel,y_vel,angle,ang_vel,leg_1,leg_2,main_booster,lat_booster
-0.0015619278419762,1.4031648635864258,-0.1582663357257843,-0.3446858823299408,0.0018484927713871,0.0364700630307197,0.0,0.0,0.7787240419909558,0.6314678641463546
-0.0030500411521643,1.3957148790359497,-0.1495600044727325,-0.3311071395874023,0.002586705610156,0.0147661324590444,0.0,0.0,0.9300358904858316,-0.8382178270273946
-0.0044656754471361,1.3885067701339722,-0.1443619132041931,-0.3203646540641784,0.0053606661967933,0.0554843917489051,0.0,0.0,0.7486972061035615,-0.6927069079350232
-0.0061022760346531,1.3816285133361816,-0.1674835830926895,-0.305724173784256,0.0091366516426205,0.0755264908075332,0.0,0.0,-0.2879504147988674,0.825356753397205
-0.0076828957535326,1.3742939233779907,-0.1598129570484161,-0.3259889185428619,0.0108713051304221,0.0346963591873645,0.0,0.0,0.7516020215272354,-0.7531409028360554
-0.0091883661225438,1.3673641681671145,-0.1540756970643997,-0.3080256581306457,0.01436806935817,0.0699415504932403,0.0,0.0,-0.5101810977881345,-0.6529439136983739
-0.0107609750702977,1.3599731922149658,-0.1620388925075531,-0.3285330533981323,0.0190914124250412,0.0944753438234329,0.0,0.0,0.8503913260298401,0.85739388158751
-0.0121052740141749,1.3532192707061768,-0.1377337276935577,-0.3002203702926636,0.0223548468202352,0.0652746260166168,0.0,0.0,0.0487204083289036,-0.7285179010413405
-0.0135326385498046,1.346807837486267,-0.1473102271556854,-0.2850302457809448,0.0268898233771324,0.0907077938318252,0.0,0.0,-0.7912027990623747,-0.990262586043075
-0.0150382993742823,1.339939832687378,-0.1569439172744751,-0.3053703606128692,0.0331997349858284,0.1262097954750061,0.0,0.0,-0.4655327558579751,0.6640852892256519
-0.0164797790348529,1.3326159715652466,-0.148793488740921,-0.3256184160709381,0.0377924814820289,0.0918632224202156,0.0,0.0,-0.6198185604495228,0.8599537042245498
-0.017836570739746,1.3248347043991089,-0.1381550729274749,-0.3458946347236633,0.0402469709515571,0.0490941926836967,0.0,0.0,-0.2052872968852446,-0.947605618135022
-0.0192383769899606,1.3165949583053589,-0.1438883692026138,-0.3663120865821838,0.0439186654984951,0.0734407752752304,0.0,0.0,-0.3577041132731868,0.7168927462642367
-0.0205589290708303,1.3078930377960205,-0.1338879019021988,-0.3868132531642914,0.0457282848656177,0.0361959151923656,0.0,0.0,0.8728334245554423,-0.6956461261599727
-0.0217822082340717,1.3001465797424316,-0.125688686966896,-0.3443888127803802,0.0490521602332592,0.0664835646748542,0.0,0.0,-0.8067669133958475,0.6729481371946676
-0.022916030138731,1.2919368743896484,-0.114819549024105,-0.3649290204048157,0.0504817627370357,0.0285946037620306,0.0,0.0,0.8693442634976363,-0.8397310732637983
-0.0239635463804006,1.2847349643707275,-0.107897475361824,-0.3201947212219238,0.0535961724817752,0.0622939951717853,0.0,0.0,0.2544920492471496,0.9841924408642336
-0.0247875209897756,1.277506947517395,-0.0832541957497596,-0.3212742507457733,0.054450761526823,0.0170931406319141,0.0,0.0,0.4048006893404929,-0.9172019330631872
-0.0255887024104595,1.2708518505096436,-0.0825464203953743,-0.2958763241767883,0.0568544268608093,0.0480775944888591,0.0,0.0,0.5761522758605937,0.9247898287039344
-0.0263922698795795,1.264543533325195,-0.0804323703050613,-0.280375599861145,0.0569245256483554,0.0014021734241396,0.0,0.0,0.5984166364080465,0.6536930034552783
-0.0270064361393451,1.2588850259780884,-0.0600742883980274,-0.2514385282993316,0.0556018501520156,-0.0264559984207153,0.0,0.0,0.8392617381942675,-0.6500743095758039
-0.0276365280151367,1.2534972429275513,-0.0626058280467987,-0.2394410222768783,0.0552005432546138,-0.0080268662422895,0.0,0.0,-0.3099814072879603,-0.6896849406552322
-0.0282578468322753,1.2476447820663452,-0.0623936466872692,-0.2601162493228912,0.0554552674293518,0.0050951386801898,0.0,0.0,0.0752730014430476,0.6343183144637544
-0.0287347789853811,1.2416380643844604,-0.0462966635823249,-0.2669166028499603,0.0540828630328178,-0.0274507943540811,0.0,0.0,0.3637558795058213,-0.7128453879338827
-0.0293702129274606,1.2359538078308103,-0.0629338175058364,-0.2526177763938904,0.0534783825278282,-0.0120906364172697,0.0,0.0,-0.390372351584237,0.6825825901706838
-0.0299048423767089,1.22979474067688,-0.0513599440455436,-0.2736620306968689,0.0513914786279201,-0.0417379215359687,0.0,0.0,0.701394351066118,-0.938727687278434
-0.0304865837097167,1.2242966890335083,-0.0574859976768493,-0.2443300038576126,0.0507170036435127,-0.0134895220398902,0.0,0.0,-0.5011886517313471,-0.7996403622521143
-0.0310819633305072,1.2183411121368408,-0.0603396520018577,-0.2647197246551513,0.0515085160732269,0.0158303491771221,0.0,0.0,0.4525076429699755,-0.6125616278439683
-0.0318205840885639,1.2129372358322144,-0.0751492008566856,-0.2402162104845047,0.0527749136090278,0.0253280065953731,0.0,0.0,-0.5599859070905582,-0.9228280323170608
-0.0325675010681152,1.207063913345337,-0.0774007439613342,-0.2611356675624847,0.0554590001702308,0.0536819696426391,0.0,0.0,-0.5064456158753845,0.8448998836566758
-0.033177088946104,1.200745701789856,-0.0614243075251579,-0.2808250188827514,0.0559176057577133,0.0091721285134553,0.0,0.0,0.1871337457506663,-0.7466036622746155
-0.033856201916933,1.194424390792847,-0.0693162605166435,-0.2810000777244568,0.0573005937039852,0.0276598744094371,0.0,0.0,0.6706264220053588,-0.8423296304223904
-0.0346694961190223,1.1888511180877686,-0.0837552770972251,-0.2477963268756866,0.0597008131444454,0.0480043701827526,0.0,0.0,0.1588335757851648,-0.7173823731026558
-0.035531997680664,1.1831804513931274,-0.0895550996065139,-0.2521645426750183,0.0629684925079345,0.0653536170721054,0.0,0.0,-0.2136432074022591,-0.6820063460454566
-0.0363729484379291,1.177046298980713,-0.0882173851132392,-0.2728097140789032,0.0670460984110832,0.0815521329641342,0.0,0.0,0.7454168206863236,0.8772802002849012
-0.0371021255850791,1.171663761138916,-0.0747873112559318,-0.239317387342453,0.0688967481255531,0.037012793123722,0.0,0.0,0.0870774809289944,0.8806695609661209
-0.0377264022827148,1.1662696599960327,-0.0619978196918964,-0.2397150248289108,0.0684728771448135,-0.008477333933115,0.0,0.0,-0.8009061158055624,-0.8704284504637334
-0.0383383743464946,1.1604154109954834,-0.0618864707648754,-0.2602178752422333,0.0691485553979873,0.0135136116296052,0.0,0.0,-0.5651142297055218,0.6621246984193783
-0.0388241782784462,1.154113531112671,-0.0474869571626186,-0.2800392508506775,0.0680647492408752,-0.0216759480535984,0.0,0.0,-0.1529919070119088,0.6584855317478847
-0.0391772277653217,1.147357702255249,-0.0322824642062187,-0.3001223504543304,0.065079815685749,-0.0596987903118133,0.0,0.0,0.0582866326812265,-0.946615272781404
-0.0396401397883892,1.140881061553955,-0.0446585714817047,-0.2877825796604156,0.0634640827775001,-0.0323149859905242,0.0,0.0,-0.9948362708091736,0.9475101232528688
-0.0399331077933311,1.1339508295059204,-0.0248240865767002,-0.3078292310237884,0.0590425729751586,-0.0884302482008934,0.0,0.0,-0.9716655611991882,0.6540331840515137
-0.0400855056941509,1.126558780670166,-0.0086975544691085,-0.3282859623432159,0.0525751113891601,-0.1293493062257766,0.0,0.0,-0.9909050464630128,-0.3676598072052002
-0.0401571281254291,1.1187074184417725,-7.547772111138329e-05,-0.3487206697463989,0.0455699488520622,-0.140103280544281,0.0,0.0,-0.887944221496582,-0.254194438457489
-0.040147591382265,1.1103966236114502,0.0085947159677743,-0.3691563010215759,0.0380252748727798,-0.1508934944868087,0.0,0.0,-0.980713427066803,-0.7588931918144226
-0.0401115417480468,1.1016156673431396,0.0103727933019399,-0.3901130557060241,0.0313349813222885,-0.1338057368993759,0.0,0.0,-0.994620680809021,0.4204680919647217
-0.0399934761226177,1.0923752784729004,0.0191266816109418,-0.4105490148067474,0.0241020862013101,-0.1446576863527298,0.0,0.0,-0.9405571222305298,0.3354489803314209
-0.0397931113839149,1.0826756954193115,0.0279169287532567,-0.4309858977794647,0.016325332224369,-0.1555351912975311,0.0,0.0,-0.9773173928260804,-0.8180700540542603
-0.0395891182124614,1.0725222826004028,0.0268214978277683,-0.4512108564376831,0.0099883647635579,-0.1267393827438354,0.0,0.0,-0.9593589901924132,-0.9105907678604126
-0.0393766388297081,1.0619056224822998,0.0263178348541259,-0.4718265235424042,0.0049798674881458,-0.1001698598265647,0.0,0.0,-0.9486770629882812,-0.857718825340271
-0.0391325950622558,1.0508288145065308,0.0287108086049556,-0.4922938346862793,0.000723838165868,-0.0851206257939338,0.0,0.0,-0.949094295501709,-0.9552269577980042
-0.0388878807425498,1.0392986536026,0.0272244401276111,-0.5124506950378418,-0.001998689956963,-0.0544506013393402,0.0,0.0,-0.9057387113571168,-0.2735699415206909
-0.0385595336556434,1.0273088216781616,0.0361521653831005,-0.5328850150108337,-0.0052692973986268,-0.0654122903943061,0.0,0.0,-0.9169861078262328,-0.8706260919570923
-0.038215734064579,1.0148680210113523,0.0365044511854648,-0.552932620048523,-0.0073662791401147,-0.0419393852353096,0.0,0.0,-0.9420562386512756,-0.8357352614402771
-0.0378376021981239,1.001965045928955,0.0392243452370166,-0.573476254940033,-0.0087615111842751,-0.0279044564813375,0.0,0.0,-0.9869210124015808,-0.4502503275871277
-0.0373751632869243,0.988602340221405,0.0482068508863449,-0.5939105153083801,-0.0107057401910424,-0.0388847067952156,0.0,0.0,-0.9404371976852416,-0.8438310623168945
-0.0368846878409385,0.9747886061668396,0.0501395352184772,-0.6139495968818665,-0.0117827970534563,-0.0215408764779567,0.0,0.0,-0.951539933681488,-0.9597837924957277
-0.0363681800663471,0.960520088672638,0.0518073365092277,-0.6341528296470642,-0.011937559582293,-0.0030952112283557,0.0,0.0,-0.8599316477775574,-0.2967370748519897
-0.0357670783996582,0.9457919597625732,0.0608287863433361,-0.6545870900154114,-0.0126412045210599,-0.0140728428959846,0.0,0.0,-0.9417422413825988,-0.4883835911750793
-0.0350811965763568,0.9306042194366456,0.0698602050542831,-0.6750213503837585,-0.0138934450224041,-0.0250449068844318,0.0,0.0,-0.9003826975822449,-0.7466835975646973
-0.034364603459835,0.9149515628814696,0.0721111372113227,-0.6956809163093567,-0.0143356081098318,-0.0088432915508747,0.0,0.0,-0.7751765251159668,-0.7257106900215149
-0.0336299911141395,0.8988444209098816,0.0727572962641716,-0.7158674001693726,-0.0136418575420975,0.013875070028007,0.0,0.0,-0.8564659953117371,-0.5877176523208618
-0.0328474044799804,0.8822768330574036,0.0771709904074668,-0.7363255023956299,-0.0125662377104163,0.0215121917426586,0.0,0.0,-0.5281729102134705,-0.230909526348114
-0.031979750841856,0.8652495741844177,0.08622907102108,-0.7567598223686218,-0.0120369615033268,0.0105855818837881,0.0,0.0,-0.8914331793785095,-0.5402754545211792
-0.031069278717041,0.8477596044540405,0.0899931266903877,-0.7773292660713196,-0.0109928911551833,0.0208811424672603,0.0,0.0,-0.6467195153236389,-0.3696855306625366
-0.0300736427307128,0.8298099637031555,0.0990573465824127,-0.7977635264396667,-0.0104933083057403,0.0099918125197291,0.0,0.0,-0.8165233135223389,-0.1155381202697753
-0.028992747887969,0.8114005923271179,0.1081229299306869,-0.8181976079940796,-0.0105370730161666,-0.0008750309352762,0.0,0.0,-0.8875651955604553,-0.7063969969749451
-0.0278752334415912,0.7925236821174622,0.1111252531409263,-0.8389641642570496,-0.0099099818617105,0.0125416098162531,0.0,0.0,-0.509650707244873,0.0709520578384399
-0.0266724582761526,0.7731871604919434,0.1201902627944946,-0.8593981862068176,-0.0098235858604311,0.001728001050651,0.0,0.0,-0.684125542640686,-0.7470245361328125
-0.0254528038203716,0.7533887624740601,0.1206750720739364,-0.8799209594726562,-0.0085588311776518,0.0252954754978418,0.0,0.0,-0.4076999425888061,-0.2271543741226196
-0.0241480823606252,0.7331305742263794,0.129735067486763,-0.9003551602363586,-0.0078314943239092,0.014546750113368,0.0,0.0,-0.205321729183197,-0.4465910792350769
-0.0227582938969135,0.7124127745628357,0.138790875673294,-0.920789122581482,-0.007639730349183,0.003835052717477,0.0,0.0,0.3829816579818725,-0.9186261892318726
-0.0214738845825195,0.6923081874847412,0.1270391196012497,-0.8935290575027466,-0.0062627168372273,0.0275404043495655,0.0,0.0,0.0910578966140747,-0.6244291067123413
-0.0200969688594341,0.6723159551620483,0.135504737496376,-0.8885363936424255,-0.0041024661622941,0.0432051084935665,0.0,0.0,0.6111264228820801,-0.7555822134017944
-0.0187294967472553,0.6524308323860168,0.13364078104496,-0.883777379989624,-0.0010368113871663,0.0613127574324607,0.0,0.0,0.7127200365066528,-0.853644609451294
-0.0172661785036325,0.6325824856758118,0.1419037133455276,-0.882146954536438,0.0033342146780341,0.0874205753207206,0.0,0.0,0.8797483444213867,-0.8308084607124329
-0.0158244129270315,0.6128453016281128,0.1386858820915222,-0.8772313594818115,0.0087540801614522,0.1083974465727806,0.0,0.0,0.7935678958892822,0.1106492280960083
-0.01431446056813,0.5939400792121887,0.1460742503404617,-0.8402678370475769,0.0136111760511994,0.0971417799592018,0.0,0.0,0.3896229267120361,-0.4078356027603149
-0.0126618389040231,0.5756058692932129,0.1605507135391235,-0.8149052262306213,0.0182621553540229,0.0930195301771164,0.0,0.0,0.0986833572387695,-0.7380095720291138
-0.0110786436125636,0.5576307773590088,0.1527246087789535,-0.7989732027053833,0.023794462904334,0.1106461882591247,0.0,0.0,-0.6874260902404785,-0.3633285760879516
-0.0094108581542968,0.5391960740089417,0.161685436964035,-0.8194083571434021,0.0288164019584655,0.1004384011030197,0.0,0.0,0.7103312015533447,-0.7198795676231384
-0.0076939584687352,0.5215347409248352,0.1655734777450561,-0.7850754261016846,0.0348601788282394,0.1208757981657981,0.0,0.0,0.1985876560211181,-0.4057542085647583
-0.005980777554214,0.504036009311676,0.1660400182008743,-0.7778557538986206,0.0400616377592086,0.1040293201804161,0.0,0.0,0.0410246849060058,-0.2873610258102417
-0.004235363099724,0.4867155849933624,0.1699418574571609,-0.769927442073822,0.0446055680513381,0.0908786058425903,0.0,0.0,0.3776113986968994,-0.918867290019989
-0.002516460372135,0.4698082208633423,0.1659611761569976,-0.7516245245933533,0.050474040210247,0.1173693314194679,0.0,0.0,0.0167282819747924,-0.6699196696281433
-0.0007236480596475,0.4529784917831421,0.1724326312541961,-0.7482336759567261,0.0572428070008754,0.135375365614891,0.0,0.0,0.353318452835083,-0.2757793664932251
0.0011558532714843,0.4361108243465423,0.1814982593059539,-0.7499359846115112,0.0636189430952072,0.1275226324796676,0.0,0.0,0.5484352111816406,-0.1174265146255493
0.0031810761429369,0.4193567335605621,0.1961603462696075,-0.7449119687080383,0.0699205845594406,0.1260330975055694,0.0,0.0,0.6851531267166138,-0.6426472663879395
0.0053598405793309,0.4030261635780334,0.2103075236082077,-0.726176381111145,0.0774128064513206,0.1498443633317947,0.0,0.0,0.5520565509796143,-0.3892783522605896
0.0077229500748217,0.3868052959442138,0.2286062687635421,-0.7213420271873474,0.0850467458367347,0.15267875790596,0.0,0.0,0.8097665309906006,-0.7964901328086853
0.0100285531952977,0.3713519275188446,0.2217191457748413,-0.6873413920402527,0.0937946811318397,0.174958735704422,0.0,0.0,0.489434003829956,-0.0929441452026367
0.0123794553801417,0.3564644455909729,0.2265967577695846,-0.6622220277786255,0.1022217124700546,0.168540745973587,0.0,0.0,0.3178009986877441,0.3163830041885376
0.0148562435060739,0.3419267237186432,0.2391725480556488,-0.6467268466949463,0.1106660291552543,0.1688862293958664,0.0,0.0,0.6077532768249512,-0.4350289106369018
0.0174763686954975,0.3274193406105041,0.2534949779510498,-0.6454252004623413,0.1191301941871643,0.1692834347486496,0.0,0.0,0.8102139234542847,-0.8869537711143494
0.0199778564274311,0.3132572770118713,0.2404038161039352,-0.6302320957183838,0.1288282573223114,0.1939609199762344,0.0,0.0,0.758716344833374,-0.6096853017807007
0.0224888809025287,0.3000189661979675,0.2403154820203781,-0.5893355011940002,0.1395695060491562,0.2148246020078659,0.0,0.0,0.3885493278503418,-0.7009261250495911
0.0249361991882324,0.2870161235332489,0.2330025881528854,-0.5790494680404663,0.1512680947780609,0.2339717596769333,0.0,0.0,0.8365039825439453,-0.1708787083625793
0.0271920207887887,0.2748342454433441,0.214921087026596,-0.5425347089767456,0.1619294285774231,0.213226243853569,0.0,0.0,0.509888768196106,-0.4425410628318786
0.0295015331357717,0.2631566822528839,0.220319390296936,-0.5201959013938904,0.1725716143846511,0.2128441035747528,0.0,0.0,0.1182417869567871,-0.5119965076446533
0.0317214019596576,0.2517534494400024,0.2108122557401657,-0.5081484913825989,0.1837848722934723,0.2242651730775833,0.0,0.0,0.1061853170394897,0.3616256713867187
0.0338716506958007,0.2406153231859207,0.2044790983200073,-0.4963691830635071,0.1943768113851547,0.2118388414382934,0.0,0.0,-0.4301027059555053,0.067447543144226
0.0360972397029399,0.2290179580450058,0.2123973369598388,-0.5168063044548035,0.2046154290437698,0.2047720253467559,0.0,0.0,0.5882195234298706,0.5496388673782349
0.0382043831050396,0.2177871614694595,0.2022982090711593,-0.5003317594528198,0.2131026983261108,0.1697458922863006,0.0,0.0,-0.1334012746810913,0.2265454530715942
0.0403849594295024,0.2060965895652771,0.2099912464618683,-0.520765483379364,0.2212613523006439,0.1631728410720825,0.0,0.0,0.8148571252822876,0.1703990697860717
0.0425783172249794,0.1951397210359573,0.2110574543476104,-0.4882324635982513,0.2296424955129623,0.1676229834556579,0.0,0.0,0.4205250740051269,-0.0952956676483154
0.0448220260441303,0.1842045336961746,0.2161649167537689,-0.4873081743717193,0.2379652708768844,0.1664555370807647,0.0,0.0,0.7280924320220947,-0.0668435096740722
0.0470950119197368,0.1740265190601349,0.218697503209114,-0.4537681043148041,0.2467012107372284,0.174718827009201,0.0,0.0,0.5532344579696655,-0.0202102065086364
0.0492372512817382,0.164442166686058,0.206026554107666,-0.4273703694343567,0.2550631463527679,0.1672384440898895,0.0,0.0,0.5269863605499268,0.3538706302642822
0.0513750091195106,0.1555943787097931,0.2052297890186309,-0.3947411179542541,0.2637750208377838,0.1742372363805771,0.0,0.0,0.3639140129089355,-0.5484757423400879
0.0534773841500282,0.1469899266958236,0.2007419615983963,-0.3841603100299835,0.2735024690628052,0.1945492178201675,0.0,0.0,0.4079856872558594,-0.1944947838783264
0.0554493889212608,0.1389285624027252,0.187980368733406,-0.3600377440452575,0.2829712629318237,0.1893759667873382,0.0,0.0,0.358926773071289,-0.3941598534584045
0.0573500618338584,0.1313617378473281,0.1808528155088424,-0.3381187617778778,0.2924559712409973,0.1896940916776657,0.0,0.0,0.6481771469116211,-0.3682581186294555
0.0592554099857807,0.1240272149443626,0.1811777800321579,-0.3278844058513641,0.3021131455898285,0.1931437104940414,0.0,0.0,0.0375254154205322,-0.2610334157943725
0.0610293373465538,0.1167550683021545,0.1685800701379776,-0.3250592648983001,0.311231404542923,0.1823659241199493,0.0,0.0,0.2642396688461303,0.272637128829956
0.06264428794384,0.1095408499240875,0.1533063054084777,-0.3224076628684997,0.3197276592254638,0.1699248105287552,0.0,0.0,0.5518419742584229,-0.0691424012184143
0.0641262978315353,0.102611668407917,0.1402776688337326,-0.309735357761383,0.327978640794754,0.1650194823741912,0.0,0.0,0.1249480247497558,0.3190326690673828
0.065558336675167,0.0957473590970039,0.1353458166122436,-0.3068841397762298,0.336175799369812,0.1639434546232223,0.0,0.0,0.1705363988876342,0.4099149703979492
0.0670411139726638,0.0888301208615303,0.1401560604572296,-0.309345930814743,0.3446815609931946,0.1701147258281707,0.0,0.0,0.3722198009490967,0.1985800266265869
0.0684529319405555,0.0822964757680893,0.1328218281269073,-0.2924089431762695,0.353458434343338,0.1755372583866119,0.0,0.0,-0.0098259449005126,0.7936686277389526
0.0699656456708908,0.075344406068325,0.1446373015642166,-0.3106321990489959,0.360442966222763,0.1396909952163696,0.0,0.0,0.4894804954528808,0.5525994300842285
0.0715179443359375,0.0683775246143341,0.1496237814426422,-0.3110635578632355,0.366374135017395,0.1186226159334182,0.0,0.0,0.6096125841140747,0.5736064910888672
