x_pos,y_pos,x_vel,y_vel,angle,ang_vel,leg_1,leg_2,main_booster,lat_booster
-0.0015994071727618,1.403224229812622,-0.1616669595241546,-0.3420477211475372,0.0015430003404617,0.0304209701716899,0.0,0.0,-0.1466935276985168,0.9361817836761476
-0.0031957626342773,1.3951464891433716,-0.1588526666164398,-0.3590098023414612,0.0007709905621595,-0.0154411662369966,0.0,0.0,-0.1338423490524292,0.6065946817398071
-0.0048108100891113,1.3866634368896484,-0.1589834690093994,-0.3770225942134857,-0.001717003644444,-0.0497646406292915,0.0,0.0,-0.4490525722503662,0.4820563793182373
-0.0065029142424464,1.3777800798416138,-0.1664566099643707,-0.3948235809803009,-0.0044424072839319,-0.0545134022831916,0.0,0.0,0.3614281415939331,0.614417314529419
-0.0081050870940089,1.3693032264709473,-0.1562570482492447,-0.3767636716365814,-0.0083586070686578,-0.0783308967947959,0.0,0.0,0.0641591548919677,0.0377521514892578
-0.0096934316679835,1.3609495162963867,-0.1550955027341842,-0.3712949454784393,-0.0120621500536799,-0.0740775540471077,0.0,0.0,-0.1637892723083496,0.1359549760818481
-0.011359691619873,1.3521958589553833,-0.1626738905906677,-0.3890942931175232,-0.0159627199172973,-0.0780185461044311,0.0,0.0,0.142138123512268,0.2154977321624755
-0.0129932407289743,1.34371018409729,-0.1597350835800171,-0.3771819770336151,-0.0195538569241762,-0.0718292519450187,0.0,0.0,0.3205212354660034,0.7322375774383545
-0.0146449087187647,1.3358339071273804,-0.1598829925060272,-0.350130558013916,-0.0247815120965242,-0.1045625656843185,0.0,0.0,-0.3800017833709717,0.2766604423522949
-0.0163747780025005,1.3275576829910278,-0.1675395220518112,-0.367935836315155,-0.0301638934761285,-0.107657715678215,0.0,0.0,-0.2610816955566406,0.4304468631744385
-0.0181827545166015,1.3188815116882324,-0.1752188801765442,-0.3857324421405792,-0.0356888100504875,-0.11050845682621,0.0,0.0,-0.3199916481971741,0.1991561651229858
-0.0200691223144531,1.309805393218994,-0.1829187870025634,-0.4035319089889526,-0.0413426272571086,-0.1130866184830665,0.0,0.0,0.153483510017395,0.8791476488113403
-0.0218382831662893,1.301055073738098,-0.1693846136331558,-0.3891331553459167,-0.0488019362092018,-0.1491998732089996,0.0,0.0,-0.4292986392974853,0.8064157962799072
-0.0236151702702045,1.2918922901153564,-0.1682580560445785,-0.4075638353824615,-0.0581478588283062,-0.1869357079267501,0.0,0.0,-0.5108526945114136,0.3852123022079468
-0.0254704467952251,1.2823305130004885,-0.1759990155696869,-0.4253660440444946,-0.0675828009843826,-0.1887161433696746,0.0,0.0,-0.5279013514518738,0.7888110876083374
-0.0273309703916311,1.272353172302246,-0.174588069319725,-0.4439978897571563,-0.0789491459727287,-0.2273470610380172,0.0,0.0,-0.3834646344184875,0.1404447555541992
-0.0292696952819824,1.261976957321167,-0.1823511570692062,-0.4618067443370819,-0.0903790816664695,-0.2286196202039718,0.0,0.0,0.0874258279800415,0.7569341659545898
-0.0310976989567279,1.2515417337417605,-0.1698105931282043,-0.4646225869655609,-0.1032859534025192,-0.2581606209278106,0.0,0.0,-0.3192365765571594,0.3609557151794433
-0.033003807067871,1.2407082319259644,-0.1775924861431121,-0.4824382960796356,-0.1162329465150833,-0.2589634656906128,0.0,0.0,-0.5725504755973816,0.3718214035034179
-0.034988023340702,1.2294765710830688,-0.1853836774826049,-0.5002511143684387,-0.1292094141244888,-0.2595521807670593,0.0,0.0,-0.2336786389350891,0.6383565664291382
-0.0369890220463275,1.2178397178649902,-0.1855370849370956,-0.5185183882713318,-0.1437452435493469,-0.290742814540863,0.0,0.0,-0.0330339074134826,-0.7267150282859802
-0.0391240119934082,1.2058130502700806,-0.2003735601902008,-0.5358425378799438,-0.1568664312362671,-0.2624475657939911,0.0,0.0,-0.5202723145484924,0.0847339630126953
-0.0413368232548236,1.1933879852294922,-0.2081870585680008,-0.553657591342926,-0.1699858903884887,-0.2624131441116333,0.0,0.0,-0.4042969942092895,-0.3556833267211914
-0.0436274521052837,1.1805646419525146,-0.2160045653581619,-0.5714725852012634,-0.1830925494432449,-0.2621566653251648,0.0,0.0,-0.2439820766448974,0.2476663589477539
-0.0459957122802734,1.167343020439148,-0.2238263636827469,-0.5892885327339172,-0.1961772292852401,-0.2617170512676239,0.0,0.0,0.6856379508972168,-0.531125545501709
-0.0485011115670204,1.154820203781128,-0.2382182329893112,-0.558251678943634,-0.2085931301116943,-0.2483181655406952,0.0,0.0,0.2879080772399902,0.1058704853057861
-0.0509642586112022,1.1427289247512815,-0.2340749502182006,-0.5391637086868286,-0.2209581732749939,-0.2473007142543792,0.0,0.0,0.3494119644165039,-0.562423050403595
-0.0535135269165039,1.13128399848938,-0.2436380833387375,-0.5103926062583923,-0.2323893457651138,-0.2286233603954315,0.0,0.0,-0.1920855641365051,-0.2341710925102234
-0.0561405196785926,1.1194401979446411,-0.2515014111995697,-0.5281978845596313,-0.2437686324119568,-0.2275858372449875,0.0,0.0,0.0537973642349243,-0.781211256980896
-0.0588457100093364,1.107675075531006,-0.2609357237815857,-0.5245121121406555,-0.2535214126110077,-0.195055142045021,0.0,0.0,-0.4799360036849975,-0.7725318670272827
-0.0616842284798622,1.095541000366211,-0.2758477032184601,-0.54069584608078,-0.2616884112358093,-0.1633399873971939,0.0,0.0,-0.4293304681777954,0.1333129405975341
-0.0646002739667892,1.0830072164535522,-0.2837027013301849,-0.5584953427314758,-0.2697846591472626,-0.1619242876768112,0.0,0.0,-0.2873700857162475,-0.8623846173286438
-0.0676671043038368,1.0701121091842651,-0.3007994890213012,-0.5742166042327881,-0.2758105397224426,-0.1205174177885055,0.0,0.0,0.650303840637207,0.530076265335083
-0.0707394629716873,1.0573430061340332,-0.3002276122570038,-0.5688620209693909,-0.2830153405666351,-0.1440959423780441,0.0,0.0,-0.0441218018531799,-0.2979273796081543
-0.0738893523812294,1.0441734790802002,-0.308066189289093,-0.5866597294807434,-0.2901344001293182,-0.1423809826374054,0.0,0.0,0.3368059396743774,-0.4303206205368042
-0.0769272819161415,1.031477451324463,-0.2970437407493591,-0.565631091594696,-0.2970955967903137,-0.1392231881618499,0.0,0.0,0.5781490802764893,-0.0800870060920715
-0.0799389854073524,1.019016146659851,-0.2944172024726867,-0.5552381277084351,-0.3040792644023895,-0.1396732181310653,0.0,0.0,0.152044415473938,-0.3767586350440979
-0.0828434973955154,1.0069022178649902,-0.2839211225509643,-0.5397780537605286,-0.3108435273170471,-0.1352850347757339,0.0,0.0,0.5299222469329834,-0.7463358044624329
-0.0856787711381912,0.995555579662323,-0.2785135805606842,-0.5053800344467163,-0.316048115491867,-0.1040923818945884,0.0,0.0,0.840499997138977,0.1915156841278076
-0.0883504897356033,0.9847592711448668,-0.2623989284038543,-0.4808882176876068,-0.3210055828094482,-0.099149614572525,0.0,0.0,0.6572538614273071,-0.4424985647201538
-0.0909540206193924,0.9747247695922852,-0.2552131414413452,-0.4471268653869629,-0.3263551890850067,-0.1069919094443321,0.0,0.0,0.4350455999374389,-0.5518307089805603
-0.0934197455644607,0.9648995995521544,-0.2428679019212722,-0.4375129640102386,-0.3302094638347626,-0.0770857855677604,0.0,0.0,0.7924778461456299,-0.7102071642875671
-0.0957977324724197,0.9551206231117249,-0.2358362227678299,-0.4350717961788177,-0.3322620093822479,-0.0410506390035152,0.0,0.0,0.7475965023040771,-0.496768593788147
-0.0979702025651931,0.9456822276115416,-0.2158516943454742,-0.4198029935359955,-0.3337227404117584,-0.0292144678533077,0.0,0.0,0.8669941425323486,-0.3491097092628479
-0.1001530662178993,0.936337411403656,-0.2167835980653762,-0.415677934885025,-0.335289865732193,-0.0313424319028854,0.0,0.0,0.7142989635467529,-0.4791079759597778
-0.1022524833679199,0.9270591139793396,-0.2087573707103729,-0.4126398861408233,-0.3365308344364166,-0.0248193778097629,0.0,0.0,0.8961797952651978,-0.1710692644119262
-0.1041919738054275,0.9180716872215272,-0.1931684911251068,-0.399626761674881,-0.3373431265354156,-0.0162459127604961,0.0,0.0,0.3452601432800293,0.0951504707336425
-0.106068231165409,0.909689724445343,-0.1865474879741668,-0.3727856278419494,-0.3384752869606018,-0.0226427242159843,0.0,0.0,0.7349133491516113,-0.4577393531799316
-0.1078760176897049,0.9021473526954652,-0.1791790127754211,-0.3355945348739624,-0.3401501178741455,-0.0334964767098426,0.0,0.0,0.556689977645874,-0.4060315489768982
-0.1096173301339149,0.8948917984962463,-0.1725363433361053,-0.3228457272052765,-0.3418175280094147,-0.0333490893244743,0.0,0.0,0.954153299331665,-0.2206658124923706
-0.1110465079545974,0.8881046175956726,-0.1421772241592407,-0.3018288910388946,-0.3426031768321991,-0.0157126821577548,0.0,0.0,0.740192174911499,-0.2272524833679199
-0.1123461723327636,0.8820435404777527,-0.1290316879749298,-0.2696033716201782,-0.3435753285884857,-0.0194430146366357,0.0,0.0,0.8987827301025391,-0.1576396822929382
-0.1134287863969802,0.8762397766113281,-0.1079797521233558,-0.2580141127109527,-0.3438757359981537,-0.0060083186253905,0.0,0.0,0.8264322280883789,-0.4101415872573852
-0.1142837554216384,0.8712787628173828,-0.0853189826011657,-0.2205358147621154,-0.344073086977005,-0.0039467862807214,0.0,0.0,0.6972589492797852,0.3020098209381103
-0.1148983985185623,0.8665468096733093,-0.0620244219899177,-0.2101751267910003,-0.3434798419475555,0.0118650291115045,0.0,0.0,-0.2274589538574218,-0.5246436595916748
-0.1156306266784668,0.8614360094070435,-0.075046606361866,-0.2267102748155594,-0.3415663242340088,0.0382706671953201,0.0,0.0,0.731116771697998,-0.8261393308639526
-0.1161115616559982,0.8570901155471802,-0.0518047735095024,-0.1922795176506042,-0.3376880586147308,0.0775652378797531,0.0,0.0,0.2692329883575439,-0.9446368217468262
-0.1164448708295822,0.8530564904212952,-0.0390015393495559,-0.1779563426971435,-0.3317574858665466,0.1186117380857467,0.0,0.0,0.4048318862915039,-0.5088531374931335
-0.1165921241044998,0.8496066927909851,-0.0216317996382713,-0.1517586708068847,-0.3245540559291839,0.1440683603286743,0.0,0.0,-0.6891127228736877,-0.6422244906425476
-0.1168614402413368,0.8457894921302795,-0.035335935652256,-0.1677924543619156,-0.3158113658428192,0.1748539507389068,0.0,0.0,-0.650847852230072,-0.1407005786895752
-0.117199420928955,0.8415727615356445,-0.0422629565000534,-0.1855927854776382,-0.3070191144943237,0.1758442223072052,0.0,0.0,-0.9923081398010254,0.0762958526611328
-0.1176050156354904,0.8369563817977905,-0.0490993820130825,-0.2033934146165847,-0.2981840670108795,0.1767003238201141,0.0,0.0,-0.9514659643173218,0.5477972030639648
-0.1180279701948165,0.831916093826294,-0.0495953150093555,-0.2225377261638641,-0.290657490491867,0.1505324095487594,0.0,0.0,-0.8248090147972107,0.3910924196243286
-0.1185168251395225,0.8264760375022888,-0.0562271699309349,-0.2403371334075927,-0.2831024825572967,0.1510998904705047,0.0,0.0,-0.2127968072891235,0.1479153633117675
-0.1190705299377441,0.8206362128257751,-0.0627449005842208,-0.2581367790699005,-0.2755268514156341,0.1515129804611206,0.0,0.0,-0.9037145376205444,0.3629438877105713
-0.1196878403425216,0.8143967986106873,-0.0691396668553352,-0.2759366333484649,-0.2679385840892792,0.1517656147480011,0.0,0.0,-0.6909257769584656,0.1842426061630249
-0.1203676238656044,0.8077576160430908,-0.0754021033644676,-0.2937367558479309,-0.260345995426178,0.1518518626689911,0.0,0.0,-0.9244123697280884,0.7445025444030762
-0.1210456863045692,0.8006843328475952,-0.073553130030632,-0.3133613467216491,-0.2544774711132049,0.1173699498176574,0.0,0.0,-0.9171964526176452,-0.5228371024131775
-0.1218204498291015,0.7932319045066833,-0.0842199102044105,-0.3300671577453613,-0.2476071864366531,0.1374059319496154,0.0,0.0,-0.984837770462036,0.6755473613739014
-0.1226102858781814,0.7853602766990662,-0.0845826417207717,-0.3489192128181457,-0.2419131994247436,0.1138798221945762,0.0,0.0,-0.995335340499878,0.3441609144210815
-0.123456671833992,0.7770885825157166,-0.0902121216058731,-0.3667179942131042,-0.2362508475780487,0.1132466346025466,0.0,0.0,-0.9948445558547974,-0.2827837467193603
-0.1243577972054481,0.7684172987937927,-0.0956557244062423,-0.3845169842243194,-0.2306297719478607,0.1124215871095657,0.0,0.0,-0.9899383187294006,-0.6141527891159058
-0.1253679245710373,0.7593730092048645,-0.1080066114664077,-0.4008901715278625,-0.2235512733459472,0.1415703892707824,0.0,0.0,-0.9827784299850464,0.3987622261047363
-0.1264289915561676,0.7499291896820068,-0.1130433529615402,-0.418690949678421,-0.2165337949991226,0.1403496712446212,0.0,0.0,-0.9740510582923888,0.366817831993103
-0.1275386810302734,0.7400858402252197,-0.1178581938147544,-0.4364917874336242,-0.2095874845981598,0.1389261335134506,0.0,0.0,-0.9632148146629332,0.521568775177002
-0.1286510527133941,0.7298230528831482,-0.1168755665421485,-0.4553322792053222,-0.2038942277431488,0.1138650178909301,0.0,0.0,-0.998403787612915,0.1191295385360717
-0.129807561635971,0.7191606163978577,-0.1212096437811851,-0.4731320738792419,-0.1982928663492202,0.1120272278785705,0.0,0.0,-0.9789233207702636,-0.0833625793457031
-0.1310057640075683,0.7080984711647034,-0.1252856105566024,-0.4909319281578064,-0.1927939355373382,0.1099787130951881,0.0,0.0,-0.990215539932251,-0.1745904684066772
-0.1322430670261383,0.6966364979743958,-0.1290918588638305,-0.5087317824363708,-0.1874080598354339,0.1077176928520202,0.0,0.0,-0.9299179315567015,-0.2838746309280395
-0.133516788482666,0.6847748160362244,-0.1326172947883606,-0.5265316367149353,-0.1821459233760833,0.105242908000946,0.0,0.0,-0.983530819416046,0.2599554061889648
-0.1348241865634918,0.672513484954834,-0.1358514130115509,-0.5443314909934998,-0.1770182251930236,0.1025535687804222,0.0,0.0,-0.9457183480262756,0.639183521270752
-0.1361085921525955,0.6598437428474426,-0.1320501416921615,-0.5626768469810486,-0.1733995676040649,0.072373479604721,0.0,0.0,-0.8642936944961548,-0.5422086119651794
-0.1374699622392654,0.6467870473861694,-0.1408701539039611,-0.579754114151001,-0.1686673611402511,0.0946441739797592,0.0,0.0,-0.5834729075431824,-0.1600087285041809
-0.1388561278581619,0.6333306431770325,-0.1431756764650344,-0.5975539088249207,-0.1641017943620681,0.0913112014532089,0.0,0.0,0.3735132217407226,0.089362621307373
-0.1401786804199218,0.6203370094299316,-0.1365928798913955,-0.5770151019096375,-0.1597595363855362,0.0868452191352844,0.0,0.0,0.0973594188690185,0.5376940965652466
-0.1413528472185135,0.6074907183647156,-0.1206089481711387,-0.5706100463867188,-0.1565694361925125,0.0638018995523452,0.0,0.0,-0.4670981168746948,-0.3194161653518677
-0.1425421684980392,0.5942445397377014,-0.1219264641404151,-0.5884090662002563,-0.1535776257514953,0.0598358139395713,0.0,0.0,-0.026823341846466,-0.0060839056968688
-0.1437434256076812,0.5805984139442444,-0.1229075044393539,-0.6062079668045044,-0.1507944464683532,0.0556634664535522,0.0,0.0,0.1233960390090942,0.3856761455535888
-0.1447959840297699,0.5671058297157288,-0.108289286494255,-0.5993695855140686,-0.1477672755718231,0.0605433173477649,0.0,0.0,-0.11530202627182,0.6667320728302002
-0.1457902938127517,0.5531938672065735,-0.1005796045064926,-0.6181938648223877,-0.1466136574745178,0.0230721123516559,0.0,0.0,0.3841789960861206,0.5070483684539795
-0.1466596573591232,0.5398119688034058,-0.0868294239044189,-0.5947609543800354,-0.146723061800003,-0.0021880785934627,0.0,0.0,-0.219813585281372,-0.9510462284088136
-0.1475977897644043,0.5260529518127441,-0.0952591672539711,-0.6113691926002502,-0.1452725976705551,0.0290091335773468,0.0,0.0,0.4417896270751953,-0.1398087739944458
-0.1483396589756012,0.5127344727516174,-0.0758881717920303,-0.5917674899101257,-0.1435766965150833,0.0339183025062084,0.0,0.0,0.6678270101547241,-0.3460685014724731
-0.1489260643720626,0.4994835555553436,-0.0605526193976402,-0.5887491703033447,-0.1416760981082916,0.0380118265748024,0.0,0.0,0.5343170166015625,0.4830853939056396
-0.1494833976030349,0.4865453541278839,-0.0571464709937572,-0.5748984217643738,-0.1402761936187744,0.0279981307685375,0.0,0.0,0.7146761417388916,0.1233084201812744
-0.1498150825500488,0.4745188355445862,-0.0346932597458362,-0.5343683362007141,-0.138753280043602,0.0304584149271249,0.0,0.0,-0.7402697801589966,-0.2718793153762817
-0.1501302719116211,0.4620924890041351,-0.0327528864145278,-0.552167534828186,-0.1375217884778976,0.0246300715953111,0.0,0.0,-0.2390334010124206,-0.6294175982475281
-0.1504850387573242,0.4492843151092529,-0.0379402711987495,-0.5690241456031799,-0.135068878531456,0.0490582846105098,0.0,0.0,0.7573606967926025,0.3695757389068603
-0.1506259888410568,0.4371610283851623,-0.0166860707104206,-0.5385805368423462,-0.1324941962957382,0.0514932200312614,0.0,0.0,0.5027023553848267,0.1426889896392822
-0.1507004797458648,0.4256622791290283,-0.0094871120527386,-0.5108762383460999,-0.1304582506418228,0.0407190434634685,0.0,0.0,0.009158968925476,0.7365067005157471
-0.1506879776716232,0.4144492149353027,0.001031749532558,-0.4983393847942352,-0.1302427500486374,0.0043097375892102,0.0,0.0,-0.2652111053466797,0.2422541379928589
-0.1506459265947342,0.4028363227844238,0.004321523476392,-0.51613849401474,-0.1303535997867584,-0.0022170157171785,0.0,0.0,-0.0745529532432556,-0.9280287027359008
-0.1506586968898773,0.3908415734767914,-0.0030515321996062,-0.5329434275627136,-0.12858347594738,0.0354026071727275,0.0,0.0,0.6799896955490112,-0.1182915568351745
-0.1507206857204437,0.3792687952518463,-0.0069325924851,-0.5142838358879089,-0.1278587430715561,0.014494689181447,0.0,0.0,0.7692470550537109,0.5518405437469482
-0.1504846513271331,0.3684127926826477,0.023991797119379,-0.4825214147567749,-0.1282464116811752,-0.0077534005977213,0.0,0.0,0.405106782913208,-0.3397523164749145
-0.1501185446977615,0.3576138615608215,0.0371077060699462,-0.4799962043762207,-0.128739982843399,-0.0098714046180248,0.0,0.0,-0.0819458961486816,-0.3169876337051391
-0.1497123688459396,0.346415102481842,0.0414689406752586,-0.4977955520153045,-0.1295849978923797,-0.0169002935290336,0.0,0.0,0.5655642747879028,-0.8020818829536438
-0.1492554694414138,0.3359339535236358,0.0453261695802211,-0.4657979011535644,-0.1292195916175842,0.0073080537840723,0.0,0.0,0.3135682344436645,-0.6941900849342346
-0.1485957205295562,0.3260577023029327,0.0643718317151069,-0.4388042092323303,-0.1276264041662216,0.0318641737103462,0.0,0.0,-0.5057772994041443,-0.1310242414474487
-0.1478908509016037,0.3157817721366882,0.0692455023527145,-0.456603854894638,-0.1263947039842605,0.0246343035250902,0.0,0.0,0.2567193508148193,-0.5769091844558716
-0.1471118032932281,0.3060457110404968,0.0758795216679573,-0.4325437843799591,-0.1243839561939239,0.0402147397398948,0.0,0.0,-0.5319638848304749,-0.5316137075424194
-0.1463219672441482,0.2959216237068176,0.0763733014464378,-0.4497444927692413,-0.1217827200889587,0.0520247817039489,0.0,0.0,-0.324733018875122,-0.6213374137878418
-0.145525261759758,0.2854025065898895,0.0763416588306427,-0.4672481715679168,-0.1184761151671409,0.0661318451166153,0.0,0.0,0.3021986484527588,-0.3751519918441772
-0.1447161734104156,0.2752266228199005,0.0784008800983429,-0.4520624279975891,-0.1159843206405639,0.0498358868062496,0.0,0.0,0.6317968368530273,-0.6696725487709045
-0.1439865082502365,0.2654399871826172,0.0697937831282615,-0.4347179532051086,-0.1128280907869339,0.0631242468953132,0.0,0.0,-0.0949535369873046,-0.6645386815071106
-0.1432581841945648,0.255262553691864,0.0686446577310562,-0.4520217478275299,-0.1086686551570892,0.0831885635852813,0.0,0.0,0.5802383422851562,0.2473249435424804
-0.1423960626125335,0.2454421669244766,0.0822788178920745,-0.4361784756183624,-0.1047640964388847,0.0780914649367332,0.0,0.0,0.4636623859405517,-0.6890481114387512
-0.141373723745346,0.2356797754764557,0.0970445796847343,-0.4335301518440246,-0.0996197164058685,0.1028876677155494,0.0,0.0,0.0364689826965332,-0.1672029495239257
-0.1401923149824142,0.2261489182710647,0.1130366548895835,-0.423261433839798,-0.0945605486631393,0.1011833399534225,0.0,0.0,-0.3832714557647705,-0.4603750705718994
-0.1389546394348144,0.2162184566259384,0.1190420240163803,-0.4410620331764221,-0.0898678749799728,0.0938533097505569,0.0,0.0,0.6060481071472168,0.2420203685760498
