x_pos,y_pos,x_vel,y_vel,angle,ang_vel,leg_1,leg_2,main_booster,lat_booster
-0.0015999793540686,1.4030303955078125,-0.1620503365993499,-0.3506540954113006,0.0018289791187271,0.0360834561288356,0.0,0.0,0.1458088702939151,0.6393088979396011
-0.0031871795654296,1.3950467109680176,-0.159319058060646,-0.3548281490802765,0.0024159299209713,0.0117409247905015,0.0,0.0,0.6955104262914069,-0.9451831813179626
-0.0047734258696436,1.3870837688446045,-0.1613481789827346,-0.353914737701416,0.005118353292346,0.0540531985461711,0.0,0.0,-0.1507852666883076,-0.6721281352352253
-0.0065001486800611,1.3785239458084106,-0.1770108044147491,-0.3804499804973602,0.0094104064628481,0.0858489796519279,0.0,0.0,-0.7034323780299176,-0.7472801243661846
-0.0083504673093557,1.3693722486495972,-0.1905485391616821,-0.4067845344543457,0.0148623744025826,0.1090494617819786,0.0,0.0,-0.1222461787638726,-0.8496127133708344
-0.0103300092741847,1.3596247434616089,-0.2047735005617141,-0.4333086311817169,0.0216095000505447,0.1349548548460006,0.0,0.0,-0.6623106411870348,-0.7666407262133472
-0.0124497413635253,1.3492817878723145,-0.2203804701566696,-0.4598284661769867,0.0299255531281232,0.1663365662097931,0.0,0.0,0.996752514809,-0.6828409187311002
-0.0145305637270212,1.3395265340805054,-0.2183780223131179,-0.4338021874427795,0.0401127934455871,0.2037635147571563,0.0,0.0,0.970709105044955,-0.7927615090681228
-0.0168074611574411,1.3306784629821775,-0.2395289838314056,-0.3935984671115875,0.0518245697021484,0.2342570722103119,0.0,0.0,-0.945817977407684,0.6790839640821731
-0.0191092491149902,1.3212463855743408,-0.2406325340270996,-0.4196005463600158,0.062183603644371,0.2071996629238128,0.0,0.0,-0.9802597312729306,-0.9087158399952414
-0.021550178527832,1.311216950416565,-0.2561004757881164,-0.4462970495223999,0.0740813016891479,0.2379757910966873,0.0,0.0,0.2031490935857098,0.8982846023997797
-0.0239673610776662,1.3011831045150757,-0.2519372701644897,-0.4464867711067199,0.0842234641313552,0.2028616666793823,0.0,0.0,0.352923737963549,0.6170060282047799
-0.0263453479856252,1.2914364337921145,-0.2470331937074661,-0.4337263405323028,0.0933738723397255,0.1830250918865203,0.0,0.0,-0.208284683607028,0.8450532120900338
-0.0287269596010446,1.2810990810394287,-0.2454849928617477,-0.4599111974239349,0.1006503850221633,0.1455434560775756,0.0,0.0,0.4246026709666139,0.8805367648062706
-0.0310522075742483,1.271269679069519,-0.2382330447435379,-0.4372664093971252,0.1063335016369819,0.1136726737022399,0.0,0.0,-0.8803352286651751,0.9340442434263244
-0.03336763381958,1.2608489990234375,-0.2350546419620514,-0.4633937478065491,0.1098233461380004,0.0698031559586525,0.0,0.0,-0.2473006318120145,-0.7591275864994921
-0.0358073227107524,1.249835729598999,-0.2486425340175628,-0.4898280799388885,0.1144775301218032,0.0930919125676155,0.0,0.0,-0.9784493494369472,-0.9098324176879868
-0.0383784286677837,1.2382116317749023,-0.2631815075874328,-0.5171003937721252,0.1205213740468025,0.1208877936005592,0.0,0.0,-0.2483542596550494,-0.7886056219049794
-0.0410796180367469,1.2259920835494995,-0.2775076031684875,-0.5437040328979492,0.1278858780860901,0.1473031938076019,0.0,0.0,0.7170483358171933,-0.7920099543112302
-0.0440867431461811,1.2140244245529177,-0.3095131814479828,-0.5326725840568542,0.1366580575704574,0.1754594147205352,0.0,0.0,-0.7918067520208145,0.7181272415839247
-0.0471038818359375,1.2014825344085691,-0.3087667822837829,-0.5580769777297974,0.1437020748853683,0.1408927887678146,0.0,0.0,-0.808537791670902,0.923190135345722
-0.0501243583858013,1.1883580684661863,-0.3072229027748108,-0.5838233828544617,0.1488849073648452,0.1036658287048339,0.0,0.0,0.8464808576340761,-0.7233492998663624
-0.0532128326594829,1.1755638122558594,-0.3158648908138275,-0.5693452954292297,0.1558970659971237,0.1402554214000702,0.0,0.0,-0.1063540682656671,0.9263074976045366
-0.0562967285513877,1.1621848344802856,-0.3133507370948791,-0.5951524376869202,0.1608687788248062,0.0994432717561721,0.0,0.0,-0.4431774636141214,0.8029605818153523
-0.0594098083674907,1.1482259035110474,-0.3150741457939148,-0.6208085417747498,0.1646403819322586,0.0754385665059089,0.0,0.0,0.7837961570856045,-0.9363342156585182
-0.0629683509469032,1.1347205638885498,-0.3612399995326996,-0.6008445024490356,0.1700432449579239,0.1080569177865982,0.0,0.0,-0.8028244021463764,0.9347811364607216
-0.0665306076407432,1.1206461191177368,-0.3597742319107055,-0.6259396076202393,0.1735957413911819,0.0710501819849014,0.0,0.0,0.4027779416257262,0.6528704497134702
-0.070360466837883,1.107001543045044,-0.3850327134132385,-0.6066659092903137,0.1756489872932434,0.0410650707781314,0.0,0.0,0.7201875186798108,0.9206733655344052
-0.0744858756661415,1.0939412117004397,-0.412559449672699,-0.5804703235626221,0.1756711900234222,0.0004439841140992,0.0,0.0,-0.3616277316964511,-0.7989226985893552
-0.0787508934736251,1.0802665948867798,-0.4282419085502624,-0.6079614162445068,0.1774059683084488,0.0346959456801414,0.0,0.0,-0.3087641593026955,-0.6371970803152949
-0.0831404700875282,1.0659923553466797,-0.4419754445552826,-0.6347712874412537,0.1804330796003341,0.0605424158275127,0.0,0.0,-0.1920904039603983,0.6902808290590335
-0.0875580757856369,1.0511332750320437,-0.443648487329483,-0.6606366634368896,0.1823222786188125,0.037784032523632,0.0,0.0,-0.7639127290070173,-0.8191474725462449
-0.0921240821480751,1.0356680154800415,-0.4604100584983825,-0.687821626663208,0.1861460357904434,0.0764755681157112,0.0,0.0,-0.6404801258699995,0.7408801885918952
-0.0967124924063682,1.0196168422698977,-0.4614090919494629,-0.7137080430984497,0.1887227445840835,0.0515340343117713,0.0,0.0,-0.3086030443925196,0.9805041641517098
-0.101297378540039,1.0029962062835691,-0.4591310620307922,-0.7387715578079224,0.1893614679574966,0.0127742271870374,0.0,0.0,0.5835415278256197,0.6349177994511014
-0.1060255989432334,0.986873984336853,-0.4723129868507385,-0.716477632522583,0.1888561844825744,-0.0101055623963475,0.0,0.0,0.0995339214571653,0.7475163861126227
-0.1108454689383506,0.9706117510795592,-0.4800723195075989,-0.7225257754325867,0.1869364529848098,-0.0383946634829044,0.0,0.0,-0.3773728670267529,-0.739669135105248
-0.1157929450273513,0.9537461996078492,-0.4943270683288574,-0.749533474445343,0.1865095943212509,-0.0085372766479849,0.0,0.0,-0.7467214174113068,-0.7616390615582189
-0.120877169072628,0.9362772107124328,-0.5097335577011108,-0.7765636444091797,0.1878191381692886,0.0261912308633327,0.0,0.0,0.0377807276873261,0.8782977284756517
-0.1260163336992263,0.9188035130500792,-0.513582170009613,-0.7765632271766663,0.1874863803386688,-0.006655013654381,0.0,0.0,-0.2570053885602936,0.6353424790543939
-0.1311872452497482,0.9007529020309448,-0.5158414840698242,-0.8020879626274109,0.1862308084964752,-0.0251113437116146,0.0,0.0,0.7645518779754639,0.9963057041168212
-0.1363097131252288,0.8829938173294067,-0.5093422532081604,-0.7889373302459717,0.1833154261112213,-0.0583073683083057,0.0,0.0,0.2356476783752441,0.9995613098144532
-0.1413822174072265,0.8650211691856384,-0.5025230646133423,-0.7982071042060852,0.1785608977079391,-0.0950905680656433,0.0,0.0,0.0650297403335571,0.998459815979004
-0.1464314460754394,0.846997857093811,-0.4983018040657043,-0.8002552390098572,0.1719262152910232,-0.1326939761638641,0.0,0.0,-0.2556358575820923,0.9984498023986816
-0.1514758169651031,0.8283887505531311,-0.4961110949516296,-0.8261268734931946,0.1635961234569549,-0.1666016280651092,0.0,0.0,0.2415430545806884,0.9972457885742188
-0.1565103530883789,0.8095781207084656,-0.4933053851127624,-0.834950864315033,0.1534541398286819,-0.2028399407863617,0.0,0.0,0.3121507167816162,0.999022364616394
-0.1615320146083831,0.7907270789146423,-0.4902089536190033,-0.8366357684135437,0.1415183395147323,-0.2387160509824752,0.0,0.0,0.0759283304214477,0.9960414171218872
-0.1667067557573318,0.7720994353294373,-0.5037140846252441,-0.8266428112983704,0.1278081834316253,-0.2742031812667846,0.0,0.0,-0.1065353751182556,0.9990234375
-0.171886533498764,0.7529013752937317,-0.5028249621391296,-0.8520161509513855,0.1127363145351409,-0.3014375567436218,0.0,0.0,0.5738651752471924,0.9984748363494872
-0.177129179239273,0.7338416576385498,-0.5072581171989441,-0.8458948731422424,0.0958568006753921,-0.337590217590332,0.0,0.0,0.7252702713012695,0.990696907043457
-0.1822461187839508,0.7151181101799011,-0.4931102693080902,-0.8310728669166565,0.0774403735995292,-0.3683286309242248,0.0,0.0,-0.0058805346488952,0.9984451532363892
-0.1873538047075271,0.6958205103874207,-0.4905635714530945,-0.8567466139793396,0.0574475266039371,-0.3998570144176483,0.0,0.0,0.7652510404586792,0.9997525215148926
-0.1923387497663498,0.6766588091850281,-0.4766648411750793,-0.8509396314620972,0.0358775705099105,-0.431399405002594,0.0,0.0,0.7373073101043701,0.9989254474639891
-0.1973296105861663,0.6581808924674988,-0.4754799902439117,-0.8208406567573547,0.0125650316476821,-0.4662511348724365,0.0,0.0,0.1047772169113159,0.963797092437744
-0.2021864354610443,0.639605700969696,-0.4603640437126159,-0.8255358934402466,-0.0124282790347933,-0.4998664259910583,0.0,0.0,0.921055793762207,0.99707293510437
-0.207135871052742,0.6212636828422546,-0.4676832258701324,-0.8156448006629944,-0.0393468029797077,-0.5383709669113159,0.0,0.0,0.8461155891418457,0.9866931438446044
-0.2119073867797851,0.603670060634613,-0.4483804106712341,-0.7829378843307495,-0.0677825063467025,-0.5687142014503479,0.0,0.0,0.816214919090271,0.9968258142471312
-0.2164304703474044,0.586581826210022,-0.4221223890781402,-0.7611138820648193,-0.097682312130928,-0.5979965925216675,0.0,0.0,0.7882676124572754,0.99241304397583
-0.2207452803850174,0.5702275037765503,-0.3998003304004669,-0.7292289137840271,-0.1291483640670776,-0.6293216943740845,0.0,0.0,0.9459967613220216,0.9994964599609376
-0.2250053882598877,0.5546818971633911,-0.3925890922546386,-0.6941462159156799,-0.1624820083379745,-0.666673481464386,0.0,0.0,0.9003819227218628,0.9899518489837646
-0.2290973663330078,0.5391442179679871,-0.3743850886821747,-0.6947460174560547,-0.1974048316478729,-0.6984567642211914,0.0,0.0,0.9504762887954712,0.9139472246170044
-0.2331218719482422,0.5242681503295898,-0.3661272227764129,-0.6664170026779175,-0.2341014146804809,-0.7339318990707397,0.0,0.0,0.8936767578125,0.681640625
-0.236843541264534,0.5096063613891602,-0.3354673087596893,-0.6579054594039917,-0.2714941501617431,-0.7478561401367188,0.0,0.0,0.9734556674957277,-0.6412503123283386
-0.2404200136661529,0.4954335689544678,-0.3229644000530243,-0.6367361545562744,-0.3071942925453186,-0.7140034437179565,0.0,0.0,0.9212827682495116,0.6075854301452637
-0.2438298165798187,0.4813182651996612,-0.3058288693428039,-0.635208785533905,-0.3437927067279815,-0.7319691181182861,0.0,0.0,0.836637020111084,-0.9921774864196776
-0.2472608089447021,0.4676687717437744,-0.3104158341884613,-0.6148281693458557,-0.3782537877559662,-0.6892215013504028,0.0,0.0,0.9546198844909668,-0.589402437210083
-0.2503553032875061,0.4548659026622772,-0.2787180840969085,-0.5775071978569031,-0.4110904633998871,-0.6567341089248657,0.0,0.0,0.9395999908447266,-0.9379130601882936
-0.2533034682273865,0.4419216215610504,-0.2667658925056457,-0.5837588906288147,-0.4414858818054199,-0.6079081296920776,0.0,0.0,0.9885256290435792,-0.8423343896865845
-0.2558518946170807,0.4298135042190552,-0.2291523963212967,-0.5465010404586792,-0.4697048664093017,-0.5643796324729919,0.0,0.0,0.991841435432434,-0.99155455827713
-0.2583356499671936,0.4180153608322143,-0.2250213623046875,-0.5324937701225281,-0.4957124292850494,-0.5201511383056641,0.0,0.0,0.9858860969543456,-0.9992838501930236
-0.2606147229671478,0.4068486988544464,-0.2068779468536377,-0.5040728449821472,-0.5194544196128845,-0.4748404920101166,0.0,0.0,0.9869652986526488,-0.9988198280334472
-0.2625578939914703,0.3960952758789062,-0.1757646948099136,-0.4851606786251068,-0.5406689643859863,-0.4242913722991943,0.0,0.0,0.9300330877304076,-0.9958478212356568
-0.2641997933387756,0.3862171471118927,-0.1477951109409332,-0.4457167983055115,-0.5596402883529663,-0.3794268667697906,0.0,0.0,0.87095046043396,-0.9998952746391296
-0.265479028224945,0.3765654861927032,-0.1139454841613769,-0.4348993897438049,-0.575998842716217,-0.3271708190441131,0.0,0.0,0.570167064666748,-0.9996348023414612
-0.2666481137275696,0.3668740689754486,-0.1051434427499771,-0.4358924329280853,-0.5898995399475098,-0.2780138552188873,0.0,0.0,0.7482122182846069,-0.9978802800178528
-0.2676172852516174,0.3570051789283752,-0.0874166339635849,-0.4429035186767578,-0.6012229323387146,-0.2264675199985504,0.0,0.0,0.8244955539703369,-0.9899331331253052
-0.268460214138031,0.3470945954322815,-0.0768866464495658,-0.4438891112804413,-0.6101166605949402,-0.1778744012117386,0.0,0.0,0.8408427238464355,-0.9996291995048524
-0.2688482701778412,0.3377572298049927,-0.0335278026759624,-0.4174689650535583,-0.6164847612380981,-0.1273623257875442,0.0,0.0,0.4740092754364013,-0.9984779357910156
-0.2687874734401703,0.3287183940410614,0.0092007527127861,-0.403207778930664,-0.6202664375305176,-0.0756338909268379,0.0,0.0,-0.15623140335083,-0.9789152145385742
-0.2687719762325287,0.3191691637039184,0.0022749849595129,-0.4247575402259826,-0.621147871017456,-0.0176288206130266,0.0,0.0,-0.1390484571456909,-0.9803088307380676
-0.2688081264495849,0.309095561504364,-0.0053082169033586,-0.4469094276428222,-0.6190965175628662,0.0410272553563118,0.0,0.0,0.4416176080703735,-0.9037578105926514
-0.2684345245361328,0.2993005514144897,0.0337087139487266,-0.4336032271385193,-0.614670991897583,0.0885104611515998,0.0,0.0,0.1115815639495849,-0.9496279954910278
-0.2679294049739837,0.2895168662071228,0.04480492323637,-0.432159811258316,-0.6077874302864075,0.1376706957817077,0.0,0.0,0.4079735279083252,-0.9123557806015016
-0.2671571373939514,0.2799576222896576,0.0695504173636436,-0.4213280975818634,-0.5985885858535767,0.1839769780635833,0.0,0.0,0.1302429437637329,-0.9535125494003296
-0.2661419808864593,0.2704701721668243,0.0917364284396171,-0.417264848947525,-0.5869471430778503,0.2328284978866577,0.0,0.0,0.4403579235076904,-0.6934463977813721
-0.264777272939682,0.2609964609146118,0.1249100342392921,-0.4159957468509674,-0.5733018517494202,0.2729063034057617,0.0,0.0,0.2351444959640503,-0.8927842974662781
-0.2632717490196228,0.251283586025238,0.1369369179010391,-0.425915390253067,-0.5573726892471313,0.3185829520225525,0.0,0.0,0.2042537927627563,-0.9866750836372375
-0.2615620195865631,0.2413427382707595,0.1550822705030441,-0.4353318214416504,-0.5389809608459473,0.3678340911865234,0.0,0.0,0.4383543729782104,-0.92408949136734
-0.2594819068908691,0.2313927561044693,0.1897833049297332,-0.4351073205471039,-0.5181324481964111,0.4169705510139465,0.0,0.0,0.7032343149185181,-0.9761475920677184
-0.2570744156837463,0.2213120758533477,0.2199763506650924,-0.440325915813446,-0.4946625828742981,0.4693974554538727,0.0,0.0,0.799185037612915,-0.9547792077064514
-0.254290759563446,0.2117862254381179,0.2551608085632324,-0.4152579307556152,-0.4688000679016113,0.517250120639801,0.0,0.0,0.6744225025177002,-0.9359151124954224
-0.2511321604251861,0.2027337402105331,0.2901593148708343,-0.3939325511455536,-0.4405414760112762,0.5651717782020569,0.0,0.0,0.5861232280731201,-0.9787474274635316
-0.2475846707820892,0.1939300149679184,0.3263265490531921,-0.3826614320278168,-0.4097271859645843,0.6162859201431274,0.0,0.0,0.6115918159484863,-0.9926917552947998
-0.243818998336792,0.1849514096975326,0.3453829884529114,-0.3903867900371551,-0.3763801753520965,0.6669410467147827,0.0,0.0,0.6859991550445557,-0.9905057549476624
-0.2399262487888336,0.1761902421712875,0.3554345965385437,-0.3808856904506683,-0.3406879901885986,0.7138438820838928,0.0,0.0,0.5679744482040405,-0.9869273900985718
-0.2356775254011154,0.1680124402046203,0.3881908655166626,-0.3552595674991607,-0.3024967610836029,0.7638249397277832,0.0,0.0,0.6843259334564209,-0.9886534214019777
-0.2312877178192138,0.1601360440254211,0.399554431438446,-0.3423815071582794,-0.2619491517543793,0.8109530210494995,0.0,0.0,0.3726636171340942,-0.9899488091468812
-0.2268466055393219,0.1527297794818878,0.4019520878791809,-0.3222100436687469,-0.2190785109996795,0.8574134707450867,0.0,0.0,0.3123544454574585,-0.9540390372276306
-0.2222095429897308,0.1455683559179306,0.4188053011894226,-0.3122546970844269,-0.1738672256469726,0.9042266607284546,0.0,0.0,0.3288444280624389,-0.9294028878211976
-0.2175178080797195,0.1387702822685241,0.4217023253440857,-0.2972684800624847,-0.1264499276876449,0.948346734046936,0.0,0.0,0.3416781425476074,-0.5997692346572876
-0.2127981185913086,0.132340207695961,0.4227570593357086,-0.2823399603366852,-0.0776081681251525,0.9768365025520324,0.0,0.0,0.3560197353363037,-0.2132676839828491
-0.2079962790012359,0.1259611994028091,0.4305048882961273,-0.2816720902919769,-0.0284911971539258,0.9823405146598816,0.0,0.0,0.3771893978118896,0.5886461734771729
-0.2031691968441009,0.1197741627693176,0.4339926242828369,-0.2747550308704376,0.0196009147912263,0.961843490600586,0.0,0.0,0.4288949966430664,0.5226304531097412
-0.198379710316658,0.1136985644698143,0.4312958717346191,-0.2713222205638885,0.0666802898049354,0.9415885210037231,0.0,0.0,0.3380584716796875,0.6034553050994873
-0.1934174597263336,0.1079470515251159,0.449371725320816,-0.2583635747432709,0.1131108477711677,0.9286121129989624,0.0,0.0,0.2103917598724365,0.7083191871643066
-0.1883094757795334,0.1020446866750717,0.4651769995689392,-0.2664109170436859,0.1585621535778045,0.909027099609375,0.0,0.0,0.1108360290527343,0.8938705921173096
-0.1830305159091949,0.0963858664035797,0.4839824736118316,-0.2567780911922455,0.2026074081659317,0.8809059262275696,0.0,0.0,0.0190318822860717,0.7909623384475708
-0.1777341812849044,0.0908821895718574,0.4873298704624176,-0.2509691417217254,0.2454204112291336,0.8562609553337097,0.0,0.0,-0.1991054415702819,0.7166777849197388
-0.1723017692565918,0.0848420709371566,0.5027726888656616,-0.2757434844970703,0.2868024110794067,0.8276408910751343,0.0,0.0,-0.033192753791809,0.9305353164672852
-0.1667204797267913,0.07826529443264,0.5198455452919006,-0.3003249168395996,0.3264212608337402,0.7923777103424072,0.0,0.0,0.4272340536117553,0.8155653476715088
-0.161243051290512,0.0721524357795715,0.5112056732177734,-0.2803940176963806,0.364721804857254,0.7660115957260132,0.0,0.0,0.2764235734939575,0.927091121673584
-0.1557959616184234,0.0663930475711822,0.510125458240509,-0.265212744474411,0.4014960527420044,0.7354854345321655,0.0,0.0,0.1988383531570434,0.8935680389404297
-0.1502805650234222,0.0605935417115688,0.5188402533531189,-0.2674231827259063,0.4368137419223785,0.7063546776771545,0.0,0.0,0.075811743736267,0.9011216163635254
-0.1448864936828613,0.0547501891851425,0.508586585521698,-0.2696776390075683,0.470627874135971,0.6762829422950745,0.0,0.0,0.0005053281784057,0.9632298946380616
-0.1395787298679351,0.0487298816442489,0.5018997192382812,-0.2777185142040252,0.5028581023216248,0.6446050405502319,0.0,1.0,0.9983618259429932,0.9930052757263184
-0.1344928741455078,0.0441296435892581,0.4917275905609131,-0.2124131172895431,0.5161967873573303,0.2580774426460266,0.0,0.0,0.4822865724563598,0.4007823467254638
-0.1298596411943435,0.0400860160589218,0.468048632144928,-0.1779311448335647,0.510935366153717,-0.1051136404275894,0.0,1.0,0.8500595092773438,0.9613356590270996
-0.1252808570861816,0.0362003184854984,0.4664762616157532,-0.1697437614202499,0.5005360245704651,-0.2090517580509185,0.0,1.0,0.5381842851638794,0.6380124092102051
-0.1209856048226356,0.0330599173903465,0.4480486810207367,-0.1333018988370895,0.4783594012260437,-0.4456531405448913,0.0,1.0,0.0345252752304077,-0.7623379230499268
-0.1171302795410156,0.0303408000618219,0.4152409434318542,-0.11098363250494,0.4454782903194427,-0.6577615737915039,0.0,1.0,-0.3486086130142212,-0.9920506477355956
-0.1134626418352127,0.0273046121001243,0.4047792851924896,-0.1234512329101562,0.4041687250137329,-0.8263313174247742,0.0,1.0,0.5554795265197754,-0.9964092969894408
