x_pos,y_pos,x_vel,y_vel,angle,ang_vel,leg_1,leg_2,main_booster,lat_booster
-0.0015793800121173,1.4030207395553589,-0.1594702899456024,-0.351082295179367,0.0013767490163445,0.0271289590746164,0.0,0.0,0.0720912218093872,0.5755882263183594
-0.0031291008926928,1.3949871063232422,-0.1547986567020416,-0.357046902179718,0.0012071157107129,-0.0033923108130693,0.0,0.0,0.2867240905761719,0.771369218826294
-0.0045503615401685,1.386815905570984,-0.1401216685771942,-0.3631630539894104,-0.0007678000838495,-0.0395021550357341,0.0,0.0,0.1530702114105224,0.3254009485244751
-0.0060999868437647,1.3785640001296997,-0.1521187722682953,-0.3667485415935516,-0.0035883872769773,-0.0564171187579631,0.0,0.0,0.0409971475601196,0.3095895051956177
-0.0076089859940111,1.3703246116638184,-0.1479878276586532,-0.3662095367908478,-0.0064717587083578,-0.0576728507876396,0.0,0.0,0.3026310205459595,0.1719640493392944
-0.0090455058962106,1.3621227741241455,-0.140802651643753,-0.3645419776439667,-0.0092950835824012,-0.0564714893698692,0.0,0.0,-0.0066580772399902,0.2097648382186889
-0.0105170253664255,1.353317379951477,-0.1438319534063339,-0.3913773000240326,-0.0125799989327788,-0.0657041817903518,0.0,0.0,0.4442366361618042,0.3419814109802246
-0.011882210150361,1.344754338264465,-0.1333515495061874,-0.3806111216545105,-0.0157079398632049,-0.0625645667314529,0.0,0.0,-0.3156856298446655,-0.0844358205795288
-0.0132750514894723,1.335587739944458,-0.1356549859046936,-0.4074510037899017,-0.0193062145262956,-0.0719717442989349,0.0,0.0,0.0051721334457397,0.5323927402496338
-0.0146421436220407,1.3264825344085691,-0.1315293908119201,-0.4047434628009796,-0.0244335308670997,-0.1025557741522789,0.0,0.0,0.3437486886978149,-0.0157603621482849
-0.0159479137510061,1.3174967765808103,-0.1252495050430297,-0.3994684815406799,-0.0297053195536136,-0.1054450497031211,0.0,0.0,-0.4603198766708374,0.1430836915969848
-0.0172707550227642,1.3079075813293457,-0.1264697015285492,-0.426306813955307,-0.0354586616158485,-0.1150773987174034,0.0,0.0,-0.6042357683181763,0.8868924379348755
-0.0185220725834369,1.2977159023284912,-0.1166643649339675,-0.453190267086029,-0.0438346974551677,-0.1675358265638351,0.0,0.0,0.5685214996337891,0.4962966442108154
-0.0197031982243061,1.2874224185943604,-0.109458789229393,-0.457755446434021,-0.0523880459368228,-0.1710828095674514,0.0,0.0,0.0264779329299926,-0.6457504034042358
-0.0208151824772357,1.2772966623306274,-0.1034738048911094,-0.4503237605094909,-0.0600369684398174,-0.1529925167560577,0.0,0.0,-0.7357082366943359,-0.5889486074447632
-0.0219687465578317,1.2665648460388184,-0.1080991402268409,-0.4772832989692688,-0.0672253742814064,-0.1437811553478241,0.0,0.0,-0.7670722603797913,-0.9100270867347716
-0.023177146911621,1.2552465200424194,-0.1144955307245254,-0.5033382177352905,-0.0735139399766922,-0.1257829070091247,0.0,0.0,-0.1214869618415832,-0.4493526220321655
-0.0243824962526559,1.2433253526687622,-0.1136847734451294,-0.530177116394043,-0.0803034603595733,-0.1358027160167694,0.0,0.0,-0.2470007538795471,-0.1813869476318359
-0.0255816467106342,1.2308015823364258,-0.1125589162111282,-0.5570163130760193,-0.087596021592617,-0.1458647698163986,0.0,0.0,0.3629167079925537,-0.6798944473266602
-0.0268576629459857,1.2183895111083984,-0.1209707409143447,-0.5520492792129517,-0.0941717401146888,-0.1315262466669082,0.0,0.0,0.0544514656066894,-0.8714927434921265
-0.0280488971620798,1.2060937881469729,-0.1137499809265136,-0.5468229055404663,-0.0995068401098251,-0.1067117229104042,0.0,0.0,-0.5909860134124756,-0.9786419868469238
-0.0293009765446186,1.193201184272766,-0.1212503910064697,-0.5732796788215637,-0.1034446954727172,-0.0787638053297996,0.0,0.0,-0.4645134806632995,0.1849884986877441
-0.0305354110896587,1.1797056198120115,-0.1189706698060035,-0.6001151204109192,-0.1078971028327941,-0.0890560895204544,0.0,0.0,-0.5295615792274475,-0.9277572631835938
-0.0318148620426654,1.1656076908111572,-0.1245886236429214,-0.6268259882926941,-0.1112343594431877,-0.0667509660124778,0.0,0.0,-0.088625431060791,-0.8229440450668335
-0.033151339739561,1.150922417640686,-0.1318056881427765,-0.6528168320655823,-0.1130616068840026,-0.0365478843450546,0.0,0.0,0.8667078018188477,-0.7862166166305542
-0.0346144661307334,1.1368436813354492,-0.1451484113931656,-0.625811755657196,-0.1142222359776496,-0.0232125483453273,0.0,0.0,0.3062870502471924,-0.3353353142738342
-0.0359817519783973,1.123017430305481,-0.1350431889295578,-0.6146263480186462,-0.1158923432230949,-0.0334021337330341,0.0,0.0,0.640311598777771,-0.3704490661621094
-0.0373533256351947,1.1098318099975586,-0.1343544423580169,-0.5862494111061096,-0.1186878457665443,-0.0559096932411193,0.0,0.0,0.306774377822876,-0.1940764784812927
-0.0387231819331646,1.0969743728637695,-0.1331584155559539,-0.5717513561248779,-0.1224875673651695,-0.0759944468736648,0.0,0.0,0.5016424655914307,-0.84261554479599
-0.0400926582515239,1.0841870307922363,-0.1342571526765823,-0.5685517191886902,-0.1251644194126129,-0.0535371489822864,0.0,0.0,-0.2398395538330078,0.1988072395324707
-0.0414264686405658,1.070797085762024,-0.1301534473896026,-0.595387876033783,-0.128370851278305,-0.0641285553574562,0.0,0.0,-0.4447421431541443,-0.6147468090057373
-0.0427774414420127,1.0568112134933472,-0.1327346861362457,-0.6217944025993347,-0.1307233721017837,-0.0470503680408,0.0,0.0,-0.5088403224945068,-0.9465509653091432
-0.0441727638244628,1.042248249053955,-0.1387973129749298,-0.647310197353363,-0.1314536929130554,-0.0146066378802061,0.0,0.0,-0.6730829477310181,-0.7714095115661621
-0.0455947890877723,1.0270887613296509,-0.1426369249820709,-0.6737147569656372,-0.1310160607099533,0.0087524522095918,0.0,0.0,-0.2141170501708984,-0.2666497826576233
-0.0469743721187114,1.011326551437378,-0.1378657072782516,-0.7005507946014404,-0.1311120390892028,-0.0019191594328731,0.0,0.0,-0.1336455941200256,-0.558525562286377
-0.0483522415161132,0.9949742555618286,-0.1382489204406738,-0.7267335057258606,-0.1306583732366562,0.009073432534933,0.0,0.0,0.1120533943176269,-0.8331755995750427
-0.0497312545776367,0.9784876108169556,-0.1394763886928558,-0.732604444026947,-0.1290865093469619,0.0314374342560768,0.0,0.0,0.5276486873626709,-0.2118422389030456
-0.050938319414854,0.9624382853507996,-0.1219185143709182,-0.7131960988044739,-0.1278870701789856,0.0239886529743671,0.0,0.0,-0.3442721366882324,-0.5502322316169739
-0.0521434769034385,0.9458011388778688,-0.1223585233092308,-0.7392677664756775,-0.1260497570037841,0.0367461293935775,0.0,0.0,0.4634780883789062,0.4045348167419433
-0.0532074943184852,0.9293579459190368,-0.1078343391418457,-0.7306915521621704,-0.1246323436498642,0.028348047286272,0.0,0.0,0.6153428554534912,0.1040079593658447
-0.0542310699820518,0.9134644269943236,-0.1027602553367614,-0.7063444256782532,-0.124233566224575,0.0079755242913961,0.0,0.0,-0.0935216546058654,-0.4877364635467529
-0.0552043914794921,0.8969681859016418,-0.0971920788288116,-0.7331801056861877,-0.1243704110383987,-0.0027367915026843,0.0,0.0,0.0886964797973632,-0.5974725484848022
-0.0560772903263568,0.880165696144104,-0.087918110191822,-0.7467294931411743,-0.1237489432096481,0.0124294068664312,0.0,0.0,-0.0908923745155334,-0.2399515509605407
-0.0568984970450401,0.8627603650093079,-0.0822023004293441,-0.7735651731491089,-0.1236624121665954,0.0017304582288488,0.0,0.0,0.2456355094909668,-0.8258845210075378
-0.0577403083443641,0.8450915217399597,-0.0853521898388862,-0.7851834893226624,-0.1224961876869201,0.0233243592083454,0.0,0.0,0.1039271354675293,-0.4133944511413574
-0.058471392840147,0.8271467685699463,-0.0738888829946518,-0.7974841594696045,-0.1217216402292251,0.0154908373951911,0.0,0.0,0.614181399345398,-0.6684456467628479
-0.059084415435791,0.809243381023407,-0.0630218461155891,-0.7955653667449951,-0.1200065538287162,0.0343017131090164,0.0,0.0,-0.0648204088211059,-0.076558232307434
-0.059643555432558,0.7907372713088989,-0.0571085028350353,-0.8224010467529297,-0.118823230266571,0.023666625842452,0.0,0.0,0.2753709554672241,-0.5069634914398193
-0.0602263435721397,0.7725657820701599,-0.0597087517380714,-0.8075075149536133,-0.1174075454473495,0.0283135287463665,0.0,0.0,0.5287609100341797,0.1380882263183593
-0.060719110071659,0.7544959783554077,-0.050081979483366,-0.803036630153656,-0.1166115775704383,0.0159195717424154,0.0,0.0,0.2375631332397461,-0.3467572927474975
-0.0610010139644146,0.7364419102668762,-0.0289509650319814,-0.8023430705070496,-0.1158460453152656,0.0153103219345211,0.0,0.0,0.134408950805664,-0.2970814704895019
-0.0612090118229389,0.7185454964637756,-0.020856786519289,-0.7953914403915405,-0.1157891377806663,0.0011383600067347,0.0,0.0,-0.1335104703903198,-0.7760888338088989
-0.0614125244319438,0.7000505328178406,-0.0211657434701919,-0.8219316601753235,-0.1149901747703552,0.0159793756902217,0.0,0.0,0.5110354423522949,-0.4534854888916015
-0.0614749900996685,0.6820395588874817,-0.0065325694158673,-0.8004720211029053,-0.1146991178393364,0.0058211623691022,0.0,0.0,0.013404369354248,-0.7675291299819946
-0.061403464525938,0.6638603210449219,0.0057956147938966,-0.8078548312187195,-0.1133528649806976,0.0269252769649028,0.0,0.0,-0.1525856256484985,-0.7931293249130249
-0.0613500587642192,0.6450873017311096,0.0026523913256824,-0.8341578841209412,-0.1106906905770301,0.0532434582710266,0.0,0.0,-0.2584474086761474,0.2820134162902832
-0.0612427704036235,0.6257113218307495,0.0085759665817022,-0.8609932661056519,-0.108541689813137,0.0429797433316707,0.0,0.0,0.2996964454650879,-0.2334144115447998
-0.0609161369502544,0.6065060496330261,0.0305028315633535,-0.8534126877784729,-0.1064003556966781,0.0428264997899532,0.0,0.0,0.4341714382171631,-0.5166012644767761
-0.0604309067130088,0.5877645611763,0.045663297176361,-0.8327541947364807,-0.1035607084631919,0.0567929372191429,0.0,0.0,0.346996545791626,-0.7254155874252319
-0.0599519722163677,0.5694019198417664,0.0441789738833904,-0.8158606886863708,-0.0998787507414817,0.0736393555998802,0.0,0.0,-0.3056186437606811,-0.3873693943023681
-0.0594205856323242,0.5504365563392639,0.0499317198991775,-0.8426961302757263,-0.0966947972774505,0.0636791586875915,0.0,0.0,0.5814723968505859,-0.5023151636123657
-0.0589138977229595,0.5318939089775085,0.0472299084067344,-0.8238998055458069,-0.0932792499661445,0.0683107897639274,0.0,0.0,0.141686201095581,-0.6088302135467529
-0.0582756027579307,0.5132740139961243,0.0594955794513225,-0.827287495136261,-0.0889931470155716,0.0857222750782966,0.0,0.0,0.7458816766738892,-0.3100286722183227
-0.0575042739510536,0.4950157105922699,0.0731782987713813,-0.8112525939941406,-0.0850745812058448,0.0783712714910507,0.0,0.0,0.9076088666915894,-0.7350297570228577
-0.0566921234130859,0.4768469333648681,0.076245367527008,-0.8072248697280884,-0.0801473557949066,0.0985445901751518,0.0,0.0,0.841754674911499,-0.5200501680374146
-0.0559648498892784,0.4590833187103271,0.0676087662577629,-0.7892301678657532,-0.0750799849629402,0.101347304880619,0.0,0.0,0.6604404449462891,-0.751060962677002
-0.0551597587764263,0.4420161843299866,0.0742999017238617,-0.7582415342330933,-0.0689315423369407,0.122968815267086,0.0,0.0,0.751227855682373,-0.5733803510665894
-0.0542382225394248,0.4247984886169433,0.0849933624267578,-0.7649194002151489,-0.0618523471057415,0.1415838301181793,0.0,0.0,0.933089017868042,-0.2464503049850464
-0.0531766898930072,0.4084705412387848,0.0993020087480545,-0.72541743516922,-0.0550748296082019,0.1355504840612411,0.0,0.0,0.7927910089492798,-0.3816954493522644
-0.0521430000662803,0.3923175632953644,0.0974312871694564,-0.7177044749259949,-0.0492090471088886,0.1173153966665268,0.0,0.0,0.6965084075927734,-0.5770617127418518
-0.0511770248413085,0.3766166269779205,0.0901997163891792,-0.6976234316825867,-0.0428858175873756,0.1264645159244537,0.0,0.0,0.7258576154708862,0.1054003238677978
-0.0501073822379112,0.3612849712371826,0.1008460521697998,-0.6812441945075989,-0.0368340909481048,0.1210344284772872,0.0,0.0,0.8169498443603516,-0.6628922820091248
-0.0491657257080078,0.3467613458633423,0.0874872654676437,-0.6453448534011841,-0.0302456319332122,0.1317691206932068,0.0,0.0,0.7045621871948242,0.0409337282180786
-0.0480888374149799,0.3325246274471283,0.1010691747069358,-0.6326236128807068,-0.0237047839909791,0.1308170855045318,0.0,0.0,0.6897990703582764,0.2966376543045044
-0.046996496617794,0.3182859420776367,0.1031611338257789,-0.6327465772628784,-0.017709732055664,0.1199010387063026,0.0,0.0,0.751073956489563,-0.3700119256973266
-0.0457868576049804,0.3039589524269104,0.1149383336305618,-0.6366961002349854,-0.0117547716945409,0.119099237024784,0.0,0.0,0.8756740093231201,-0.0220333337783813
-0.0445704460144043,0.2896074056625366,0.1161354556679725,-0.6378142237663269,-0.0063257534056901,0.1085805296897888,0.0,0.0,0.9208903312683104,-0.7384474277496338
-0.0433804504573345,0.2760432958602905,0.1123867407441139,-0.6028347611427307,0.0002015490608755,0.1305463016033172,0.0,0.0,0.606865406036377,0.2969733476638794
-0.0420772545039653,0.263066291809082,0.1236741319298744,-0.5767728686332703,0.0067583597265183,0.1311362087726593,0.0,0.0,0.5408416986465454,-0.0760170221328735
-0.0408496856689453,0.2506283521652221,0.1169215589761734,-0.5528340935707092,0.0125163337215781,0.1151593774557113,0.0,0.0,0.8648217916488647,-0.5561772584915161
-0.0397934913635253,0.2381383925676345,0.0994190275669097,-0.5551712512969971,0.0186444837599992,0.1225631013512611,0.0,0.0,0.8260477781295776,0.008410096168518
-0.0386774055659771,0.2263568490743637,0.1054780259728431,-0.523714005947113,0.0246980637311935,0.1210713982582092,0.0,0.0,0.4231551885604858,-0.5141551494598389
-0.0376781448721885,0.2147104144096374,0.0932587012648582,-0.5177441239356995,0.0312797278165817,0.1316334158182144,0.0,0.0,0.616302490234375,0.3484722375869751
-0.0367243774235248,0.2034524232149124,0.0892049670219421,-0.500497579574585,0.0373692959547042,0.1217913255095481,0.0,0.0,0.5154857635498047,0.5005691051483154
-0.0357395187020301,0.1925565749406814,0.0935978442430496,-0.4843889474868774,0.0422071367502212,0.0967566519975662,0.0,0.0,0.6867324113845825,-0.3733713626861572
-0.0346645340323448,0.1819531321525573,0.1023828387260437,-0.4714177846908569,0.047252133488655,0.100900150835514,0.0,0.0,0.8146154880523682,-0.7803442478179932
-0.0336157791316509,0.1712996065616607,0.0983278378844261,-0.4737104177474975,0.0537262931466102,0.1294830590486526,0.0,0.0,0.8586678504943848,-0.6960880756378174
-0.0325102806091308,0.1607211232185363,0.1025013476610183,-0.4704677164554596,0.0616929121315479,0.159332126379013,0.0,0.0,0.7470184564590454,0.0025339126586914
-0.0312647819519043,0.1504580527544021,0.1159126386046409,-0.4565132856369018,0.0702373683452606,0.1708891093730926,0.0,0.0,0.7731790542602539,0.136210560798645
-0.0298792831599712,0.1402414143085479,0.1293401420116424,-0.4545319676399231,0.079353779554367,0.1823282837867736,0.0,0.0,0.8857759237289429,-0.6583050489425659
-0.028601836413145,0.1307021975517273,0.117339588701725,-0.4245499074459076,0.0896642282605171,0.2062090188264846,0.0,0.0,0.7657289505004883,-0.2227386236190796
-0.0273463241755962,0.1217762306332588,0.1150745898485183,-0.3973700702190399,0.1000514850020408,0.2077451199293136,0.0,0.0,0.2604621648788452,0.1377680301666259
-0.0260308273136615,0.1130218580365181,0.1206982359290123,-0.3898468315601349,0.1108242124319076,0.2154541909694671,0.0,0.0,0.356332778930664,-0.1946620345115661
-0.0246478077024221,0.1040785908699035,0.127116322517395,-0.398347944021225,0.1219478920102119,0.2224738150835037,0.0,0.0,0.9351532459259032,0.0561721324920654
-0.0233847610652446,0.0954100489616394,0.1154227256774902,-0.3861942589282989,0.1327767968177795,0.2165780365467071,0.0,0.0,0.947335720062256,0.1019364595413208
-0.0221451763063669,0.0876713395118713,0.1126183271408081,-0.3449951708316803,0.1440788060426712,0.2260401248931884,0.0,0.0,0.4889886379241943,0.272937536239624
-0.0209890361875295,0.0800875499844551,0.1043535694479942,-0.3381865620613098,0.1553166806697845,0.2247575223445892,0.0,0.0,0.8276400566101074,0.7192351818084717
-0.0200514793395996,0.0731906965374946,0.0842453464865684,-0.3075462579727173,0.1648264229297638,0.1901948601007461,0.0,0.0,0.6477313041687012,0.4788870811462402
-0.0191339496523141,0.0667428076267242,0.0817783027887344,-0.2877092361450195,0.1748125702142715,0.199722945690155,0.0,0.0,0.3001241683959961,0.8536181449890137
-0.0182935707271099,0.0605758056044578,0.0757408663630485,-0.2750870287418365,0.1831359714269638,0.1664681434631347,0.0,0.0,0.4216234683990478,0.7201793193817139
-0.0175868030637502,0.0547556243836879,0.0638528168201446,-0.2595366537570953,0.189995065331459,0.1371816843748092,0.0,0.0,0.7050802707672119,0.8962752819061279
-0.0169301982969045,0.0490985251963138,0.0605415627360343,-0.2520909011363983,0.1951461434364318,0.1030216664075851,0.0,0.0,0.7396187782287598,0.6414471864700317
-0.0164729114621877,0.0437470525503158,0.0420579873025417,-0.2383316606283188,0.1988417655229568,0.0739121362566948,0.0,0.0,0.9402986764907836,0.8005207777023315
-0.0162607189267873,0.0386567935347557,0.0193924121558666,-0.2264778017997741,0.2006842792034149,0.036850269883871,0.0,0.0,0.9370994567871094,0.9378541707992554
-0.0160083770751953,0.0342705585062503,0.0248663462698459,-0.1949968487024307,0.2010677605867386,0.0076694986782968,0.0,0.0,0.8900494575500488,0.9038102626800536
-0.0156922340393066,0.0299383979290723,0.0326813161373138,-0.1923927962779998,0.1999829113483429,-0.021696750074625,0.0,0.0,0.7436339855194092,0.947746515274048
-0.0152961732819676,0.0262674186378717,0.0421253144741058,-0.1628175377845764,0.1974562108516693,-0.0505340695381164,0.0,0.0,0.7717626094818115,0.6507358551025391
-0.0150403976440429,0.0232301577925682,0.0292181074619293,-0.1345054060220718,0.1937876939773559,-0.0733706429600715,0.0,0.0,0.5614719390869141,0.5765753984451294
-0.0147551540285348,0.0208407025784254,0.0327332615852355,-0.1056556552648544,0.189553290605545,-0.084688201546669,0.0,0.0,0.0028966665267944,0.5076452493667603
-0.0145022394135594,0.018944988027215,0.0425299927592277,-0.0821627676486969,0.1721974164247512,-0.3471887707710266,0.0,1.0,0.1438770294189453,0.2423667907714843
-0.0143519397825002,0.017283234745264,0.0323823168873786,-0.0719429776072502,0.1548165529966354,-0.347645491361618,0.0,1.0,0.1290143728256225,-0.0179027915000915
-0.0142442705109715,0.0158287622034549,0.0279948525130748,-0.0629410371184349,0.1376265734434127,-0.343799740076065,0.0,1.0,0.0318046808242797,0.1577985286712646
-0.0141264917328953,0.0142102809622883,0.0288238935172557,-0.0704483315348625,0.1206698566675186,-0.3391347527503967,0.0,1.0,0.1587195396423339,0.1474244594573974
-0.0141461370512843,0.012622270733118,0.0154926506802439,-0.0692587047815322,0.1033166870474815,-0.3470632135868072,0.0,1.0,-0.1370812654495239,-0.0625151395797729
-0.0141661642119288,0.0104345893487334,0.0154968770220875,-0.096113845705986,0.0859638974070549,-0.3470560312271118,0.0,0.0,-0.2682798504829407,0.3395848274230957
-0.0141895292326807,0.0076474882662296,0.0149116497486829,-0.1229709908366203,0.0688844621181488,-0.3415886759757995,0.0,0.0,-0.0839053988456726,-0.3483593463897705
-0.0142597202211618,0.0045816516503691,0.0183625891804695,-0.1352821737527847,0.0437968149781227,-0.5017536878585815,0.0,1.0,0.7744632959365845,0.3782867193222046
-0.0142076490446925,0.0015145993093028,0.0301133096218109,-0.1357729882001876,0.0191956907510757,-0.4920226037502289,0.0,1.0,0.7574031352996826,-0.1283814907073974
-0.0140659334138035,-0.0010544919641688,0.0386022105813026,-0.1140466406941413,-0.0049245478585362,-0.4824047088623047,0.0,1.0,0.6016068458557129,-0.114510178565979
-0.013802433386445,-0.0023387693800032,0.0311961378902196,-0.057108137756586,-0.0096755810081958,-0.0949873030185699,1.0,0.0,-0.0339024662971496,0.0730828046798706
-0.0135783199220895,-0.0029921198729425,0.0274185184389352,-0.0290979333221912,-0.0146314911544322,-0.0991209372878074,1.0,1.0,-0.0134407877922058,-0.6113482117652893
