x_pos,y_pos,x_vel,y_vel,angle,ang_vel,leg_1,leg_2,main_booster,lat_booster
-0.0016200065147131,1.4029940366744995,-0.1646738946437835,-0.3522676825523376,0.0023878735955804,0.0471495278179645,0.0,0.0,-0.1345614790916443,0.94869863986969
-0.0032587051391601,1.394456386566162,-0.1646964997053146,-0.3794465661048889,0.0032145990990102,0.0165366567671298,0.0,0.0,-0.2788227796554565,0.6586098670959473
-0.0049354555085301,1.385283589363098,-0.167428582906723,-0.4076828360557556,0.0029696899000555,-0.0048986887559294,0.0,0.0,0.7334212064743042,0.8716354370117188
-0.0067871091887354,1.3762634992599487,-0.1834206581115722,-0.4008921980857849,0.0012434825766831,-0.0345274023711681,0.0,0.0,0.0712320804595947,0.9448509216308594
-0.0085705760866403,1.3672504425048828,-0.1752064526081085,-0.4005806744098663,-0.0018656499451026,-0.0621889047324657,0.0,0.0,-0.3485366702079773,0.8280647993087769
-0.0103810308501124,1.3576056957244873,-0.1763312965631485,-0.4286658465862274,-0.006519706454128,-0.0930894836783409,0.0,0.0,0.609760046005249,0.8137619495391846
-0.0122564313933253,1.3481746912002563,-0.1816144287586212,-0.4191953837871551,-0.0123821822926402,-0.1172603964805603,0.0,0.0,0.1658898591995239,0.7542135715484619
-0.0140564916655421,1.338797092437744,-0.1731324344873428,-0.4168486893177032,-0.01917858235538,-0.1359403729438781,0.0,0.0,-0.0795571208000183,0.1733913421630859
-0.0159677509218454,1.3287897109985352,-0.1846608221530914,-0.4448707699775696,-0.0255700293928384,-0.1278405934572219,0.0,0.0,0.0570768117904663,0.5461256504058838
-0.0179370883852243,1.3188509941101074,-0.1897613853216171,-0.4418532252311706,-0.0326622202992439,-0.141856700181961,0.0,0.0,-0.081845223903656,0.953344225883484
-0.0199342723935842,1.308279037475586,-0.1907249093055725,-0.4700836539268493,-0.0415543988347053,-0.1778598129749298,0.0,0.0,-0.1620863080024719,0.6671316623687744
-0.0219874382019042,1.2970726490020752,-0.1951767653226852,-0.4983686804771423,-0.0515888705849647,-0.200708270072937,0.0,0.0,0.3700835704803467,0.686415433883667
-0.0239524841308593,1.286096215248108,-0.1855397522449493,-0.4882549941539764,-0.0624574422836303,-0.2173912525177002,0.0,0.0,-0.3551728129386902,0.7342128753662109
-0.025970172137022,1.2744778394699097,-0.1894470751285553,-0.5169280171394348,-0.0746668726205825,-0.2442106008529663,0.0,0.0,-0.5419461727142334,0.8051371574401855
-0.0280266758054494,1.262230634689331,-0.1916212886571884,-0.5450728535652161,-0.0885878875851631,-0.2784456312656402,0.0,0.0,0.0838319063186645,0.7875789403915405
-0.0300400741398334,1.2496187686920166,-0.1860239654779434,-0.5615121126174927,-0.1037906929850578,-0.3040839433670044,0.0,0.0,-0.6448189616203308,0.3599293231964111
-0.03217239305377,1.2363790273666382,-0.1981519162654876,-0.5895503163337708,-0.1187872216105461,-0.2999579310417175,0.0,0.0,0.1907470226287841,0.4832267761230469
-0.0342905037105083,1.2228955030441284,-0.1974171698093414,-0.6004818081855774,-0.1331237405538559,-0.2867565155029297,0.0,0.0,0.3178882598876953,0.6914533376693726
-0.0363038070499897,1.2097142934799194,-0.1858807206153869,-0.5872786641120911,-0.1485449969768524,-0.3084530532360077,0.0,0.0,0.6483011245727539,0.5226478576660156
-0.0383987426757812,1.1967530250549316,-0.1929314732551574,-0.5777924060821533,-0.1651217192411422,-0.331564724445343,0.0,0.0,0.6870236396789551,-0.6636782288551331
-0.0404006950557231,1.1842830181121826,-0.1854251027107238,-0.5559293627738953,-0.1799434423446655,-0.2964612245559692,0.0,0.0,0.7049202919006348,-0.8108872175216675
-0.0424936302006244,1.1718677282333374,-0.196266770362854,-0.5534211993217468,-0.1930499970912933,-0.2621544003486633,0.0,0.0,0.336738109588623,-0.6320827603340149
-0.044560432434082,1.1594525575637815,-0.1951962113380432,-0.5533230900764465,-0.2046309858560562,-0.2316402941942215,0.0,0.0,0.3901979923248291,-0.8949170708656311
-0.0467024818062782,1.1467854976654053,-0.2045903205871582,-0.5643404126167297,-0.2143405824899673,-0.194208949804306,0.0,0.0,0.54167640209198,-0.1559829711914062
-0.0489703193306922,1.1344118118286133,-0.2165811955928802,-0.5514572858810425,-0.2246747463941574,-0.2067020386457443,0.0,0.0,0.802183985710144,-0.6296924948692322
-0.0514095313847065,1.1225881576538086,-0.2345248460769653,-0.5269560813903809,-0.2342011630535125,-0.190527930855751,0.0,0.0,-0.1127957105636596,-0.4180599451065063
-0.0539740547537803,1.110135555267334,-0.2470114529132843,-0.5549801588058472,-0.2437893003225326,-0.1917626708745956,0.0,0.0,0.3965232372283935,-0.2575619220733642
-0.0566028580069541,1.098109483718872,-0.2528899312019348,-0.5361791253089905,-0.2539750337600708,-0.2037146985530853,0.0,0.0,0.2905470132827759,0.1591132879257202
-0.0593044273555278,1.086371898651123,-0.2596059739589691,-0.5235344171524048,-0.264742910861969,-0.2153572738170623,0.0,0.0,0.114464521408081,-0.4800041317939758
-0.0620597824454307,1.0744874477386477,-0.2648304998874664,-0.5301640033721924,-0.2757101058959961,-0.219343900680542,0.0,0.0,0.1411465406417846,-0.6910342574119568
-0.0648194327950477,1.062842607498169,-0.2665218710899353,-0.5193632245063782,-0.2854088842868805,-0.1939747184514999,0.0,0.0,-0.3552918434143066,-0.8619222640991211
-0.0677804946899414,1.0505967140197754,-0.2884390652179718,-0.5457902550697327,-0.2933142483234405,-0.1581071019172668,0.0,0.0,0.6538050174713135,-0.7804105877876282
-0.0707815140485763,1.0389469861984253,-0.2936276793479919,-0.5190755128860474,-0.2999892830848694,-0.1335004866123199,0.0,0.0,0.486688494682312,0.1341649293899536
-0.0738687515258789,1.0271589756011963,-0.3018140494823456,-0.5253523588180542,-0.3071476221084595,-0.1431662440299987,0.0,0.0,-0.4284805059432983,-0.569893479347229
-0.0771252661943435,1.0147632360458374,-0.3196001350879669,-0.5522172451019287,-0.3134120404720306,-0.1252887547016143,0.0,0.0,0.3686332702636719,0.0326067209243774
-0.0803021416068077,1.0026257038116455,-0.3114752173423767,-0.5408022999763489,-0.319861352443695,-0.1289867758750915,0.0,0.0,0.3840949535369873,-0.7345943450927734
-0.0835660919547081,0.9904378056526184,-0.3213388621807098,-0.5428120493888855,-0.3251236975193023,-0.105246864259243,0.0,0.0,0.219215989112854,0.5501753091812134
-0.0867076888680458,0.978388011455536,-0.3078177273273468,-0.5369798541069031,-0.3317337036132812,-0.1322000324726104,0.0,0.0,0.6919808387756348,-0.4334962964057922
-0.0897345542907714,0.9669535160064696,-0.2958999276161194,-0.5097820162773132,-0.3388330042362213,-0.1419860124588012,0.0,0.0,-0.0367021560668945,0.0331662893295288
-0.0928898826241493,0.9548906087875366,-0.3084533810615539,-0.537810206413269,-0.3462494015693664,-0.1483287662267685,0.0,0.0,-0.1129454970359802,-0.6751292943954468
-0.0962310805916786,0.942236602306366,-0.3283031582832336,-0.5638144612312317,-0.3523614108562469,-0.1222404688596725,0.0,0.0,-0.2487880587577819,0.8584885597229004
-0.0996250137686729,0.9289106726646424,-0.3312401175498962,-0.5942889451980591,-0.3609412312507629,-0.1715964674949646,0.0,0.0,0.0948970317840576,0.1462970972061157
-0.1030137985944747,0.9152143597602844,-0.3306921422481537,-0.6108027100563049,-0.3695789873600006,-0.1727552711963653,0.0,0.0,0.9204374551773072,0.4319021701812744
-0.1062013655900955,0.9016874432563782,-0.3107611536979675,-0.6032859683036804,-0.3780501186847687,-0.1694233119487762,0.0,0.0,0.9018702507019044,0.4252575635910034
-0.1094356551766395,0.8880313634872437,-0.3149048388004303,-0.6092169284820557,-0.3871156871318817,-0.181311160326004,0.0,0.0,-0.0827757716178894,0.6139845848083496
-0.1127518638968467,0.8737130761146545,-0.3214800953865051,-0.6391619443893433,-0.3979407846927643,-0.2165026217699051,0.0,0.0,0.9632818698883056,0.1385219097137451
-0.1159234046936035,0.8594600558280945,-0.3070171177387237,-0.6363478302955627,-0.4088281393051147,-0.2177473306655883,0.0,0.0,0.9407687187194824,-0.5029263496398926
-0.1189962401986122,0.8460398316383362,-0.297397255897522,-0.5993441939353943,-0.4194892942905426,-0.2132230699062347,0.0,0.0,0.9485163688659668,-0.8634584546089172
-0.1220347434282302,0.8334192633628845,-0.2949690222740173,-0.5635842680931091,-0.4290916621685028,-0.1920474022626876,0.0,0.0,0.7741912603378296,0.1570725440979004
-0.1249942779541015,0.820931077003479,-0.2866434752941131,-0.5579081773757935,-0.4392217993736267,-0.2026031464338302,0.0,0.0,0.9647395610809326,-0.6291072964668274
-0.1276723891496658,0.8086529970169067,-0.2597738206386566,-0.5482369661331177,-0.4479945302009582,-0.175454705953598,0.0,0.0,0.8210002183914185,-0.8578882813453674
-0.1302479803562164,0.7969396710395813,-0.2506918311119079,-0.5228092074394226,-0.4555276930332184,-0.1506640315055847,0.0,0.0,0.3757143020629883,-0.8167635798454285
-0.1327546089887619,0.7850682735443115,-0.2450683861970901,-0.5294602513313293,-0.4616919159889221,-0.1232846975326538,0.0,0.0,0.7531481981277466,-0.869037389755249
-0.135066419839859,0.7737563848495483,-0.2268503159284591,-0.5041979551315308,-0.4664685130119324,-0.0955321416258812,0.0,0.0,0.914299726486206,-0.9151883125305176
-0.1371459066867828,0.7624905109405518,-0.2052516192197799,-0.5016118288040161,-0.4694627225399017,-0.0598841607570648,0.0,0.0,0.8120982646942139,-0.9541587829589844
-0.1392901390790939,0.7514147758483887,-0.212959885597229,-0.4927593171596527,-0.4710892736911773,-0.0325308144092559,0.0,0.0,0.9142522811889648,-0.9067820310592652
-0.1410952508449554,0.7409194111824036,-0.1805347949266433,-0.4664457142353058,-0.4710583984851837,0.0006173434667289,0.0,0.0,0.8344597816467285,-0.8991456031799316
-0.1425969153642654,0.7307334542274475,-0.1517308503389358,-0.4521814882755279,-0.4693272709846496,0.0346227958798408,0.0,0.0,0.9346977472305298,-0.8563336730003357
-0.1437593400478363,0.7211979627609253,-0.1191909909248352,-0.4228054285049438,-0.4660769701004028,0.0650057643651962,0.0,0.0,0.595318078994751,-0.9052273035049438
-0.1448403298854828,0.7121622562408447,-0.112245038151741,-0.4001998007297516,-0.4614931643009186,0.0916759967803955,0.0,0.0,0.8841094970703125,-0.7819370627403259
-0.14585742354393,0.7030590772628784,-0.1070413812994957,-0.402837187051773,-0.455628365278244,0.1172961220145225,0.0,0.0,0.90828537940979,-0.8010359406471252
-0.1468102484941482,0.6945483684539795,-0.1014780849218368,-0.3762419521808624,-0.4488191306591034,0.1361848264932632,0.0,0.0,0.8831937313079834,-0.9157066941261292
-0.1475554406642913,0.686150848865509,-0.0822836309671402,-0.3707522451877594,-0.4403236508369446,0.1699099093675613,0.0,0.0,0.6133430004119873,-0.8635256290435791
-0.1482053697109222,0.6779668927192688,-0.0740296319127082,-0.3609214127063751,-0.430473655462265,0.1969994157552719,0.0,0.0,0.3957748413085937,-0.9691839218139648
-0.1488994657993316,0.6696546077728271,-0.079906478524208,-0.3662643134593963,-0.4190976321697235,0.2275206297636032,0.0,0.0,0.592059850692749,-0.8686670064926147
-0.1496661156415939,0.6616201400756836,-0.0882689580321312,-0.353695273399353,-0.4065848290920257,0.2502557933330536,0.0,0.0,0.8633219003677368,-0.3779684901237488
-0.1501483023166656,0.6542750597000122,-0.0595431104302406,-0.3232473134994507,-0.3944468796253204,0.2427588403224945,0.0,0.0,0.1950944662094116,0.2279894351959228
-0.1506131142377853,0.6465625762939453,-0.057655494660139,-0.3397199809551239,-0.3825217485427856,0.2385028898715973,0.0,0.0,0.0511031150817871,-0.7661401033401489
-0.1510277688503265,0.6390106081962585,-0.0537471584975719,-0.3324033915996551,-0.3694853484630584,0.2607287168502807,0.0,0.0,-0.5332551598548889,0.1861759424209594
-0.1515588760375976,0.6308326721191406,-0.0649903863668441,-0.360446959733963,-0.3569372594356537,0.2509618401527405,0.0,0.0,0.1510393619537353,0.2691149711608886
-0.1521002799272537,0.6227249503135681,-0.0653350502252578,-0.3576013147830963,-0.3451736271381378,0.2352724373340606,0.0,0.0,0.0104503631591796,-0.0076676607131958
-0.1526091545820236,0.6145185828208923,-0.061745248734951,-0.3621675670146942,-0.333811491727829,0.2272426187992096,0.0,0.0,-0.3495681285858154,0.0109416246414184
-0.1532306671142578,0.6056855916976929,-0.0725748687982559,-0.3902066648006439,-0.3229376673698425,0.2174764573574066,0.0,0.0,-0.3041678667068481,-0.3267672657966614
-0.1539631783962249,0.5962256789207458,-0.0832443535327911,-0.4182444512844085,-0.3125518262386322,0.2077167481184005,0.0,0.0,-0.0655217170715332,-0.1303191781044006
-0.154804989695549,0.5861387252807617,-0.0937412679195404,-0.4462810456752777,-0.3026534914970398,0.1979665458202362,0.0,0.0,-0.1256768703460693,-0.704961895942688
-0.1558028161525726,0.5754396319389343,-0.1101303920149803,-0.4733985662460327,-0.2919769883155823,0.2135300189256668,0.0,0.0,-0.2704215049743652,-0.2148981094360351
-0.1569062173366546,0.5641134977340698,-0.1202427744865417,-0.501434862613678,-0.2817866504192352,0.2038073539733886,0.0,0.0,0.7131118774414062,-0.2272002696990966
-0.1578927040100097,0.5533486008644104,-0.1080617904663086,-0.4766484498977661,-0.2721217274665832,0.1932983547449112,0.0,0.0,0.0021934509277343,-0.1549918055534362
-0.1588005125522613,0.5426517128944397,-0.0999701470136642,-0.4737357199192047,-0.2627164721488952,0.1881053149700164,0.0,0.0,0.4405546188354492,0.1481473445892334
-0.1597165167331695,0.5323976278305054,-0.0998877361416816,-0.4542739689350128,-0.2542468905448913,0.1693924963474273,0.0,0.0,0.7216475009918213,0.1188626289367675
-0.1607722342014312,0.5220676064491272,-0.112802043557167,-0.4578796029090881,-0.2468825876712799,0.1472861468791961,0.0,0.0,0.8496935367584229,0.5160651206970215
-0.1616183221340179,0.5123686194419861,-0.0904957205057144,-0.4300911128520965,-0.2408980131149292,0.1196913942694664,0.0,0.0,-0.4889729022979736,0.0400488376617431
-0.1625549346208572,0.5020411610603333,-0.0990752577781677,-0.4581190645694732,-0.2353920489549636,0.1101193279027938,0.0,0.0,0.5409555435180664,0.3177782297134399
-0.1634810417890548,0.4920252859592438,-0.0973307639360427,-0.4444042146205902,-0.2305995374917984,0.0958499386906623,0.0,0.0,0.883674144744873,0.292635440826416
-0.1643219888210296,0.4825497269630432,-0.0882991328835487,-0.4204886853694916,-0.2263453006744384,0.0850846841931343,0.0,0.0,0.1760834455490112,0.4047515392303467
-0.1650899946689605,0.4730298221111297,-0.080811969935894,-0.4224934875965118,-0.2222770750522613,0.0813643932342529,0.0,0.0,-0.2793413400650024,-0.260845422744751
-0.1659345626831054,0.4628812074661255,-0.0880137160420417,-0.4505190551280975,-0.2186797857284546,0.0719454139471054,0.0,0.0,0.9427011013031006,0.3092806339263916
-0.1666426658630371,0.4527615308761596,-0.0744021385908126,-0.4492357969284057,-0.2150466740131378,0.0726619884371757,0.0,0.0,0.8405594825744629,0.3808518648147583
-0.1671235114336013,0.4428928792476654,-0.0519632995128631,-0.4380488097667694,-0.2111217081546783,0.0784993022680282,0.0,0.0,-0.5459838509559631,0.5631017684936523
-0.1676156967878341,0.4323737621307373,-0.051263254135847,-0.4672237336635589,-0.2090585529804229,0.0412631593644619,0.0,0.0,0.9520694017410278,0.3701069355010986
-0.1679900139570236,0.4225301742553711,-0.0389937609434127,-0.437271386384964,-0.2074873000383377,0.0314249880611896,0.0,0.0,0.8745177984237671,0.3616034984588623
-0.1682080328464508,0.4133100509643554,-0.023058820515871,-0.4096086323261261,-0.2062115967273712,0.0255141071975231,0.0,0.0,0.6468596458435059,0.1843281984329223
-0.1682187020778656,0.4043988883495331,-0.0024580364115536,-0.3958573937416076,-0.2048164308071136,0.027903338894248,0.0,0.0,-0.3191306591033935,0.1748974323272705
-0.1682750731706619,0.3948586583137512,-0.0065691955387592,-0.4238806962966919,-0.2038724869489669,0.0188784711062908,0.0,0.0,0.1687335968017578,0.4746848344802856
-0.1683355271816253,0.3852297365665436,-0.0063568190671503,-0.4279071986675262,-0.2035481631755828,0.0064865513704717,0.0,0.0,0.5463271141052246,-0.0988721847534179
-0.1681904792785644,0.3761339783668518,0.0142597062513232,-0.4042243659496307,-0.2033013254404068,0.0049368944019079,0.0,0.0,-0.3624190092086792,-0.1792176365852356
-0.1680756509304046,0.3664090037345886,0.0116711501032114,-0.4322472810745239,-0.2034941613674163,-0.00385657325387,0.0,0.0,0.5089006423950195,-0.7501409649848938
-0.1680192947387695,0.3571850061416626,0.0049678874202072,-0.4098649024963379,-0.2028238624334335,0.0134060829877853,0.0,0.0,0.6015079021453857,0.179203987121582
-0.1677637994289398,0.3483002185821533,0.0249322168529033,-0.3947948217391968,-0.2021940201520919,0.0125968027859926,0.0,0.0,-0.5482785701751709,-0.0429891943931579
-0.167522519826889,0.3387861847877502,0.0239176489412784,-0.4228174984455108,-0.2019899189472198,0.0040819928981363,0.0,0.0,0.6798592805862427,-0.8334031105041504
-0.1672925949096679,0.3298154473304748,0.0217078849673271,-0.3985229730606079,-0.2006862759590149,0.0260725952684879,0.0,0.0,-0.1114339232444763,-0.3241462707519531
-0.167066290974617,0.320215493440628,0.0217428319156169,-0.4265455305576324,-0.1997976303100586,0.0177728198468685,0.0,0.0,0.2367513179779052,-0.2894111275672912
-0.1668347418308258,0.3106741309165954,0.0230744518339633,-0.4240506589412689,-0.1997221410274505,0.0015096592251211,0.0,0.0,0.3366742134094238,-0.6443396210670471
-0.1666944473981857,0.3011801838874817,0.0133156161755323,-0.4218553304672241,-0.1989957392215728,0.0145279392600059,0.0,0.0,0.52779221534729,-0.3390260934829712
-0.166314885020256,0.2920050323009491,0.0371745154261589,-0.4076803624629974,-0.1982128769159317,0.0156572479754686,0.0,0.0,0.5408329963684082,-0.8660150766372681
-0.1658559739589691,0.2827004790306091,0.0436863228678703,-0.4132420420646667,-0.1959978938102722,0.0442992262542247,0.0,0.0,0.6946327686309814,-0.3431010246276855
-0.1650772094726562,0.2738745808601379,0.0753789395093917,-0.3919348418712616,-0.1934774667024612,0.0504086837172508,0.0,0.0,-0.5392909049987793,-0.381206750869751
-0.1642720252275467,0.2644192576408386,0.0783866494894027,-0.4199569523334503,-0.1913322359323501,0.0429046340286731,0.0,0.0,0.3590420484542846,-0.080975592136383
-0.1631869375705719,0.2553362846374511,0.1061998158693313,-0.403391569852829,-0.1890116482973098,0.0464116558432579,0.0,0.0,0.0639032125473022,-0.7490083575248718
-0.161998838186264,0.2461747229099273,0.1153310313820838,-0.4067434668540954,-0.1855104267597198,0.0700240731239318,0.0,0.0,-0.3006014823913574,-0.8398480415344238
-0.1608358323574066,0.2364106923341751,0.1114564910531044,-0.4333600401878357,-0.1806496530771255,0.097215361893177,0.0,0.0,0.4261839389801025,-0.7549698352813721
-0.1595071852207183,0.2270276099443435,0.1267530173063278,-0.4162960648536682,-0.1745236068964004,0.1225210577249527,0.0,0.0,0.1992307901382446,-0.388026475906372
-0.1580153405666351,0.2174917608499527,0.1431324332952499,-0.4231155216693878,-0.1684609204530716,0.1212539449334144,0.0,0.0,0.1812928915023803,-0.6608367562294006
-0.1565457284450531,0.2080195546150207,0.1400364637374878,-0.4202190339565277,-0.161534234881401,0.138534128665924,0.0,0.0,0.0226362943649292,-0.8144393563270569
-0.1551254242658615,0.1984259635210037,0.1338118016719818,-0.4255074858665466,-0.1533137261867523,0.1644100248813629,0.0,0.0,-0.0331483483314514,0.38514244556427
-0.1536462754011154,0.1882036030292511,0.1399782449007034,-0.4535324871540069,-0.1453994214534759,0.1582860350608825,0.0,0.0,0.831999659538269,0.0017000436782836
-0.1519910842180252,0.1782239228487014,0.1577505022287368,-0.442803293466568,-0.1376486271619796,0.1550157964229583,0.0,0.0,0.5147533416748047,0.0263608694076538
-0.1501069068908691,0.1680804640054702,0.1803653836250305,-0.450099378824234,-0.1296309679746627,0.1603531092405319,0.0,0.0,0.6374880075454712,-0.591658890247345
-0.1480098664760589,0.1583075672388076,0.2004676163196563,-0.4335745871067047,-0.1204519942402839,0.1835793405771255,0.0,0.0,0.6731946468353271,-0.5518708229064941
-0.1457598656415939,0.1491306871175766,0.214853286743164,-0.407072514295578,-0.110364943742752,0.20174141228199,0.0,0.0,0.1782842874526977,-0.9429312348365784
