x_pos,y_pos,x_vel,y_vel,angle,ang_vel,leg_1,leg_2,main_booster,lat_booster
-0.00159988400992,1.4034420251846311,-0.1623982042074203,-0.3323553800582886,0.0021566494833678,0.0425713546574115,0.0,0.0,0.5007698873231465,-0.659044244547347
-0.0032771111000329,1.3964303731918335,-0.1716202795505523,-0.3116427361965179,0.0060106925666332,0.0770887359976768,0.0,0.0,0.7094080082666747,0.7435987424540684
-0.0048229219391942,1.389859318733215,-0.1576577574014663,-0.2920624613761902,0.0090640010312199,0.0610717944800853,0.0,0.0,0.1011218631199395,-0.9431362043766074
-0.0066146850585937,1.3836002349853516,-0.1844716966152191,-0.2782244086265564,0.014303476549685,0.1047991663217544,0.0,0.0,-0.5569445215978639,0.7669438681246742
-0.0084074977785348,1.3771629333496094,-0.1830478608608245,-0.2861384749412536,0.0180322732776403,0.0745828673243522,0.0,0.0,-0.0931417483743179,-0.6369278166191275
-0.0103123662993311,1.37054181098938,-0.1955811232328415,-0.2943416833877563,0.0230678338557481,0.1007203608751297,0.0,0.0,-0.0867955216356219,0.6500470549251606
-0.0122407916933298,1.3637404441833496,-0.1970081180334091,-0.3023540079593658,0.0271939020603895,0.0825287252664566,0.0,0.0,0.5778348404482592,0.6105318124737636
-0.0140551570802927,1.3576935529708862,-0.1851085871458053,-0.2688224911689758,0.0308209378272295,0.0725475847721099,0.0,0.0,0.6555211906496037,-0.7485876492817786
-0.0160387996584177,1.3527265787124634,-0.2038268148899078,-0.2208777964115142,0.0362291745841503,0.1081743463873863,0.0,0.0,0.355351848907846,0.6334102561947549
-0.018065070733428,1.348477482795715,-0.2071492969989776,-0.188966616988182,0.0407043658196926,0.0895119309425354,0.0,0.0,0.4466195295999544,-0.731019934167215
-0.0201556198298931,1.3448288440704346,-0.2155163586139679,-0.1623534709215164,0.0471029244363307,0.1279829144477844,0.0,0.0,-0.8464542284702463,-0.7043023403282891
-0.0223632808774709,1.3409937620162964,-0.2287992238998413,-0.1707231253385543,0.0550531893968582,0.1590197384357452,0.0,0.0,-0.149872506344783,-0.9036879801960668
-0.0246941559016704,1.336977481842041,-0.2428571879863739,-0.1788835823535919,0.0647242292761802,0.1934388577938079,0.0,0.0,-0.7885891329990675,0.7400335751646898
-0.0270261764526367,1.3327796459197998,-0.2416226416826248,-0.1869518607854843,0.0730717182159423,0.1669648587703704,0.0,0.0,0.7994060099717786,-0.6667547855292215
-0.0293761249631643,1.3297635316848757,-0.2454736679792404,-0.1345935314893722,0.0834655165672302,0.2078948318958282,0.0,0.0,0.3341004770197699,-0.8762120257009515
-0.0317776687443256,1.326919436454773,-0.2527909874916076,-0.1271554976701736,0.0960067957639694,0.250848114490509,0.0,0.0,0.2262390961590985,0.913103379466138
-0.0341138839721679,1.3248811960220337,-0.2447706460952758,-0.0913372933864593,0.1070921570062637,0.2217275202274322,0.0,0.0,0.818380288897419,0.6917742719546061
-0.0363323204219341,1.3233076333999634,-0.2323103696107864,-0.0707189217209816,0.1175082325935363,0.2083397805690765,0.0,0.0,0.7826840520085581,0.9700081005449313
-0.038520909845829,1.3228868246078491,-0.2278459966182708,-0.019434442743659,0.1264564990997314,0.178981751203537,0.0,0.0,-0.765690500007215,0.9962055129233376
-0.0407007224857807,1.3222970962524414,-0.225524827837944,-0.0268604587763547,0.1339698582887649,0.1502807438373565,0.0,0.0,0.4389771034714842,-0.6762275186757933
-0.0429575927555561,1.322518825531006,-0.2350812703371048,0.0089875133708119,0.1433432549238205,0.1874848306179046,0.0,0.0,-0.0108657400438938,-0.9769298738218511
-0.0453450195491313,1.3225384950637815,-0.250310480594635,-0.0002860452223103,0.1549053937196731,0.2312632799148559,0.0,0.0,-0.7268777469014553,0.7869717392126101
-0.0477126128971576,1.3223940134048462,-0.2466537654399871,-0.0074764192104339,0.1648218333721161,0.1983463019132614,0.0,0.0,0.7195998107365138,0.720369150615954
-0.0500513091683387,1.322575330734253,-0.2427586615085601,0.0070510362274944,0.1737331002950668,0.1782413274049759,0.0,0.0,0.5802882498077342,-0.775760647405291
-0.0527568832039833,1.3234328031539917,-0.2809582650661468,0.0368566289544105,0.1841887384653091,0.2091313153505325,0.0,0.0,0.7474293944353987,0.7694586445414804
-0.0557528510689735,1.3251609802246094,-0.3083781599998474,0.0756943896412849,0.1930062472820282,0.1763500720262527,0.0,0.0,-0.7302045556565144,0.8314215727802629
-0.0587329864501953,1.3267323970794678,-0.3053372502326965,0.0688702017068862,0.200381264090538,0.1475005447864532,0.0,0.0,0.5733420421095392,0.7492107592606397
-0.061993695795536,1.3292624950408936,-0.3318730294704437,0.111644335091114,0.2062296271324157,0.1169671267271041,0.0,0.0,0.8963462692133153,0.9990006923819468
-0.0655685439705848,1.332897424697876,-0.3612584769725799,0.1610230654478073,0.2100310772657394,0.0760290473699569,0.0,0.0,-0.6845214782921807,-0.9722050041189856
-0.0692638382315635,1.336322546005249,-0.3755083978176117,0.151366725564003,0.2160763591527938,0.1209051981568336,0.0,0.0,-0.6667628287197411,-0.6021319460946977
-0.0730464905500412,1.3395583629608154,-0.3856117725372314,0.1427235454320907,0.2234998941421508,0.14847032725811,0.0,0.0,-0.1385652117151965,0.7025110836272537
-0.0768212303519249,1.3426252603530884,-0.3837910592556,0.1353324502706527,0.2298950850963592,0.1279038786888122,0.0,0.0,0.0445545695292945,-0.7698817874093014
-0.0808688178658485,1.346216917037964,-0.4127411842346191,0.1583578884601593,0.2379999458789825,0.1620968729257583,0.0,0.0,0.8069169969173662,-0.8413631072691649
-0.0851835235953331,1.350144863128662,-0.4411560595035553,0.1729749143123626,0.2478496432304382,0.196993738412857,0.0,0.0,0.929283260834143,0.8168135930528457
-0.089630126953125,1.3549902439117432,-0.4529257416725158,0.2139304429292678,0.2562658190727234,0.1683235615491867,0.0,0.0,0.4420730934736179,0.8091702129893156
-0.0941989868879318,1.360649347305298,-0.4637091755867004,0.2503088712692261,0.2632302343845367,0.1392890512943267,0.0,0.0,0.8881279836641203,-0.9750925594093732
-0.099039651453495,1.366833209991455,-0.4929196238517761,0.2732294499874115,0.2722775340080261,0.1809462308883667,0.0,0.0,0.208421764675188,-0.7695843748567751
-0.1040885001420974,1.3736350536346436,-0.5153893828392029,0.3003125190734863,0.2830574810504913,0.2155995815992355,0.0,0.0,-0.1070780400462541,-0.766833845358379
-0.1092286109924316,1.380238056182861,-0.5262041687965393,0.2910494208335876,0.2956267595291137,0.2513851821422577,0.0,0.0,0.3841341482420333,-0.6179106254441269
-0.114564798772335,1.387382984161377,-0.5471709966659546,0.3147444128990173,0.309632658958435,0.280117779970169,0.0,0.0,0.2183913725553179,0.8933396732354679
-0.1201218590140342,1.3951663970947266,-0.567504346370697,0.3433608114719391,0.3218906223773956,0.245159313082695,0.0,0.0,-0.9876720309257508,0.9999285936355592
-0.1256108283996582,1.402812361717224,-0.5584133863449097,0.3376723825931549,0.3318046033382416,0.1982798278331756,0.0,0.0,-0.9928600192070008,0.9979956150054932
-0.131031796336174,1.4103116989135742,-0.549423098564148,0.331595778465271,0.3394657671451568,0.1532231271266937,0.0,0.0,-0.9977338314056396,0.5226176977157593
-0.1364261656999588,1.4176524877548218,-0.5456564426422119,0.3247834742069244,0.3459776937961578,0.1302391588687896,0.0,0.0,-0.9943470358848572,0.955270767211914
-0.1417692154645919,1.4248368740081787,-0.5388625860214233,0.3182019293308258,0.3507646322250366,0.0957390367984771,0.0,0.0,-0.9994236826896667,0.8070155382156372
-0.1470617353916168,1.431867003440857,-0.5321879982948303,0.3117283880710602,0.3538588583469391,0.0618836991488933,0.0,0.0,-0.9999757409095764,0.8694133758544922
-0.1522963494062423,1.43874990940094,-0.5246055722236633,0.3056221604347229,0.3550646603107452,0.0241163186728954,0.0,0.0,-0.98982435464859,0.9311206340789796
-0.1574897766113281,1.445491075515747,-0.5190688967704773,0.2996787130832672,0.3547668755054474,-0.0059554679319262,0.0,0.0,-0.99861741065979,0.6095975637435913
-0.1626603156328201,1.4520747661590576,-0.5158947706222534,0.2928923964500427,0.3535419404506683,-0.024498863145709,0.0,0.0,-0.9997910857200624,0.534899115562439
-0.1678018569946289,1.458495855331421,-0.5120247602462769,0.2859073281288147,0.3513067960739136,-0.0447033271193504,0.0,0.0,-0.94487202167511,0.4455586671829223
-0.1729512214660644,1.4647350311279297,-0.512852132320404,0.2778027653694153,0.3491109311580658,-0.0439173653721809,0.0,0.0,-0.9896357655525208,0.1703840494155883
-0.1781071722507476,1.470791935920715,-0.5135350227355957,0.2696984112262726,0.3469470739364624,-0.0432773306965827,0.0,0.0,-0.9955208897590636,0.6606919765472412
-0.1832098066806793,1.4766948223114014,-0.5067003965377808,0.2631988823413849,0.3432125747203827,-0.0746900886297226,0.0,0.0,-0.9996262192726136,0.0569052696228027
-0.1883163452148437,1.4824155569076538,-0.507109522819519,0.2550942301750183,0.3394961953163147,-0.0743278190493583,0.0,0.0,-0.9954573512077332,-0.3458796739578247
-0.1934256553649902,1.4879542589187622,-0.5073902606964111,0.246989756822586,0.3357913494110107,-0.0740967392921447,0.0,0.0,-0.9695570468902588,-0.3146445751190185
-0.1985365897417068,1.4933106899261477,-0.5075482726097107,0.2388854771852493,0.3320917785167694,-0.0739912912249565,0.0,0.0,-0.9999591708183287,-0.7967098951339722
-0.2036995887756347,1.498465895652771,-0.5140630006790161,0.2296375334262848,0.3297577798366546,-0.0466800592839717,0.0,0.0,-0.9990888237953186,-0.3225977420806885
-0.2088619172573089,1.503438949584961,-0.5139936208724976,0.2215342223644256,0.3274173438549042,-0.0468086078763008,0.0,0.0,-0.9876617789268494,-0.1535924077033996
-0.2140227258205413,1.5082297325134275,-0.5138195157051086,0.2134310603141784,0.3250651061534881,-0.0470446720719337,0.0,0.0,-0.999216079711914,-0.2501941919326782
-0.2191809713840484,1.5128381252288818,-0.5135468244552612,0.205328032374382,0.3226960301399231,-0.0473817437887191,0.0,0.0,-0.9438297748565674,-0.6518183350563049
-0.2243790179491043,1.5172364711761477,-0.5186828970909119,0.1957335770130157,0.3215290606021881,-0.0233398266136646,0.0,0.0,-0.9706177115440368,0.7669064998626709
-0.2295259982347488,1.5214800834655762,-0.5122894644737244,0.1891373246908188,0.3190270662307739,-0.0500401742756366,0.0,0.0,-0.9178473353385924,0.6943783760070801
-0.2346050292253494,1.5255708694458008,-0.5038273334503174,0.182699054479599,0.3147896230220794,-0.0847488120198249,0.0,0.0,-0.9895396828651428,-0.3074957132339477
-0.2396784275770187,1.5294791460037231,-0.5032230615615845,0.1745954304933548,0.3105185329914093,-0.0854215696454048,0.0,0.0,-0.9668051600456238,-0.2091517448425293
-0.2447455376386642,1.533205270767212,-0.5025520920753479,0.1664918810129165,0.3062105178833008,-0.0861602574586868,0.0,0.0,-0.9925771951675416,0.4727828502655029
-0.2498057782649994,1.536749243736267,-0.5018208026885986,0.1583883464336395,0.3018626868724823,-0.0869573876261711,0.0,0.0,-0.9875885844230652,0.7652816772460938
-0.2548008859157562,0.0,-0.4936928153038025,0.1522246450185775,0.2958502471446991,-0.1202485114336013,0.0,0.0,-0.98496276140213,-0.3614470362663269
-0.2597882151603699,0.0,-0.4928596913814544,0.1441198140382766,0.2897932827472687,-0.1211393624544143,0.0,0.0,-0.9607438445091248,0.3300034999847412
-0.2647673189640045,1.546397686004639,-0.4919856190681457,0.1360149383544922,0.2836900055408478,-0.1220654845237732,0.0,0.0,-0.9238231778144836,0.7044888734817505
-0.2696924209594726,1.5492665767669678,-0.4853507876396179,0.1288807392120361,0.2763355374336242,-0.147089347243309,0.0,0.0,-0.9948033690452576,0.3654897212982178
-0.2746087908744812,1.5519535541534424,-0.4844135344028473,0.120774433016777,0.2689324617385864,-0.1480617225170135,0.0,0.0,-0.998260736465454,0.4457217454910278
-0.2795162200927734,1.5544589757919312,-0.4834546446800232,0.1126680523157119,0.2614802420139313,-0.1490451246500015,0.0,0.0,-0.9954203367233276,0.5705680847167969
-0.2843815386295318,1.55680251121521,-0.4782853722572326,0.1056037619709968,0.2530651688575744,-0.1683012843132019,0.0,0.0,-0.9699478149414062,0.2768523693084717
-0.2892376482486725,1.558964490890503,-0.4773015081882477,0.0974960029125213,0.2446010708808899,-0.1692818254232406,0.0,0.0,-0.9960654377937316,0.2069991827011108
-0.2940844893455505,1.56094491481781,-0.4763147234916687,0.0893881097435951,0.2360886186361313,-0.170248657464981,0.0,0.0,-0.7117384076118469,0.0209730863571167
-0.2989222109317779,1.562743902206421,-0.4753312468528747,0.0812800824642181,0.2275289595127105,-0.1711932569742202,0.0,0.0,-0.7751519680023193,0.4994130134582519
-0.3037508130073547,1.564361333847046,-0.4743571281433105,0.0731719061732292,0.2189235985279083,-0.1721071451902389,0.0,0.0,-0.9182326197624208,0.332302451133728
-0.308570384979248,1.5657973289489746,-0.4733983874320984,0.0650636032223701,0.2102745026350021,-0.1729819029569625,0.0,0.0,-0.8782055377960205,0.6882588863372803
-0.3133220076560974,1.5670779943466189,-0.4649816453456878,0.0583317205309867,0.2000104933977127,-0.2052802741527557,0.0,0.0,-0.9057546257972716,-0.0700086951255798
-0.3180651068687439,1.5681777000427246,-0.4640706479549408,0.0502206645905971,0.1897079646587371,-0.2060507833957672,0.0,0.0,-0.9282121062278748,0.5919647216796875
-0.3227631449699402,1.569100856781006,-0.4585829675197601,0.0424231067299842,0.1784412860870361,-0.225333571434021,0.0,0.0,-0.8905274868011475,0.0194953680038452
-0.3274533152580261,1.5698434114456177,-0.4577431678771972,0.0343100614845752,0.1671429872512817,-0.2259658575057983,0.0,0.0,-0.9438567757606506,0.7530540227890015
-0.3320872783660888,1.5704176425933838,-0.450812965631485,0.0268840976059436,0.1545625030994415,-0.2516094744205475,0.0,0.0,-0.6470748782157898,0.7194347381591797
-0.3366634249687195,0.0,-0.4436800479888916,0.0195676982402801,0.1406487673521042,-0.2782749831676483,0.0,0.0,-0.954094648361206,0.8206074237823486
-0.3411706387996673,1.5710737705230713,-0.4351179003715515,0.0123796798288822,0.125107079744339,-0.3108336329460144,0.0,0.0,-0.99080491065979,0.4364571571350097
-0.3456719815731048,1.5711419582366943,-0.4344854950904846,0.0042566936463117,0.109552763402462,-0.3110863268375397,0.0,0.0,-0.9327777624130248,0.5211315155029297
-0.3501250147819519,1.5710327625274658,-0.4285348355770111,-0.0037012493703514,0.0929130837321281,-0.3327938616275787,0.0,0.0,-0.9111648201942444,0.928786277770996
-0.3544885516166687,1.570750713348389,-0.417398065328598,-0.0114701045677065,0.0741386488080024,-0.375488817691803,0.0,0.0,-0.8501293659210205,-0.2348420023918151
-0.3588480353355407,1.5702909231185913,-0.416975736618042,-0.0196026321500539,0.0553702116012573,-0.3753688335418701,0.0,0.0,-0.9619988203048706,-0.7521352767944336
-0.3632496297359466,1.569643497467041,-0.4223431646823883,-0.0282030962407588,0.0377661995589733,-0.3520803153514862,0.0,0.0,-0.9669888019561768,0.9834198951721193
-0.3675716817378998,1.5688300132751465,-0.4124371111392975,-0.0357705503702163,0.0182434096932411,-0.3904560208320617,0.0,0.0,-0.8399227261543274,0.3241591453552246
-0.3718918859958648,1.5678393840789795,-0.4122682213783264,-0.0439055897295475,-0.0012513709953054,-0.3898957073688507,0.0,0.0,-0.8907702565193176,-0.0541844367980957
-0.3762109279632568,1.566671371459961,-0.4121922552585602,-0.0520404949784278,-0.0207100771367549,-0.389174222946167,0.0,0.0,-0.961487352848053,-0.1813229322433471
-0.3805295825004577,1.56532621383667,-0.4122130870819092,-0.0601752065122127,-0.0401243045926094,-0.3882845044136047,0.0,0.0,-0.914224088191986,0.5233397483825684
-0.3848111629486084,1.5638000965118408,-0.4075987935066223,-0.0685029476881027,-0.0604358240962028,-0.4062305092811584,0.0,0.0,-0.8080083727836609,0.909806489944458
-0.3890116214752197,0.0,-0.3974949717521667,-0.0765725448727607,-0.0827481225132942,-0.446246474981308,0.0,0.0,-0.8394657969474792,-0.143761396408081
-0.3932143151760101,1.5602260828018188,-0.3978282809257507,-0.0847167447209358,-0.1049884855747222,-0.4448074698448181,0.0,0.0,-0.864344596862793,0.4408204555511474
-0.3974200785160064,1.5581752061843872,-0.3982720077037811,-0.0928603783249855,-0.127147227525711,-0.4431751370429992,0.0,0.0,-0.5246268510818481,-0.0783976912498474
-0.401629775762558,1.5559484958648682,-0.3988288044929504,-0.1010033711791038,-0.1492144167423248,-0.4413440227508545,0.0,0.0,-0.9101603627204896,-0.1564360857009887
-0.405844509601593,1.5535454750061035,-0.3995010554790497,-0.1091456115245819,-0.1711798757314682,-0.4393091201782226,0.0,0.0,-0.4290381669998169,-0.5014644265174866
-0.4101091921329498,1.550980806350708,-0.4058319926261902,-0.1164861246943473,-0.1918881237506866,-0.4141649603843689,0.0,0.0,-0.2447834610939026,0.4112626314163208
-0.4143809676170349,1.5482394695281982,-0.4067403674125671,-0.1246226131916046,-0.2124736607074737,-0.4117111265659332,0.0,0.0,-0.5039293169975281,-0.8266178965568542
-0.4187368750572204,1.545345664024353,-0.4173386096954345,-0.1313443630933761,-0.2309398204088211,-0.3693231344223022,0.0,0.0,-0.944308340549469,0.0725724697113037
-0.4231020808219909,1.5422736406326294,-0.418488085269928,-0.1394725739955902,-0.2492616176605224,-0.3664360642433166,0.0,0.0,-0.7701244950294495,0.513229489326477
-0.4274309277534485,1.5390084981918335,-0.4139010906219482,-0.1484549343585968,-0.268644779920578,-0.3876633048057556,0.0,0.0,-0.9463123679161072,-0.6689651608467102
-0.4318179488182068,1.5355782508850098,-0.4211564660072326,-0.1557792574167251,-0.2866495251655578,-0.3600947856903076,0.0,0.0,-0.4823116064071655,-0.9009342789649964
-0.4362679123878479,1.5319982767105105,-0.4290636479854584,-0.1623249650001526,-0.3030805587768554,-0.3286207318305969,0.0,0.0,-0.1358528137207031,0.795366644859314
-0.4406727850437164,1.5282185077667236,-0.4233207106590271,-0.1716767847537994,-0.320872813463211,-0.355845034122467,0.0,0.0,-0.4705259799957275,-0.8314322233200073
-0.4451376497745514,0.0,-0.4308714866638183,-0.1780671328306198,-0.3371588587760925,-0.3257207572460174,0.0,0.0,-0.5060963034629822,-0.965326488018036
-0.4496812224388122,1.5202176570892334,-0.4406681060791015,-0.1843344122171402,-0.3515074253082275,-0.2869721055030823,0.0,0.0,-0.1056156158447265,-0.9710172414779664
-0.454312264919281,1.5160114765167236,-0.4516285359859466,-0.1897998303174972,-0.3636055290699005,-0.2419619858264923,0.0,0.0,0.3315675258636474,0.6724045276641846
-0.4586346745491028,1.5124619007110596,-0.4198164939880371,-0.1609603315591812,-0.376756340265274,-0.2630160450935364,0.0,0.0,-0.9548633098602296,-0.5209535360336304
-0.4630103707313537,1.5087480545043943,-0.4263081550598144,-0.1680768132209777,-0.3887341618537903,-0.2395563572645187,0.0,0.0,0.0589048862457275,0.4278031587600708
-0.4673291742801666,1.5054469108581543,-0.4205788075923919,-0.1498467475175857,-0.4008165299892425,-0.2416471689939499,0.0,0.0,0.3621069192886352,-0.2810189127922058
-0.4716016352176666,1.5026119947433472,-0.4158029556274414,-0.1292781680822372,-0.4131190180778503,-0.2460500001907348,0.0,0.0,-0.2387187480926513,-0.5132943987846375
-0.4759353995323181,1.499619722366333,-0.423264741897583,-0.1359811276197433,-0.4240390956401825,-0.2184013426303863,0.0,0.0,0.546666145324707,-0.0979728102684021
-0.4800656735897064,1.4971126317977903,-0.4033315181732178,-0.1143749952316284,-0.4345552325248718,-0.2103234082460403,0.0,0.0,0.0327265262603759,-0.7966556549072266
-0.4840988516807556,1.4947013854980469,-0.3954784274101257,-0.1096202582120895,-0.4431027472019195,-0.1709500551223755,0.0,0.0,-0.7706087231636047,-0.4804835319519043
-0.4881583154201507,1.4921069145202637,-0.3984265625476837,-0.1177176237106323,-0.4513371586799621,-0.1646882891654968,0.0,0.0,-0.5422173142433167,0.0245915651321411
-0.4922451376914978,1.4893288612365725,-0.401481956243515,-0.1258139759302139,-0.4592479765415191,-0.1582161635160446,0.0,0.0,0.7282757759094238,-0.2657541632652282
-0.4961558282375335,1.4867618083953855,-0.3844843208789825,-0.1162834390997886,-0.4665168821811676,-0.1453780680894851,0.0,0.0,0.2465941905975341,-0.8873276114463806
