x_pos,y_pos,x_vel,y_vel,angle,ang_vel,leg_1,leg_2,main_booster,lat_booster
-0.0015327453147619,1.403104543685913,-0.1550947576761245,-0.3473588526248932,0.0016291355714201,0.0321264378726482,0.0,0.0,0.9537388945149288,0.6233037900007041
-0.0029626847244799,1.3956077098846436,-0.1434087008237838,-0.3331948816776275,0.0020344213116914,0.0081070866435766,0.0,0.0,-0.354247736378499,-0.7984016587447843
-0.0044539449736475,1.387584209442139,-0.1506492793560028,-0.3566001057624817,0.0035389820113778,0.0300943199545145,0.0,0.0,-0.444266052050877,0.8993766407523771
-0.005902481265366,1.3790382146835327,-0.1448048502206802,-0.3798225522041321,0.0034933395218104,-0.0009130289545282,0.0,0.0,0.7337607655765872,-0.9314931059965113
-0.0072910310700535,1.371002197265625,-0.1408235132694244,-0.3571665585041046,0.0054338397458195,0.0388135984539985,0.0,0.0,-0.6195404327312677,0.7944086792700011
-0.0086198803037405,1.3624454736709597,-0.1327932327985763,-0.3802995383739471,0.0053399689495563,-0.0018772188341245,0.0,0.0,0.6730386201386909,-0.622285751772971
-0.010043716058135,1.35424542427063,-0.1433882862329483,-0.3644490242004394,0.0063221179880201,0.019645057618618,0.0,0.0,0.07534490802881,0.7338923285694061
-0.011320685967803,1.3461607694625854,-0.1272337138652801,-0.3593197464942932,0.0058685396797955,-0.0090726073831319,0.0,0.0,-0.6156289430100483,0.8422367696313469
-0.0125535009428858,1.3375656604766846,-0.1210919991135597,-0.3819912075996399,0.0037042631302028,-0.0432893596589565,0.0,0.0,-0.1811531990054882,-0.8414352913153533
-0.0138746257871389,1.3284558057785034,-0.1315515339374542,-0.4048847258090973,0.0031420395243912,-0.0112454779446125,0.0,0.0,-0.7496595295333848,-0.8567447511394028
-0.0152769088745117,1.3188263177871704,-0.1410702764987945,-0.4279814958572387,0.0039746537804603,0.0166538003832101,0.0,0.0,0.3160177892158156,0.7142032652372797
-0.0165858268737792,1.309307098388672,-0.1303607523441314,-0.4230686128139496,0.0034411482047289,-0.0106710279360413,0.0,0.0,-0.6890531474168551,0.6650444838307124
-0.0178564079105854,1.299271821975708,-0.1248459964990615,-0.4460128843784332,0.0012624934315681,-0.0435771234333515,0.0,0.0,-0.1705216983517954,0.814529524258758
-0.0190814025700092,1.2887091636657717,-0.1184456199407577,-0.4694493412971496,-0.0027502099983394,-0.0802614316344261,0.0,0.0,0.2526017261880156,-0.7098626015779337
-0.0202676765620708,1.278571367263794,-0.1161394342780113,-0.4505729079246521,-0.0052063288167119,-0.0491269081830978,0.0,0.0,-0.3093332970448348,0.9060427954705276
-0.021397303789854,1.2679024934768677,-0.1083131656050682,-0.4741994440555572,-0.0098073137924075,-0.0920279175043106,0.0,0.0,-0.7880124182343871,-0.8748606654744872
-0.0226086620241403,1.2567249536514282,-0.1178383380174636,-0.4968093633651733,-0.0130787836387753,-0.0654352903366088,0.0,0.0,0.6552214773541387,-0.6320013015940074
-0.0237401966005563,1.245582938194275,-0.1114722341299057,-0.495211124420166,-0.014728975482285,-0.0330069623887538,0.0,0.0,-0.3391006384583923,0.804996483990416
-0.024827767163515,1.2339270114898682,-0.1052182093262672,-0.5180777907371521,-0.0182334575802087,-0.0700960382819175,0.0,0.0,0.4576447567530162,-0.7330713786865557
-0.0260738376528024,1.222503662109375,-0.1224017888307571,-0.507733941078186,-0.0204098690301179,-0.0435318276286125,0.0,0.0,0.4729937423545638,-0.7333917201397667
-0.0272693634033203,1.211568832397461,-0.1190682798624038,-0.4859991669654846,-0.0208928156644105,-0.0096599590033292,0.0,0.0,0.5519296334653894,0.8122966790007784
-0.028411865234375,1.200730323791504,-0.1121617704629898,-0.4817433357238769,-0.0229507628828287,-0.0411627776920795,0.0,0.0,0.9462347935158326,-0.900762023120674
-0.0294750221073627,1.19032883644104,-0.106397196650505,-0.4622761607170105,-0.0228659678250551,0.0016960013890638,0.0,0.0,0.1737100656474492,-0.706249330238748
-0.0305658336728811,1.179732322692871,-0.1106950044631958,-0.4709361791610718,-0.0212806239724159,0.0317096449434757,0.0,0.0,0.9570707143671596,-0.8687918418692261
-0.0319272056221962,1.1697697639465332,-0.1391375213861465,-0.4427447021007538,-0.0183043796569108,0.0595302879810333,0.0,0.0,-0.5648109397896108,-0.8811437035944968
-0.0334092155098915,1.1592727899551392,-0.1534537672996521,-0.466470718383789,-0.0131106609478592,0.1038743108510971,0.0,0.0,0.6542972212510156,0.968551751480765
-0.0348346717655658,1.149351716041565,-0.1459158360958099,-0.4409093856811523,-0.0097928456962108,0.06635632365942,0.0,0.0,-0.1450747952639453,-0.931097481512502
-0.036384392529726,1.1389222145080566,-0.1606646478176117,-0.463513970375061,-0.0041732834652066,0.1123912334442138,0.0,0.0,0.6351688881404842,-0.8184067899968852
-0.0381737723946571,1.1291310787200928,-0.1860782653093338,,0.00288030738011,0.1410716623067855,0.0,0.0,0.909504071192712,0.7888026304965843
-0.0399639122188091,1.1196630001068115,-0.1845664083957672,-0.4208163917064667,0.0083618899807333,0.1096315160393714,0.0,0.0,-0.6076639557247916,0.8662245705174486
-0.0417188629508018,1.1096863746643066,-0.1793076545000076,-0.4434421360492706,0.0121236694976687,0.0752355605363845,0.0,0.0,0.6665396403127668,-0.7032690835507815
-0.0436561591923236,1.099846124649048,-0.1988347768783569,-0.4373884499073028,0.0171604845672845,0.1007364019751548,0.0,0.0,0.2675163395726445,-0.7007697967644304
-0.0457665435969829,1.0904123783111572,-0.2175009548664093,-0.4193702638149261,0.0235488824546337,0.1277678608894348,0.0,0.0,0.681751429187381,0.6988048985034843
-0.0479370132088661,1.081002712249756,-0.222015306353569,-0.4182932078838348,0.0284565947949886,0.0981542244553566,0.0,0.0,0.4693028271173363,-0.6037746256181336
-0.0501916892826557,1.07191002368927,-0.2317568510770797,-0.4042582809925079,0.0346620194613933,0.1241083294153213,0.0,0.0,0.7742191882266669,0.8154333909968215
-0.0524252876639366,1.0635257959365845,-0.2281061112880706,-0.3727448880672455,0.0393489003181457,0.0937378406524658,0.0,0.0,0.5675941538335576,-0.9885937284868448
-0.0548189170658588,1.0552583932876587,-0.2461349219083786,-0.3676313161849975,0.0460367128252983,0.1337562501430511,0.0,0.0,0.4564883418798136,-0.8275268972962079
-0.0573082938790321,1.047481894493103,-0.2574854493141174,-0.3459074795246124,0.0544837415218353,0.1689407080411911,0.0,0.0,-0.7470106655439723,0.8636379033488892
-0.0597712509334087,1.039201259613037,-0.2532798647880554,-0.3683036267757416,0.0613843239843845,0.1380117237567901,0.0,0.0,-0.1354351208346256,-0.8532353226322923
-0.0623356811702251,1.030396580696106,-0.2651181817054748,-0.3916967511177063,0.0699640437960624,0.1715945601463318,0.0,0.0,-0.0755601387905515,0.8848957720384691
-0.0648802742362022,1.02108633518219,-0.2617246508598327,-0.4141424000263214,0.0771514251828193,0.1437479853630066,0.0,0.0,-0.9527894854545592,0.9976749420166016
-0.0673673599958419,1.0112656354904177,-0.2536022067070007,-0.4367404580116272,0.0820022895932197,0.0970171988010406,0.0,0.0,-0.9577613472938538,0.9972596168518066
-0.0697998031973838,1.0009254217147827,-0.2458775490522384,-0.4597100019454956,0.0846040025353431,0.0520344786345958,0.0,0.0,-0.9426236152648926,0.9672352075576782
-0.0721809417009353,0.9900747537612916,-0.2385194599628448,-0.4822750389575958,0.0850134864449501,0.0081894639879465,0.0,0.0,-0.9969841241836548,0.9927741289138794
-0.0745258331298828,0.9787018895149232,-0.2330975234508514,-0.5053831338882446,0.0836307927966117,-0.0276541821658611,0.0,0.0,-0.9667403101921082,0.9794673919677734
-0.07682466506958,0.9668097496032716,-0.2264156639575958,-0.5283496975898743,0.0801958963274955,-0.0686976984143257,0.0,0.0,-0.9926666617393494,0.9905872344970704
-0.0790747627615928,0.9544029235839844,-0.2193929851055145,-0.5511193871498108,0.0746304094791412,-0.1113093942403793,0.0,0.0,-0.9993396401405334,0.8852577209472656
-0.0813063606619834,0.9414928555488586,-0.2161118239164352,-0.5734520554542542,0.0676648542284965,-0.1393113732337951,0.0,0.0,-0.999628245830536,0.8946528434753418
-0.0835207924246788,0.9280771017074584,-0.2130347043275833,-0.5959005951881409,0.0593400783836841,-0.1664954125881195,0.0,0.0,-0.998031497001648,0.6318492889404297
-0.0857248306274414,0.914145052433014,-0.2107778489589691,-0.6188547611236572,0.0498285666108131,-0.1902304887771606,0.0,0.0,-0.9984819889068604,-0.170621633529663
-0.087966538965702,0.8996941447257996,-0.2145646810531616,-0.6419692635536194,0.0403376892209053,-0.1898176521062851,0.0,0.0,-0.9837774634361268,0.6404058933258057
-0.0902003273367881,0.8847320079803467,-0.2126084268093109,-0.6647392511367798,0.0297084916383028,-0.2125841379165649,0.0,0.0,-0.992689311504364,0.583632230758667
-0.0924170464277267,0.8692505955696106,-0.2095271348953247,-0.6878643035888672,0.0177161358296871,-0.2398473024368286,0.0,0.0,-0.9733319878578186,0.2836477756500244
-0.0946714431047439,0.8532513380050659,-0.2132856398820877,-0.7109830975532532,0.0057250456884503,-0.2398219406604766,0.0,0.0,-0.9820635914802552,0.1279854774475097
-0.0969632118940353,0.8367342352867126,-0.217031791806221,-0.7341019511222839,-0.0062720240093767,-0.2399413585662841,0.0,0.0,-0.8394380807876587,0.8537228107452393
-0.0992357283830642,0.8196946978569031,-0.213633581995964,-0.7574196457862854,-0.0197111070156097,-0.2687816321849823,0.0,0.0,-0.889729380607605,-0.2590060830116272
-0.1015455275774002,0.8021377325057983,-0.2173505574464798,-0.7805414795875549,-0.0331716910004615,-0.2692117094993591,0.0,0.0,-0.7827223539352417,-0.2245466709136963
-0.1038926094770431,0.7840633392333984,-0.2210506498813629,-0.8036634922027588,-0.046662088483572,-0.2698080837726593,0.0,0.0,-0.1751052737236023,-0.5287790894508362
-0.1063132286071777,0.7654794454574585,-0.2293092757463455,-0.8264007568359375,-0.0592685304582119,-0.2521289587020874,0.0,0.0,0.8917789459228516,0.3608019351959228
-0.1088046059012413,0.7477328181266785,-0.2359356135129928,-0.7893136739730835,-0.0723258629441261,-0.2611467540264129,0.0,0.0,0.4444687366485595,0.5198147296905518
-0.1112204566597938,0.7299391031265259,-0.2274151295423507,-0.791582465171814,-0.0863572061061859,-0.2806269228458404,0.0,0.0,0.8572070598602295,-0.6135135293006897
-0.1137735396623611,0.7128313183784485,-0.2419937551021576,-0.7611685395240784,-0.0995494052767753,-0.263843834400177,0.0,0.0,-0.229052186012268,-0.2915906906127929
-0.116362951695919,0.6952059864997864,-0.245584636926651,-0.7842904329299927,-0.1128177866339683,-0.2653674185276031,0.0,0.0,0.2580430507659912,0.3369035720825195
-0.1189184188842773,0.6777558922767639,-0.2421930134296417,-0.7766231298446655,-0.1260894387960434,-0.2654330432415008,0.0,0.0,0.3612836599349975,-0.3132069110870361
-0.1214619651436805,0.6602787375450134,-0.2409641295671463,-0.7779530882835388,-0.1394279450178146,-0.2667700350284576,0.0,0.0,0.7998292446136475,-0.4200278520584106
-0.1240855231881141,0.6432688236236572,-0.2482477128505706,-0.7573778033256531,-0.1534974724054336,-0.2813905477523803,0.0,0.0,0.5647106170654297,-0.4017777442932129
-0.1266005486249923,0.62693852186203,-0.2374098747968673,-0.7273010015487671,-0.1675909608602523,-0.2818697094917297,0.0,0.0,-0.0841320753097534,-0.1770094633102417
-0.1291508674621582,0.6100913882255554,-0.2408479750156402,-0.7504260540008545,-0.181813359260559,-0.2844480872154236,0.0,0.0,0.9484376907348632,-0.6411538124084473
-0.1315695792436599,0.5942241549491882,-0.2289467602968216,-0.7068480849266052,-0.1947953701019287,-0.2596401572227478,0.0,0.0,0.5853114128112793,-0.2853526473045349
-0.1340237557888031,0.5785344243049622,-0.2319604456424713,-0.6991526484489441,-0.2083463966846466,-0.2710206508636474,0.0,0.0,0.7305898666381836,-0.1572164297103881
-0.1364596337080001,0.5633983612060547,-0.2295800447463989,-0.6747509241104126,-0.2225050330162048,-0.283172607421875,0.0,0.0,0.3816941976547241,-0.7966166734695435
-0.1388477385044098,0.548519492149353,-0.2262832373380661,-0.6632255911827087,-0.2351951003074646,-0.2538011372089386,0.0,0.0,0.4478586912155151,-0.8745853304862976
-0.1412867605686187,0.5342808961868286,-0.2328373938798904,-0.6346341371536255,-0.2464435547590255,-0.2249692380428314,0.0,0.0,-0.6269133687019348,-0.3342234492301941
-0.1437592506408691,0.5195246338844299,-0.236025258898735,-0.6577552556991577,-0.2578892409801483,-0.2289135158061981,0.0,0.0,-0.1148362159729003,-0.4999154210090637
-0.1462649405002594,0.5042510628700256,-0.2391645461320877,-0.680877149105072,-0.2695436775684356,-0.2330888211727142,0.0,0.0,0.4360719919204712,-0.8669520020484924
-0.1487312316894531,0.4888601303100586,-0.2368232905864715,-0.6858801245689392,-0.2795955836772918,-0.2010384500026703,0.0,0.0,0.9076700210571288,-0.8597591519355774
-0.1512269973754882,0.4735526740550995,-0.2411803305149078,-0.6819596886634827,-0.2882207930088043,-0.1725041270256042,0.0,0.0,0.8798518180847168,-0.917539656162262
-0.1535758972167968,0.459068238735199,-0.2280764579772949,-0.6451157927513123,-0.2952357828617096,-0.1403003633022308,0.0,0.0,0.985344648361206,-0.789092481136322
-0.155628964304924,0.4454612135887146,-0.2000503242015838,-0.6058321595191956,-0.3006617128849029,-0.1085186824202537,0.0,0.0,0.9775381088256836,-0.5532103180885315
-0.1575998365879058,0.4328252077102661,-0.1922807991504669,-0.562602162361145,-0.305633932352066,-0.0994446128606796,0.0,0.0,0.9414081573486328,-0.7223839163780212
-0.1596965789794922,0.4203201830387115,-0.2056495696306228,-0.5566327571868896,-0.3098074495792389,-0.0834696143865585,0.0,0.0,0.8810930252075195,-0.6058002710342407
-0.1615465134382248,0.4085868597030639,-0.1820095032453537,-0.5221217274665833,-0.3128993511199951,-0.0618382506072521,0.0,0.0,0.9508798122406006,-0.5110437870025635
-0.1633753776550293,0.3973816633224487,-0.1802515089511871,-0.4985765218734741,-0.3156267702579498,-0.0545486286282539,0.0,0.0,0.9911559820175172,0.0826261043548584
-0.1650423109531402,0.3868535757064819,-0.1634766310453415,-0.4686191380023956,-0.3189694881439209,-0.0668540969491005,0.0,0.0,0.9305078983306884,-0.0599918365478515
-0.1664946526288986,0.3769774734973907,-0.1416457593441009,-0.439732164144516,-0.3226969838142395,-0.0745496377348899,0.0,0.0,0.8486312627792358,-0.131661057472229
-0.1676756888628006,0.3674626350402832,-0.1146372780203819,-0.42365562915802,-0.3263035118579864,-0.0721312314271926,0.0,0.0,0.9582252502441406,-0.6026829481124878
-0.1687714606523513,0.3580088317394256,-0.1070543676614761,-0.4207451045513153,-0.3289445340633392,-0.0528205819427967,0.0,0.0,0.9623169898986816,-0.507142186164856
-0.1696678102016449,0.3486749529838562,-0.088087722659111,-0.4151891469955444,-0.330553650856018,-0.0321821011602878,0.0,0.0,0.9789990186691284,-0.7012912631034851
-0.1702405959367752,0.3397276103496551,-0.0572130493819713,-0.3976766765117645,-0.3306244611740112,-0.0014163173036649,0.0,0.0,0.8892929553985596,-0.5222029685974121
-0.1705719977617263,0.33083575963974,-0.0342108495533466,-0.3949492275714874,-0.329511284828186,0.0222636517137289,0.0,0.0,0.8697545528411865,0.0212228298187255
-0.1706587821245193,0.3226355016231537,-0.0093495426699519,-0.3643030524253845,-0.3288060426712036,0.0141048897057771,0.0,0.0,0.4976645708084106,-0.9370911717414856
-0.1705850660800933,0.3149201869964599,0.0051865787245333,-0.3424095809459686,-0.3265338838100433,0.0454431846737861,0.0,0.0,0.3540509939193725,-0.5718652606010437
-0.1702955216169357,0.3074335157871246,0.0258047133684158,-0.3320322632789612,-0.3232563436031341,0.0655513480305671,0.0,0.0,-0.3209900856018066,-0.9128686785697936
-0.1700869500637054,0.2994483411312103,0.0166135784238576,-0.3539564907550812,-0.3188415169715881,0.0882964879274368,0.0,0.0,-0.4355247020721435,-0.7446308732032776
-0.1699606925249099,0.2909732758998871,0.0071852356195449,-0.3754845261573791,-0.3131890594959259,0.1130491644144058,0.0,0.0,-0.1783763170242309,-0.6308096051216125
-0.1698939353227615,0.2820073366165161,0.0005532292416319,-0.3971792459487915,-0.3068430125713348,0.1269212514162063,0.0,0.0,0.3549592494964599,-0.5716971755027771
-0.1697688102722168,0.2732208371162414,0.0057104984298348,-0.3890897035598755,-0.2998031973838806,0.1407960206270218,0.0,0.0,-0.0438177585601806,-0.2429131865501403
-0.169662669301033,0.2639167904853821,0.0042183995246887,-0.412211149930954,-0.2931974530220032,0.1321149617433548,0.0,0.0,0.5714377164840698,-0.5739445090293884
-0.1693399399518966,0.2550318241119385,0.0249376446008682,-0.3934274911880493,-0.2856488823890686,0.1509708762168884,0.0,0.0,0.3012542724609375,-0.3270057439804077
-0.1689085960388183,0.2464977353811264,0.036412701010704,-0.3779959082603454,-0.2787428498268127,0.1381208002567291,0.0,0.0,-0.5231255888938904,-0.347072958946228
-0.1684940308332443,0.2374459654092788,0.0351761281490325,-0.4011169373989105,-0.2722904980182647,0.1290463060140609,0.0,0.0,0.6679991483688354,-0.6489020586013794
-0.1680358946323394,0.2286323606967926,0.0387376993894577,-0.3904155790805816,-0.2650467753410339,0.1448746770620346,0.0,0.0,-0.3528790473937988,-0.1659799814224243
-0.1675928086042404,0.2193012088537216,0.0376693531870842,-0.4135368168354034,-0.2582684755325317,0.1355657428503036,0.0,0.0,0.4472043514251709,-0.5050626397132874
-0.1672227829694748,0.2101860642433166,0.0301744099706411,-0.4039282500743866,-0.2512948215007782,0.1394724547863006,0.0,0.0,0.2324446439743042,-0.4425320625305176
-0.1666564047336578,0.2013026624917984,0.0498977825045585,-0.3936824202537536,-0.2444317638874054,0.1372607946395874,0.0,0.0,0.2476975917816162,-0.56467205286026
-0.1660300195217132,0.1923000216484069,0.0551378354430198,-0.398890882730484,-0.2368154972791671,0.1523255407810211,0.0,0.0,0.5545848608016968,-0.0561118125915527
-0.1651146858930587,0.1837783902883529,0.0838856324553489,-0.3775243461132049,-0.2290534973144531,0.1552400439977646,0.0,0.0,-0.0627745389938354,-0.7167543768882751
-0.1642669737339019,0.1747650951147079,0.076114110648632,-0.3992685973644256,-0.2202770859003067,0.1755279600620269,0.0,0.0,0.5456709861755371,-0.3732533454895019
-0.1631248444318771,0.1663607656955719,0.1054124683141708,-0.3722363710403442,-0.2113772928714752,0.1779952645301818,0.0,0.0,-0.115429937839508,-0.8520413637161255
-0.1620499640703201,0.1574576199054718,0.0976740270853042,-0.3943214118480682,-0.2014785259962082,0.1979753822088241,0.0,0.0,0.0495043992996215,-0.2382153272628784
-0.1608849465847015,0.1488008052110672,0.1071863174438476,-0.3835088014602661,-0.1921024173498153,0.1875217854976654,0.0,0.0,0.4122225046157837,-0.4754559993743896
-0.1595491468906402,0.1406027674674987,0.1245235353708267,-0.3632055521011352,-0.1829912960529327,0.1822225451469421,0.0,0.0,0.0438275337219238,-0.7144908308982849
-0.1581667959690094,0.1323105245828628,0.1281793117523193,-0.3673367798328399,-0.1729134768247604,0.2015568017959594,0.0,0.0,0.4886407852172851,-0.3076939582824707
-0.156804472208023,0.124352365732193,0.1271840333938598,-0.3526671230792999,-0.1638561487197876,0.1811466515064239,0.0,0.0,0.2568122148513794,-0.5485390424728394
-0.1555334031581878,0.1164914220571518,0.1176846250891685,-0.3483638763427734,-0.1544320285320282,0.1884825080633163,0.0,0.0,0.5988856554031372,-0.3223059773445129
-0.1542051285505294,0.1089260876178741,0.1240070834755897,-0.3353435099124908,-0.1456199437379837,0.1762418001890182,0.0,0.0,0.6414914131164551,-0.2620848417282104
-0.1527798622846603,0.1016239002346992,0.1340840458869934,-0.3237409591674804,-0.1372062116861343,0.1682747453451156,0.0,0.0,0.910529613494873,-0.7274532318115234
-0.1511984765529632,0.0943933799862861,0.1483761221170425,-0.3204869031906128,-0.1274782568216323,0.1945589184761047,0.0,0.0,0.6778581142425537,-0.1723387241363525
-0.1494350433349609,0.0876593887805938,0.1666268557310104,-0.2984877824783325,-0.1178136020898819,0.1932931244373321,0.0,0.0,0.3040502071380615,-0.6333242058753967
-0.1476282179355621,0.0813670754432678,0.1701600849628448,-0.2788630723953247,-0.1073660254478454,0.2089516818523407,0.0,0.0,0.1449707746505737,-0.7169204354286194
