x_pos,y_pos,x_vel,y_vel,angle,ang_vel,leg_1,leg_2,main_booster,lat_booster
-0.0014820098876953,1.4033660888671875,-0.1507996320724487,-0.3357347249984741,0.0023254523985087,0.0459134392440319,0.0,0.0,-0.6584560871124268,0.8564112186431885
-0.0028491974808275,1.3955729007720947,-0.1377386897802353,-0.3463626205921173,0.0033346938434988,0.0201874263584613,0.0,0.0,0.230457067489624,0.6631615161895752
-0.0040122033096849,1.3879681825637815,-0.1167729273438453,-0.3379865288734436,0.003801099024713,0.0093290042132139,0.0,0.0,-0.3880257606506347,0.0548568964004516
-0.0051331520080566,1.3801051378250122,-0.1131544113159179,-0.3494781851768493,0.0048494017682969,0.0209680888801813,0.0,0.0,-0.4315185546875,0.6296347379684448
-0.0061518670991063,1.371985912322998,-0.1019989699125289,-0.3608486950397491,0.0049684196710586,0.0023806497920304,0.0,0.0,-0.7762823104858398,0.6670355796813965
-0.0070642470382153,1.3636081218719482,-0.0902998894453048,-0.3723487854003906,0.0040517640300095,-0.0183350406587123,0.0,0.0,-0.4479824304580688,0.0897693634033203
-0.0079343793913722,1.3549717664718628,-0.086679920554161,-0.3838330209255218,0.0037201992236077,-0.0066319247707724,0.0,0.0,-0.3716417551040649,0.6677160263061523
-0.008696842007339,1.3460795879364014,-0.0748380869626998,-0.3952105343341827,0.0023241369053721,-0.0279238186776638,0.0,0.0,-0.842539370059967,-0.4853032827377319
-0.0094172479584813,1.3369288444519043,-0.071222499012947,-0.406695008277893,0.0015147915109992,-0.016188558191061,0.0,0.0,-0.8055962324142456,0.01120126247406
-0.0100956913083791,1.327519774436951,-0.0676131546497345,-0.418179303407669,0.0012914364924654,-0.0044675217941403,0.0,0.0,-0.6008630990982056,-0.3495957851409912
-0.0107320789247751,1.3178523778915403,-0.0640107691287994,-0.4296635091304779,0.0016547424020245,0.0072665689513087,0.0,0.0,-0.8023052215576172,0.0593442916870117
-0.0113265989348292,1.3079265356063845,-0.0604159608483314,-0.4411477446556091,0.0026048975996673,0.0190047305077314,0.0,0.0,-0.8219155073165894,0.1232867240905761
-0.0118793491274118,1.2977423667907717,-0.0568298324942588,-0.4526321291923523,0.0041420292109251,0.0307455454021692,0.0,0.0,-0.7946497201919556,-0.0967376232147216
-0.0123903276398777,1.2872999906539917,-0.0532533600926399,-0.4641167521476745,0.0062662181444466,0.0424878746271133,0.0,0.0,-0.932190716266632,-0.2572617530822754
-0.01285982131958,1.2765991687774658,-0.0496875569224357,-0.4756016433238983,0.0089774448424577,0.0542295947670936,0.0,0.0,-0.9237818717956544,-0.3588862419128418
-0.0132878301665186,1.2656402587890625,-0.0461335107684135,-0.4870868921279907,0.0122756864875555,0.0659706145524978,0.0,0.0,-0.8966770768165588,-0.6242203712463379
-0.013712597079575,1.254429817199707,-0.0473662763833999,-0.4982888400554657,0.0171160455793142,0.096815750002861,0.0,0.0,-0.9365871548652648,-0.0001061558723449
-0.0140961650758981,1.2429615259170532,-0.0438420511782169,-0.5097758769989014,0.0225425213575363,0.1085393279790878,0.0,0.0,-0.9036147594451904,0.3809680938720703
-0.0144386291503906,1.231235384941101,-0.0403328947722911,-0.5212637782096863,0.0285554863512516,0.1202703267335891,0.0,0.0,-0.9242550134658812,0.6466888189315796
-0.0146960262209177,1.2192530632019043,-0.0312899947166442,-0.5326610207557678,0.0340418890118598,0.1097381263971328,0.0,0.0,-0.9324440956115724,0.1493114233016967
-0.0149127962067723,1.2070132493972778,-0.0278121829032897,-0.5441499352455139,0.0401146411895751,0.1214658766984939,0.0,0.0,-0.9731906652450562,0.9049824476242064
-0.0150160789489746,1.1945148706436155,-0.0151981096714735,-0.5556227564811707,0.0449395775794982,0.0965072959661483,0.0,0.0,-0.8140391707420349,0.4029231071472168
-0.0150790214538574,1.1817586421966553,-0.0117559237405657,-0.5671116709709167,0.0503506325185298,0.1082305163145065,0.0,0.0,-0.9394288659095764,0.5518726110458374
-0.0150528904050588,1.1687424182891846,-0.0022128978744149,-0.5786688923835754,0.0551222339272499,0.0954405218362808,0.0,0.0,-0.7987234592437744,0.5621342658996582
-0.0149531364440917,1.1554728746414185,0.0054365070536732,-0.5899328589439392,0.0596238002181053,0.0900392308831214,0.0,0.0,-0.9198293089866638,0.8619215488433838
-0.0147613529115915,1.1419334411621094,0.0153527315706014,-0.6019140481948853,0.0634085536003112,0.0756949335336685,0.0,0.0,-0.8456080555915833,0.6124284267425537
-0.0144815444946289,1.1281447410583496,0.0248024556785821,-0.612972617149353,0.0665501877665519,0.0628329440951347,0.0,0.0,-0.9093239307403564,0.4332797527313232
-0.014162540435791,1.1140981912612915,0.0281311031430959,-0.6244591474533081,0.0702762678265571,0.0745215564966201,0.0,0.0,-0.6497219204902649,0.6324796676635742
-0.0137659069150686,1.099803447723389,0.0363111421465873,-0.6354842782020569,0.073598675429821,0.0664480328559875,0.0,0.0,-0.8938292860984802,0.3431524038314819
-0.0133306505158543,1.0852510929107666,0.0395731925964355,-0.6469712853431702,0.0775048732757568,0.0781241804361343,0.0,0.0,-0.8970575332641602,0.7395962476730347
-0.0127976415678858,1.0704562664031982,0.0503047034144401,-0.6576982140541077,0.080473281443119,0.0593681223690509,0.0,0.0,-0.7063292860984802,-0.165623664855957
-0.0122268674895167,1.0554040670394895,0.0534881427884101,-0.6691853404045105,0.0840246081352233,0.0710267201066017,0.0,0.0,-0.9267944693565368,0.3167098760604858
-0.0116188051179051,1.040094256401062,0.0566272623836994,-0.6806730031967163,0.0881583243608474,0.08267442882061,0.0,0.0,-0.8056470155715942,0.7906011343002319
-0.0109178544953465,1.0245273113250732,0.0667527616024017,-0.6920672059059143,0.0914674624800682,0.0661830902099609,0.0,0.0,-0.7259306311607361,0.3984885215759277
-0.0101807592436671,1.0087027549743652,0.0697917491197586,-0.7035550475120544,0.0953577011823654,0.0778047516942024,0.0,0.0,-0.1977332234382629,0.9016284942626952
-0.0093352319672703,0.9926380515098572,0.0819139033555984,-0.7141588926315308,0.0979743674397468,0.052333403378725,0.0,0.0,-0.7295435667037964,0.354468822479248
-0.0084546087309718,0.9763159155845642,0.0848356634378433,-0.7256466746330261,0.1011704802513122,0.0639221295714378,0.0,0.0,-0.1599116921424865,0.6028740406036377
-0.0074895857833325,0.9597484469413756,0.0939934179186821,-0.7365009784698486,0.103665255010128,0.0498956181108951,0.0,0.0,0.1813201904296875,0.7873827219009399
-0.0065238000825047,0.9438357353210448,0.0950876623392105,-0.7073331475257874,0.1051362752914428,0.0294205583631992,0.0,0.0,-0.2197365164756775,0.8809828758239746
-0.0054527283646166,0.9276782870292664,0.1068971380591392,-0.7181304097175598,0.1053436025977134,0.0041463254019618,0.0,0.0,0.1788541078567505,0.7050678730010986
-0.0044385911896824,0.9120928645133972,0.1021491289138794,-0.6926273703575134,0.1046141311526298,-0.0145894913002848,0.0,0.0,-0.2851338386535644,0.7692356109619141
-0.0033203125931322,0.8962597846984863,0.1138534769415855,-0.7035511136054993,0.1026101782917976,-0.0400791764259338,0.0,0.0,-0.4423656463623047,-0.9120585918426514
-0.0022312165237963,0.880149781703949,0.1088099479675293,-0.7160034775733948,0.1027068942785263,0.0019344981992617,0.0,0.0,-0.5749335885047913,0.739544153213501
-0.001045036362484,0.8637913465499878,0.1196722611784935,-0.7269728779792786,0.1016562134027481,-0.0210134945809841,0.0,0.0,-0.3324426412582397,-0.5032883882522583
0.0001274108944926,0.8471629023551941,0.1166392192244529,-0.7390851378440857,0.1022468581795692,0.0118130566552281,0.0,0.0,-0.4411286115646362,0.6662482023239136
0.0013834952842444,0.830278754234314,0.1258878111839294,-0.7503882646560669,0.1019758209586143,-0.0054209264926612,0.0,0.0,-0.3847028017044067,0.1824911832809448
0.0026653290260583,0.8131369352340698,0.1278845369815826,-0.7618755102157593,0.1022679880261421,0.0058435453101992,0.0,0.0,0.1492108106613159,0.7623523473739624
0.0038826942909508,0.7966066598892212,0.1224900260567665,-0.7346259951591492,0.1015194430947303,-0.0149708269163966,0.0,0.0,-0.4559642672538757,0.484005331993103
0.0051229475066065,0.7798188924789429,0.1242201551795005,-0.7461132407188416,0.101328395307064,-0.0038211629725992,0.0,0.0,-0.622507631778717,0.6827273368835449
0.0064366338774561,0.762779176235199,0.1323272436857223,-0.7572463154792786,0.1003787145018577,-0.0189935527741909,0.0,0.0,-0.5339570641517639,-0.3454762697219848
0.0077702524140477,0.7454821467399597,0.1337618976831436,-0.768733561038971,0.0999794900417327,-0.0079842153936624,0.0,0.0,-0.5384429097175598,-0.6278897523880005
0.0090676303952932,0.7279235124588013,0.1282139420509338,-0.7804898619651794,0.1014966592192649,0.0303433891385793,0.0,0.0,-0.4358881115913391,0.8788059949874878
0.0104637145996093,0.7101147770881653,0.1396166980266571,-0.791496992111206,0.1014870628714561,-0.000191850689589,0.0,0.0,-0.6499863266944885,-0.7958882451057434
0.0118118282407522,0.6920462846755981,0.1326881945133209,-0.8031902313232422,0.1035900935530662,0.0420605354011058,0.0,0.0,-0.3124316334724426,0.6497164964675903
0.0132368085905909,0.6737276911735535,0.1414753645658493,-0.8142309784889221,0.1046091243624687,0.0203804243355989,0.0,0.0,0.0626964569091796,-0.3265902996063232
0.0145801547914743,0.655593991279602,0.1330696940422058,-0.8060304522514343,0.1058690175414085,0.0251977629959583,0.0,0.0,-0.2179564237594604,-0.3719583749771118
0.0159327499568462,0.6372029185295105,0.1334690600633621,-0.8175175189971924,0.1076473817229271,0.0355672724545002,0.0,0.0,3.993511199951172e-05,-0.3289594650268554
0.0173318870365619,0.6191763281822205,0.1372116208076477,-0.8013759255409241,0.1103231534361839,0.0535153858363628,0.0,0.0,0.428678035736084,0.6037793159484863
0.0187749862670898,0.6019793152809143,0.1421709507703781,-0.7644653916358948,0.1124441549181938,0.0424198433756828,0.0,0.0,-0.4906735420227051,-0.0874342322349548
0.0202213283628225,0.5845248699188232,0.1420003920793533,-0.7759528756141663,0.1150590032339096,0.0522969551384449,0.0,0.0,0.1080577373504638,0.4875701665878296
0.0216744430363178,0.5671890377998352,0.142038494348526,-0.7707420587539673,0.1183166280388832,0.0651526302099227,0.0,0.0,0.720083475112915,0.6552677154541016
0.0229796413332223,0.5506758093833923,0.1283455044031143,-0.7340911626815796,0.1204728409647941,0.0431241579353809,0.0,0.0,-0.2089496254920959,0.9001156091690063
0.0243672374635934,0.5339183211326599,0.1383150815963745,-0.7448159456253052,0.1209261193871498,0.0090652462095022,0.0,0.0,0.0391405820846557,-0.5050628185272217
0.0256802551448345,0.5174737572669983,0.129349410533905,-0.7310298085212708,0.1228647977113723,0.0387733727693557,0.0,0.0,0.5569643974304199,0.2840223312377929
0.0269475933164358,0.5013352632522583,0.1243067979812622,-0.717465341091156,0.1252720654010772,0.0481454208493232,0.0,0.0,-0.0965607166290283,0.268869400024414
0.0282061584293842,0.4849392473697662,0.1230174154043197,-0.7289527058601379,0.1280987709760666,0.0565342083573341,0.0,0.0,0.5977945327758789,0.8780205249786377
0.0294393543154001,0.4695448875427246,0.1218175739049911,-0.6843258142471313,0.1296037584543228,0.0300994757562875,0.0,0.0,0.1046642065048217,0.7474249601364136
0.0307568553835153,0.4541984796524048,0.1312898844480514,-0.6821020841598511,0.1300559788942337,0.0090445335954427,0.0,0.0,0.2632815837860107,-0.5198034048080444
0.0319564826786518,0.4395676553249359,0.1180515140295028,-0.6504296660423279,0.131959319114685,0.0380667373538017,0.0,0.0,-0.6914176940917969,0.8425229787826538
0.0331962592899799,0.424686461687088,0.1231406554579734,-0.6614589691162109,0.1327910870313644,0.0166352279484272,0.0,0.0,0.5989447832107544,0.1353163719177246
0.0342434868216514,0.4105042219161987,0.1039838641881942,-0.6303891539573669,0.1335371881723404,0.0149216707795858,0.0,0.0,0.0319691896438598,0.6349363327026367
0.0352911949157714,0.3966575860977173,0.1049588173627853,-0.6153861880302429,0.1333411484956741,-0.0039205672219395,0.0,0.0,0.7032716274261475,0.3749651908874511
0.0360707268118858,0.3838211297988891,0.0784864872694015,-0.5704638361930847,0.1328099817037582,-0.0106235379353165,0.0,0.0,0.4517604112625122,0.1127978563308715
0.0368248932063579,0.3714940547943115,0.0753929391503334,-0.5478746891021729,0.1328319013118744,0.0004388050583656,0.0,0.0,-0.2748351097106933,0.9224730730056764
0.0376243591308593,0.3589154779911041,0.0814380496740341,-0.5589134693145752,0.1313461810350418,-0.0297146085649728,0.0,0.0,0.4901564121246338,-0.3876079320907593
0.0384212508797645,0.346527099609375,0.0806983858346939,-0.5505096912384033,0.1303459852933883,-0.0200040489435195,0.0,0.0,0.4901618957519531,-0.0115965008735656
0.0391239151358604,0.3343303501605987,0.0712309554219245,-0.5419924855232239,0.129388079047203,-0.0191582012921571,0.0,0.0,0.5728664398193359,0.2324002981185913
0.0396939292550087,0.3229972720146179,0.0578496567904949,-0.5036200284957886,0.1285390555858612,-0.016980605199933,0.0,0.0,0.2160725593566894,0.0834671258926391
0.0402167327702045,0.3123106360435486,0.052751176059246,-0.4749234020709991,0.1280793994665146,-0.0091933691874146,0.0,0.0,0.7050473690032959,0.3761842250823974
0.0404874794185161,0.3025984764099121,0.0279807150363922,-0.4315731227397918,0.127171441912651,-0.0181592926383018,0.0,0.0,-0.1247260570526123,0.7014913558959961
0.0407713875174522,0.2926292419433594,0.0303437020629644,-0.4429128766059875,0.1252248138189315,-0.0389325991272926,0.0,0.0,0.4111315011978149,0.6633189916610718
0.0410284996032714,0.2834294736385345,0.0289066080003976,-0.4086159765720367,0.122049830853939,-0.0634999275207519,0.0,0.0,0.1712496280670166,0.470475435256958
0.0411321632564067,0.274565726518631,0.0138944564387202,-0.3936573565006256,0.1185410916805267,-0.0701747983694076,0.0,0.0,0.1939194202423095,0.6853097677230835
0.0411539077758789,0.2661780714988708,0.0071679218672215,-0.3723971545696258,0.1135736629366874,-0.0993484929203987,0.0,0.0,-0.6961262822151184,0.7322912216186523
0.0411974899470806,0.2575457990169525,0.0108647691085934,-0.3831773698329925,0.107112742960453,-0.1292185932397842,0.0,0.0,-0.4104340076446533,-0.2119093537330627
0.0412060730159282,0.2486555874347686,0.0074614793993532,-0.3946624994277954,0.1005635187029838,-0.1309845149517059,0.0,0.0,-0.003162145614624,-0.6670634746551514
0.0411290153861045,0.2394931614398956,-0.0022716757375746,-0.4068641364574432,0.0951781570911407,-0.1077069193124771,0.0,0.0,0.5305080413818359,0.1171562671661377
0.0410658828914165,0.2306417375802993,-0.0011460597161203,-0.393074482679367,0.09004707634449,-0.1026216149330139,0.0,0.0,0.1068947315216064,-0.398095965385437
0.0410294532775878,0.2221169620752334,0.0012518524890765,-0.3785918951034546,0.085202544927597,-0.0968910828232765,0.0,0.0,0.0729485750198364,-0.7279828786849976
0.0409802421927452,0.2137169986963272,-0.0013853174168616,-0.3731344044208526,0.0816984325647354,-0.0700821056962013,0.0,0.0,-0.2722859978675842,-0.4825038909912109
0.040892980992794,0.205058604478836,-0.004967201501131,-0.38461634516716,0.0779754742980003,-0.0744592100381851,0.0,0.0,0.4917709827423095,-0.0244343280792236
0.0407417304813861,0.1971693336963653,-0.0112539399415254,-0.350437194108963,0.0741397142410278,-0.0767154544591903,0.0,0.0,0.4065802097320556,-0.5442160367965698
0.0405809395015239,0.1898811608552932,-0.0132976155728101,-0.3237836062908172,0.0713893845677375,-0.0550062470138073,0.0,0.0,0.1381813287734985,-0.5286400318145752
0.0403996482491493,0.1826690286397934,-0.0162830408662557,-0.3204501271247864,0.069553293287754,-0.0367217063903808,0.0,0.0,-0.0224457383155822,-0.028511106967926
0.040178395807743,0.1751983910799026,-0.0199581962078809,-0.3319310247898102,0.0674125552177429,-0.0428147055208683,0.0,0.0,0.3861323595046997,0.2444715499877929
0.0399390235543251,0.1685596853494644,-0.021772401407361,-0.2949595153331756,0.0652769356966018,-0.0427124872803688,0.0,0.0,-0.1279374361038208,-0.5287556052207947
0.0396158210933208,0.1616578847169876,-0.030923593789339,-0.3066858649253845,0.0638939291238784,-0.0276601072400808,0.0,0.0,0.7053139209747314,-0.366904079914093
0.0390710830688476,0.1557143330574035,-0.0521065220236778,-0.264058381319046,0.0615594834089279,-0.0466890037059783,0.0,0.0,-0.2999656200408935,-0.0705331563949585
0.0384852401912212,0.1495122015476226,-0.0558454878628253,-0.2755392491817474,0.0588524788618087,-0.0541399419307708,0.0,0.0,-0.3599974513053894,-0.2072216272354126
0.0378580093383789,0.1430515795946121,-0.0595969632267952,-0.2870203554630279,0.0557585917413234,-0.0618776492774486,0.0,0.0,-0.1303843855857849,0.1832119226455688
0.0371890068054199,0.1363324075937271,-0.0633597820997238,-0.2985017001628876,0.0522644631564617,-0.0698825567960739,0.0,0.0,0.3132705688476562,0.0169600248336792
0.0364377982914447,0.1299461722373962,-0.0710814446210861,-0.2836958765983581,0.0482661090791225,-0.0799669474363327,0.0,0.0,-0.460044264793396,0.4304182529449463
0.0356444343924522,0.123301587998867,-0.0748638957738876,-0.2951778769493103,0.0438435412943363,-0.0884512811899185,0.0,0.0,-0.5695918798446655,-0.2077208161354065
0.0348086357116699,0.1163986548781395,-0.0786548182368278,-0.3066602945327759,0.0389860682189464,-0.0971497222781181,0.0,0.0,-0.0964650511741638,0.8173847198486328
0.0340063087642192,0.1092469543218612,-0.0729288905858993,-0.3176804482936859,0.0317709222435951,-0.1443028151988983,0.0,0.0,-0.2010602951049804,0.2223389148712158
0.0331613533198833,0.1018374040722847,-0.0767342895269393,-0.3291659951210022,0.0241017695516347,-0.1533829420804977,0.0,0.0,0.2433861494064331,-0.8486047983169556
0.0323177352547645,0.0950397551059722,-0.0779305547475814,-0.3020281195640564,0.017755614593625,-0.126923382282257,0.0,0.0,0.3357609510421753,-0.6233945488929749
0.0313503257930278,0.0889284014701843,-0.0910525470972061,-0.2715582549571991,0.0121398968622088,-0.1123144626617431,0.0,0.0,-0.1169389486312866,-0.3455651402473449
0.0303398128598928,0.082559049129486,-0.0948749631643295,-0.2830428183078766,0.0060465764254331,-0.1218663826584816,0.0,0.0,-0.1207374334335327,-0.6837327480316162
0.0292389877140522,0.0759314149618148,-0.1046305298805236,-0.2945493459701538,0.000656318035908,-0.1078051328659057,0.0,0.0,0.310806393623352,-0.1674782037734985
0.0280886646360158,0.0700175389647483,-0.109047032892704,-0.2628482282161712,-0.0052509242668747,-0.1181446462869644,0.0,0.0,0.1264663934707641,0.1313956975936889
0.0269392021000385,0.0646509751677513,-0.1086551547050476,-0.2385490536689758,-0.0114630069583654,-0.1242415755987167,0.0,0.0,-0.3816795349121094,0.2105331420898437
0.0257462505251169,0.0590267740190029,-0.1124925166368484,-0.2500351667404175,-0.018176395446062,-0.1342679113149643,0.0,0.0,0.0629458427429199,0.2259312868118286
0.0244383811950683,0.0537436828017234,-0.1231076344847679,-0.2349152415990829,-0.0257599744945764,-0.1516718715429306,0.0,0.0,-0.1899596452713012,-0.043953537940979
0.0230868346989154,0.0482032410800457,-0.1269498169422149,-0.2464035302400589,-0.0338540896773338,-0.1618822962045669,0.0,0.0,0.561991810798645,-0.3960749506950378
0.0216895099729299,0.0432056747376918,-0.1309276819229126,-0.2223383039236068,-0.0425570383667945,-0.1740591824054718,0.0,0.0,0.3379490375518799,-0.606672465801239
0.0202419273555278,0.038598857820034,-0.1366932839155197,-0.2049979865550995,-0.0505263581871986,-0.1593861877918243,0.0,0.0,-0.0347399711608886,-0.1265977621078491
0.0187505725771188,0.0337349027395248,-0.1405397355556488,-0.2164879143238067,-0.059017363935709,-0.1698203384876251,0.0,0.0,0.0751774311065673,0.1558338403701782
0.0173051841557025,0.0292747840285301,-0.1357254981994629,-0.1986025273799896,-0.0677398592233657,-0.1744499951601028,0.0,0.0,0.2606093883514404,-0.0339626669883728
0.0158766750246286,0.0254768468439579,-0.1335866004228592,-0.1692387908697128,-0.0769016742706298,-0.1832360923290252,0.0,0.0,-0.1005025506019592,-0.046522319316864
0.0144044877961277,0.0214223489165306,-0.1374341994524002,-0.1807316094636917,-0.086593747138977,-0.1938416510820388,0.0,0.0,0.4908385276794433,-0.3362455368041992
