x_pos,y_pos,x_vel,y_vel,angle,ang_vel,leg_1,leg_2,main_booster,lat_booster
-0.0015211105346679,1.4034849405288696,-0.1546202152967453,-0.330445796251297,0.0022490185219794,0.0444003455340862,0.0,0.0,0.2882043731064878,0.7036392205796308
-0.0029399872291833,1.3964701890945437,-0.143259584903717,-0.3117709457874298,0.0036029720213264,0.0270821899175643,0.0,0.0,0.7835960302107137,-0.9504584320385344
-0.0042718886397778,1.3899633884429932,-0.1372130662202835,-0.2892099618911743,0.0075892810709774,0.0797333866357803,0.0,0.0,0.0215208845020036,0.9501952063494452
-0.0056171417236328,1.3837772607803345,-0.1371546685695648,-0.2749537229537964,0.0101873446255922,0.0519659891724586,0.0,0.0,-0.2718318866332638,-0.6497042877177106
-0.0069999694824218,1.3774535655975342,-0.1424137651920318,-0.2810947000980377,0.0142730912193655,0.0817226618528366,0.0,0.0,-0.7125283123834518,0.8625134819510554
-0.0082968715578317,1.3709909915924072,-0.1321861743927002,-0.2872456312179565,0.0167377106845378,0.0492967888712883,0.0,0.0,0.4759681915774374,0.7612728085495021
-0.009562206454575,1.365164041519165,-0.127948448061943,-0.2589938342571258,0.0181310512125492,0.0278697405010461,0.0,0.0,0.4840698685765183,0.6828387302646461
-0.0106341363862156,1.360076665878296,-0.1080265417695045,-0.2261143028736114,0.0189516525715589,0.0164135731756687,0.0,0.0,-0.7209446110272029,0.9532382761889016
-0.0116299632936716,1.3548624515533447,-0.0990185961127281,-0.2317374646663665,0.0183951947838068,-0.0111304800957441,0.0,0.0,0.2500813504503105,0.7567653918228703
-0.0125741958618164,1.350339651107788,-0.0928243547677993,-0.2009941488504409,0.0168126448988914,-0.0316538140177726,0.0,0.0,-0.8925187996951749,-0.7433505353471599
-0.0135658262297511,1.3456765413284302,-0.0993176847696304,-0.2072439789772033,0.0169663317501544,0.0030741412192583,0.0,0.0,-0.8850410532746267,-0.8563954533193874
-0.0146142002195119,1.3408712148666382,-0.1069889441132545,-0.2135999947786331,0.0190902464091777,0.0424818806350231,0.0,0.0,-0.0868313412033301,-0.9834512114699684
-0.0157207492738962,1.3359298706054688,-0.1148221343755722,-0.2196699827909469,0.0232135020196437,0.0824726596474647,0.0,0.0,0.082189928531269,-0.6050253907255994
-0.0168269164860248,1.331193208694458,-0.116550825536251,-0.2106291651725769,0.0290831569582223,0.1174038276076316,0.0,0.0,0.0701804821866627,-0.668694487315719
-0.0178951267153024,1.3271275758743286,-0.1146906837821006,-0.1808682382106781,0.0368675775825977,0.1557027697563171,0.0,0.0,-0.1775575229962378,0.8330736952275174
-0.0188827514648437,1.3229178190231323,-0.1051356345415115,-0.1872701644897461,0.0431666485965251,0.1259930580854416,0.0,0.0,-0.6982286935167348,0.9113933121393544
-0.0197797771543264,1.3185856342315674,-0.0942884907126426,-0.1926771849393844,0.0477090403437614,0.0908560380339622,0.0,0.0,-0.0612671355877891,0.7510305620574781
-0.0206006057560443,1.3141134977340698,-0.0852729901671409,-0.1988675594329834,0.0508748926222324,0.0633226707577705,0.0,0.0,-0.5413622838154917,0.6394729595783598
-0.0213600154966115,1.3095128536224363,-0.0781288295984268,-0.2045488506555557,0.0530294515192508,0.0430952608585357,0.0,0.0,-0.3502916875737778,-0.845495152468561
-0.022192383185029,1.3047668933868408,-0.0877923816442489,-0.2111011892557144,0.0575529299676418,0.0904775112867355,0.0,0.0,0.0578925371314165,0.6134198267188835
-0.0229094512760639,1.3006196022033691,-0.0756272673606872,-0.1844777315855026,0.0614390857517719,0.0777300372719764,0.0,0.0,0.1068003541996145,-0.7925701577575296
-0.0236949920654296,1.2967679500579834,-0.0845449492335319,-0.1714428812265396,0.0673687681555748,0.1186042055487632,0.0,0.0,0.5295597607969287,-0.802524876434774
-0.0244413372129201,1.2935380935668943,-0.0829079449176788,-0.143932044506073,0.0755668431520462,0.1639762222766876,0.0,0.0,0.9403225125876562,0.936443193941542
-0.0250477790832519,1.2907267808914185,-0.0676543787121772,-0.1253159344196319,0.0825223922729492,0.1391237080097198,0.0,0.0,-0.1221157042872687,0.8610394683848163
-0.0255994796752929,1.2877860069274902,-0.061317890882492,-0.1310567259788513,0.0886204615235328,0.1219719499349594,0.0,0.0,-0.4491565298254618,-0.8100764923900308
-0.0262264255434274,1.2846794128417969,-0.0713187828660011,-0.1386072337627411,0.0971729755401611,0.1710503846406936,0.0,0.0,0.8982548054069237,0.6171480480556437
-0.0268780700862407,1.282692551612854,-0.0730103030800819,-0.0888318121433258,0.1049547046422958,0.1556343138217926,0.0,0.0,0.8414919098748372,0.7511812235573109
-0.0277220718562603,1.2819321155548096,-0.0908140391111373,-0.0342632122337818,0.1113319769501686,0.1275453865528106,0.0,0.0,0.9427034617659912,-0.8363918174938654
-0.0288968086242675,1.2823593616485596,-0.1256681680679321,0.0183549765497446,0.1194688230752945,0.1627368927001953,0.0,0.0,0.0488758234399391,-0.9447040981108072
-0.0301949493587017,1.283090353012085,-0.1403288692235946,0.0316111780703067,0.1299353241920471,0.2093298435211181,0.0,0.0,-0.4535268828466929,-0.7623927811280465
-0.0315484032034873,1.2836817502975464,-0.147765651345253,0.0251489281654357,0.1423076689243316,0.2474469244480133,0.0,0.0,0.151266361133102,0.8187959954074718
-0.0329392440617084,1.2845855951309204,-0.1502351909875869,0.0390610136091709,0.1534362584352493,0.2225718200206756,0.0,0.0,0.8836968736451136,0.9511992832778592
-0.0344962105154991,1.286709189414978,-0.1651724129915237,0.0933766663074493,0.1629073619842529,0.1894219815731048,0.0,0.0,-0.5392606078193245,0.7832853063721318
-0.0359941497445106,1.2887018918991089,-0.1582920402288437,0.0876097902655601,0.1714003235101699,0.1698593199253082,0.0,0.0,-0.2406061325312858,0.8395689647510698
-0.0374218933284282,1.2905761003494265,-0.1499233543872833,0.0824546366930008,0.1785788685083389,0.1435709297657013,0.0,0.0,-0.3630462078043954,-0.7503758938269182
-0.0389031395316123,1.2923030853271484,-0.1571413576602935,0.0756407156586647,0.1876212656497955,0.1808480024337768,0.0,0.0,0.0123163361092808,0.7446926894818946
-0.0403929725289344,1.2943111658096311,-0.1568814218044281,0.0882289260625839,0.1955638825893402,0.1588527858257293,0.0,0.0,-0.8145160834642295,0.7692273242105439
-0.0418166145682334,1.29620623588562,-0.1490078121423721,0.0833342298865318,0.2022539377212524,0.1338011026382446,0.0,0.0,0.8091891555725579,0.7696667685925651
-0.0434097275137901,1.2993316650390625,-0.1646860986948013,0.1381694227457046,0.2076787203550338,0.1084956973791122,0.0,0.0,-0.9108751962906612,-0.9655920882949718
-0.0450703613460063,1.3022983074188232,-0.1736452877521515,0.1307637840509414,0.2153305262327194,0.1530357897281646,0.0,0.0,0.5660008807669792,-0.7879089104179772
-0.0470564849674701,1.306159496307373,-0.2079182863235473,0.1702265441417694,0.2247437089681625,0.1882635205984115,0.0,0.0,-0.9852883219718932,0.7987344264984131
-0.0489646904170513,1.3099071979522705,-0.1985488981008529,0.1653609424829483,0.2325768023729324,0.1566618382930755,0.0,0.0,-0.961962342262268,0.1893373727798462
-0.0508692748844623,1.3135173320770264,-0.1985165029764175,0.1591555327177047,0.2407562732696533,0.1635894924402237,0.0,0.0,-0.9029768705368042,0.219050645828247
-0.0527703277766704,1.3169901371002195,-0.1984742581844329,0.1529496759176254,0.2492700666189193,0.170275866985321,0.0,0.0,-0.9022838473320008,0.3154460191726684
-0.0546677596867084,1.320325493812561,-0.1984223425388336,0.146743431687355,0.2581051290035248,0.1767020523548126,0.0,0.0,-0.9575155973434448,0.5378597974777222
-0.0565168373286724,1.323535680770874,-0.1927080750465393,0.1412796229124069,0.2660814225673675,0.159526377916336,0.0,0.0,-0.898822009563446,0.443169355392456
-0.0583624839782714,1.3266083002090454,-0.1926382333040237,0.1350743174552917,0.2743500769138336,0.1653730124235153,0.0,0.0,-0.9114912748336792,0.6251387596130371
-0.0601675994694232,1.3295661211013794,-0.1878173649311065,0.1300686001777649,0.2818579077720642,0.1501560509204864,0.0,0.0,-0.9475275874137878,0.8112301826477051
-0.061922837048769,1.3324140310287476,-0.181826502084732,0.1253354400396347,0.2883343696594238,0.129529982805252,0.0,0.0,-0.950370728969574,0.0759059190750122
-0.0636750236153602,1.3351237773895264,-0.1817320883274078,0.1191326081752777,0.2950519323348999,0.1343514621257782,0.0,0.0,-0.9649959206581116,0.8352551460266113
-0.0653461441397667,1.337730884552002,-0.1717941462993621,0.1149122864007949,0.2998889982700348,0.0967410653829574,0.0,0.0,-0.9558433890342712,0.4647783041000366
-0.0670142173767089,1.3401997089385986,-0.1716849356889724,0.1087117046117782,0.3049277365207672,0.1007749885320663,0.0,0.0,-0.982467770576477,0.7320101261138916
-0.06861362606287,1.3425569534301758,-0.1632902920246124,0.1040584817528724,0.3083902895450592,0.0692513659596443,0.0,0.0,-0.9461829662322998,0.0814102888107299
-0.0702103599905967,1.344775676727295,-0.1631670743227005,0.0978597775101661,0.3120112717151642,0.0724198967218399,0.0,0.0,-0.8917431235313416,0.1539921760559082
-0.0718045234680175,1.346855640411377,-0.1630369424819946,0.0916615426540374,0.315767765045166,0.0751297771930694,0.0,0.0,-0.978511393070221,0.3460731506347656
-0.0733963027596473,1.348796844482422,-0.1629001200199127,0.0854637846350669,0.3196360766887665,0.0773661509156227,0.0,0.0,-0.9770156741142272,0.4664151668548584
-0.0749857872724533,1.3505994081497192,-0.162756860256195,0.0792665779590606,0.3235918879508972,0.0791163817048072,0.0,0.0,-0.9764308333396912,0.4781899452209472
-0.076573371887207,1.35226309299469,-0.1626073718070984,0.0730699524283409,0.3276104032993316,0.0803703218698501,0.0,0.0,-0.9556198120117188,0.3667442798614502
-0.0781589522957801,1.353787541389465,-0.1624519079923629,0.0668739452958107,0.3316664397716522,0.0811205953359603,0.0,0.0,-0.9325509667396544,0.8324394226074219
-0.0796904563903808,1.3552078008651731,-0.15561543405056,0.0625527873635292,0.3342398405075073,0.0514679849147796,0.0,0.0,-0.969811201095581,0.8168232440948486
-0.0811530128121376,1.3565163612365725,-0.1469757109880447,0.0579870529472827,0.3349952399730682,0.0151081774383783,0.0,0.0,-0.986837923526764,0.484508752822876
-0.0826142281293869,1.3576854467391968,-0.1468042880296707,0.0517943724989891,0.3357118666172027,0.0143325924873352,0.0,0.0,-0.9850277304649352,0.8443496227264404
-0.0839982032775878,1.3587522506713867,-0.137034609913826,0.0477335229516029,0.3342853784561157,-0.0285290516912937,0.0,0.0,-0.9947730302810668,0.7454272508621216
-0.0853239074349403,1.359710454940796,-0.1296062171459198,0.0432722754776477,0.3311846852302551,-0.0620136782526969,0.0,0.0,-0.9966834187507628,0.0245752334594726
-0.086648941040039,1.3605289459228516,-0.1294198334217071,0.0370808914303779,0.3279709815979004,-0.064274251461029,0.0,0.0,-0.9621047377586364,0.5787336826324463
-0.0879392623901367,1.3612254858016968,-0.1249109506607055,0.0318850129842758,0.3236808478832245,-0.0858029574155807,0.0,0.0,-0.998249650001526,0.5933307409286499
-0.0891849547624588,1.3618119955062866,-0.11907260119915,0.0272806081920862,0.317968875169754,-0.1142392754554748,0.0,0.0,-0.9890472292900084,0.5743808746337891
-0.0903801918029785,1.362276554107666,-0.112570621073246,0.0221509356051683,0.3107512295246124,-0.1443528234958648,0.0,0.0,-0.993240475654602,0.2051033973693847
-0.0915755257010459,1.362601399421692,-0.1123661547899246,0.0159582812339067,0.3033308386802673,-0.1484076082706451,0.0,0.0,-0.9904382228851318,0.2600637674331665
-0.0927710533142089,1.362786889076233,-0.1121580377221107,0.0097657646983861,0.2956875562667846,-0.1528655588626861,0.0,0.0,-0.9846328496932985,0.2213116884231567
-0.0939670577645301,1.36283278465271,-0.1119464486837387,0.0035733017139136,0.2878022491931915,-0.1577063053846359,0.0,0.0,-0.9885797500610352,0.2388801574707031
-0.0951635390520095,1.362739324569702,-0.1117316111922264,-0.0026191966608166,0.2796567976474762,-0.1629089266061782,0.0,0.0,-0.9959954619407654,-0.1008537411689758
-0.0963606834411621,1.3625061511993408,-0.1115137189626693,-0.0088118193671107,0.2712341845035553,-0.1684522479772567,0.0,0.0,-0.9931102991104126,0.0165634155273437
-0.0975586920976638,1.3621336221694946,-0.1112929210066795,-0.0150046525523066,0.262518435716629,-0.1743152439594268,0.0,0.0,-0.9584537744522096,0.4813961982727051
-0.0987576469779014,1.3616217374801636,-0.1110694408416748,-0.0211977884173393,0.2534945607185364,-0.1804771721363067,0.0,0.0,-0.9789602160453796,0.7445473670959473
-0.0998932868242263,1.360987424850464,-0.1027442961931228,-0.0263540055602788,0.2424804270267486,-0.2202830761671066,0.0,0.0,-0.9840500950813292,0.1333129405975341
-0.1010301560163497,1.3602145910263062,-0.1025148779153823,-0.0325508117675781,0.2311313301324844,-0.2269818782806396,0.0,0.0,-0.9358448386192322,0.3010338544845581
-0.1021684631705284,1.3593027591705322,-0.1022832989692688,-0.0387483350932598,0.2194353193044662,-0.2339206635951995,0.0,0.0,-0.99387127161026,-0.3287755250930786
-0.1033083945512771,1.3582526445388794,-0.1020497232675552,-0.0449466630816459,0.2073812484741211,-0.2410815209150314,0.0,0.0,-0.9819427132606506,0.136824369430542
-0.1044498458504676,1.357063889503479,-0.101814292371273,-0.0511459000408649,0.19495889544487,-0.248447299003601,0.0,0.0,-0.9747838377952576,-0.5205704569816589
-0.105641171336174,1.3557170629501345,-0.1076703816652298,-0.0583916679024696,0.1834325641393661,-0.2305267304182052,0.0,0.0,-0.9972442984580994,0.3920689821243286
-0.1068343147635459,1.354231595993042,-0.1074324622750282,-0.0645903795957565,0.1715197712182998,-0.2382558137178421,0.0,0.0,-0.9786837100982666,0.5997937917709351
-0.1079903617501258,1.3526180982589722,-0.1023105382919311,-0.0702285021543502,0.1582128852605819,-0.2661381363868713,0.0,0.0,-0.8657612800598145,0.3030538558959961
-0.1091484054923057,1.3508669137954712,-0.1020693778991699,-0.0764315277338028,0.1445042639970779,-0.2741725742816925,0.0,0.0,-0.5751794576644897,-0.3111480474472046
-0.1103082671761512,1.348978042602539,-0.1018271073698997,-0.0826358646154403,0.1303872019052505,-0.2823411822319031,0.0,0.0,-0.8011627197265625,-0.8292010426521301
-0.1115258187055587,1.3469407558441162,-0.1085672602057457,-0.0894454047083854,0.1172718927264213,-0.262306272983551,0.0,0.0,-0.8365429043769836,-0.395675778388977
-0.1127453818917274,1.3447659015655518,-0.1083237901329994,-0.095649279654026,0.1037363335490226,-0.2707112431526184,0.0,0.0,-0.9689577221870422,-0.1115643978118896
-0.1139669418334961,1.3424535989761353,-0.1080795302987098,-0.1018545478582382,0.0897753909230232,-0.2792190015316009,0.0,0.0,-0.9325392246246338,-0.8086574673652649
-0.1152387633919715,1.3399970531463623,-0.1138768345117569,-0.1084336414933204,0.0766021460294723,-0.263465017080307,0.0,0.0,-0.9883400201797484,-0.8032246828079224
-0.1165609359741211,1.337391376495361,-0.1197120323777198,-0.1152249053120613,0.0642255544662475,-0.2475319802761078,0.0,0.0,-0.9985685348510742,-0.800266683101654
-0.117949292063713,1.334647297859192,-0.1274959594011306,-0.1215138286352157,0.0530172549188137,-0.2241661548614502,0.0,0.0,-0.999437153339386,-0.5817755460739136
-0.1193834319710731,1.3317660093307495,-0.1327381432056427,-0.1277137994766235,0.0424643047153949,-0.2110590636730194,0.0,0.0,-0.9979929327964784,-0.4900431632995605
-0.1208197623491287,1.3287467956542969,-0.1324924677610397,-0.1339152455329895,0.0314660631120204,-0.2199652194976806,0.0,0.0,-0.995507538318634,-0.4476099014282226
-0.122258186340332,1.325589656829834,-0.1322464644908905,-0.1401178687810897,0.0200195051729679,-0.2289309799671173,0.0,0.0,-0.9893328547477722,-0.2055664658546447
-0.1236986145377159,1.32229483127594,-0.1320001929998397,-0.1463217735290527,0.0081219403073191,-0.2379511147737503,0.0,0.0,-0.9993108510971068,-0.8924716711044312
-0.1252020895481109,1.318872332572937,-0.1393751949071884,-0.1520941406488418,-0.0027041751891374,-0.2165225446224212,0.0,0.0,-0.9988324642181396,0.0016859769821166
-0.1267077475786209,1.315312147140503,-0.1391286998987198,-0.1582977473735809,-0.0139860836789011,-0.2256382256746292,0.0,0.0,-0.997290313243866,-0.5467953681945801
-0.1282675713300705,1.3116201162338257,-0.1454280316829681,-0.1642195880413055,-0.0244135484099388,-0.2085494548082351,0.0,0.0,-0.9958239197731018,-0.6863359212875366
-0.129876047372818,1.3077956438064575,-0.1510038673877716,-0.170174703001976,-0.0341327860951423,-0.1943847835063934,0.0,0.0,-0.9898895025253296,0.1077829599380493
-0.1314866989850998,1.3038331270217896,-0.150757223367691,-0.1763776242733001,-0.0443134978413581,-0.2036142349243164,0.0,0.0,-0.999304175376892,-0.0654572248458862
-0.1330994665622711,1.2997329235076904,-0.1505106538534164,-0.1825817227363586,-0.0549572333693504,-0.2128746956586837,0.0,0.0,-0.9977728128433228,-0.4425699710845947
-0.1347144097089767,1.2954953908920288,-0.1502642482519149,-0.188787043094635,-0.0660654082894325,-0.2221631705760955,0.0,0.0,-0.9982807636260986,-0.5043247938156128
-0.1363790482282638,1.291125774383545,-0.1559807360172271,-0.1947081834077835,-0.0764406323432922,-0.2075045555830001,0.0,0.0,-0.9992191791534424,-0.3209940791130066
-0.1380458772182464,1.2866185903549194,-0.1557346284389495,-0.2009138613939285,-0.0872827321290969,-0.2168419659137725,0.0,0.0,-0.9955461621284484,-0.5091452598571777
-0.1397478133440017,1.2819815874099731,-0.1596219688653946,-0.206745371222496,-0.0977557748556137,-0.209460973739624,0.0,0.0,-0.997596800327301,-0.4224183559417724
-0.1414518356323242,1.277207374572754,-0.1593764275312423,-0.212952047586441,-0.1086976826190948,-0.218838021159172,0.0,0.0,-0.9991153478622437,-0.5694408416748047
-0.1431916207075119,1.272305965423584,-0.1633667051792144,-0.218654066324234,-0.1192452982068061,-0.2109523117542266,0.0,0.0,-0.9869132041931152,-0.5566240549087524
-0.1449786126613617,1.2672799825668335,-0.1687820255756378,-0.2242023348808288,-0.129108190536499,-0.1972579509019851,0.0,0.0,-0.993026852607727,-0.4607760906219482
-0.1467677056789398,1.26211678981781,-0.1685374081134796,-0.2304092049598693,-0.1394422203302383,-0.206680342555046,0.0,0.0,-0.9893186688423156,-0.8825199604034424
-0.1486193686723709,1.256829023361206,-0.1758719980716705,-0.2359046638011932,-0.1487075090408325,-0.1853058338165283,0.0,0.0,-0.97730952501297,-0.5786170959472656
-0.1505184173583984,1.2514201402664185,-0.181321918964386,-0.2412822842597961,-0.1572708487510681,-0.171266883611679,0.0,0.0,-0.9836777448654176,-0.3946086168289184
-0.1524194777011871,1.2458736896514893,-0.1810783147811889,-0.247488260269165,-0.1663068383932113,-0.1807202398777008,0.0,0.0,-0.9764612317085266,-0.4362556934356689
-0.1543228179216385,1.240190029144287,-0.1808354258537292,-0.2536952793598175,-0.1758158802986145,-0.1901807785034179,0.0,0.0,-0.8640705943107605,-0.8750361204147339
-0.156309887766838,1.2343926429748535,-0.1908702850341797,-0.2586187422275543,-0.1836869418621063,-0.1574211567640304,0.0,0.0,-0.9160303473472596,-0.2045443654060363
-0.1582992523908615,1.2284576892852783,-0.1906282603740692,-0.264824777841568,-0.1920315623283386,-0.1668927371501922,0.0,0.0,-0.9555602073669434,-0.5697711110115051
-0.1603364944458007,1.2223985195159912,-0.1961447447538375,-0.2703003883361816,-0.199665367603302,-0.1526758372783661,0.0,0.0,-0.9577213525772096,-0.7334070801734924
-0.1624304801225662,1.2162171602249146,-0.2027534991502761,-0.2756441533565521,-0.2063639611005783,-0.1339719444513321,0.0,0.0,-0.6848062872886658,0.3684570789337158
-0.1645267456769943,1.2098981142044067,-0.2025133371353149,-0.2818496525287628,-0.2135364860296249,-0.1434504985809326,0.0,0.0,-0.9041506052017212,-0.0421991348266601
-0.1666251122951507,1.203442096710205,-0.2022742480039596,-0.288055956363678,-0.2211829423904419,-0.1529288440942764,0.0,0.0,-0.741102933883667,-0.0082475543022155
-0.1687256842851638,1.1968486309051514,-0.2020363509654998,-0.2942631542682647,-0.2293032258749008,-0.1624057292938232,0.0,0.0,-0.7930083274841309,-0.0427648425102233
-0.1708284318447113,1.1901183128356934,-0.2017997801303863,-0.3004712462425232,-0.2378972321748733,-0.1718800216913223,0.0,0.0,-0.8188583254814148,0.1469615697860717
