x_pos,y_pos,x_vel,y_vel,angle,ang_vel,leg_1,leg_2,main_booster,lat_booster
-0.0016491890419274,1.403275728225708,-0.1670543253421783,-0.3397479057312011,0.0019076555036008,0.0376412980258464,0.0,0.0,0.4398497205684084,0.9182842424870298
-0.0033016204833984,1.3959046602249146,-0.1654023379087448,-0.3275977969169616,0.0020722665358334,0.0032929456792771,0.0,0.0,-0.376418290976624,-0.6195922007287546
-0.0051171304658055,1.3881797790527344,-0.1827489584684372,-0.3433299958705902,0.0032572627533227,0.0237022023648023,0.0,0.0,0.2834641329701099,0.9956451117302552
-0.0070882798172533,1.3806850910186768,-0.1963357329368591,-0.333098828792572,0.0024896645918488,-0.0153533546254038,0.0,0.0,-0.3571615651685154,0.6559897095585109
-0.0091206552460789,1.372843861579895,-0.200952261686325,-0.3484966158866882,0.0002289824915351,-0.0452176667749881,0.0,0.0,-0.3705690126289882,0.623265291276993
-0.0112158777192235,1.3646531105041504,-0.2058051079511642,-0.3640307486057281,-0.003456839825958,-0.0737231075763702,0.0,0.0,-0.3738574008473059,-0.945558795385162
-0.0135107990354299,1.356114387512207,-0.2278185784816742,-0.3795066177845001,-0.0051042353734374,-0.0329510979354381,0.0,0.0,0.37052027036547,-0.9336315437046993
-0.0158557891845703,1.348034143447876,-0.2349415719509124,-0.3591209948062897,-0.004667563829571,0.0087342094630002,0.0,0.0,-0.7958355149690255,0.8748338527861733
-0.018253993242979,1.3396141529083252,-0.2386534959077835,-0.3742286562919616,-0.0058185351081192,-0.0230215527117252,0.0,0.0,-0.692991500242222,-0.7937575631057358
-0.0208344459533691,1.3308508396148682,-0.2585974931716919,-0.389472097158432,-0.0052749393507838,0.0108728483319282,0.0,0.0,-0.3525301101572702,0.7773739707193534
-0.0234637260437011,1.3217390775680542,-0.2618200182914734,-0.4049755036830902,-0.0063668680377304,-0.021840613335371,0.0,0.0,-0.1299483215759413,-0.8788288098631648
-0.0262718200683593,1.3122773170471191,-0.2813915908336639,-0.420521080493927,-0.0057863537222146,0.0116112288087606,0.0,0.0,0.4876551768141832,-0.6294112303299877
-0.0291142463684082,1.3034141063690186,-0.2865327894687652,-0.393910676240921,-0.0035331409890204,0.0450682118535041,0.0,0.0,0.5191524950058855,0.9505468797249074
-0.031924057751894,1.2946823835372925,-0.281583160161972,-0.3880778849124908,-0.0029337157029658,0.0119896037504076,0.0,0.0,-0.2367565525430468,0.7884155705926663
-0.0347710624337196,1.2856098413467407,-0.283522367477417,-0.4032317698001861,-0.0041073183529078,-0.0234740171581506,0.0,0.0,-0.5468630119512494,0.8794833546093825
-0.0376488678157329,1.2761776447296145,-0.2846747040748596,-0.4192153513431549,-0.0071798283606767,-0.0614560469985008,0.0,0.0,-0.6810315379051062,0.7728101072396126
-0.04056291654706,1.26640522480011,-0.286570131778717,-0.4343579411506653,-0.011965817771852,-0.0957283377647399,0.0,0.0,0.1384508327988576,0.6655004662017896
-0.0434206016361713,1.2566630840301514,-0.2799237966537475,-0.4330369532108307,-0.0177476778626441,-0.1156474351882934,0.0,0.0,0.316971449230478,-0.6976100997776027
-0.0463439002633094,1.2475382089614868,-0.2882110476493835,-0.4056133031845093,-0.0218212269246578,-0.0814783424139022,0.0,0.0,0.5750065679645424,-0.903335253701583
-0.0495200157165527,1.2388781309127808,-0.3153699040412903,-0.3849214017391205,-0.0240310691297054,-0.04420056194067,0.0,0.0,-0.890677243834527,0.7871431153903644
-0.0527256019413471,1.229872465133667,-0.3166145086288452,-0.400317519903183,-0.0279397629201412,-0.0781807899475097,0.0,0.0,0.4012414134985682,-0.8246959498675601
-0.0560781471431255,1.221078634262085,-0.3331789076328277,-0.390880286693573,-0.029992863535881,-0.0410655364394187,0.0,0.0,-0.5730769123007085,0.9735678415608248
-0.0594386085867881,1.211930513381958,-0.3318144679069519,-0.4066768586635589,-0.0341922678053379,-0.0839956849813461,0.0,0.0,-0.6767295937503854,0.6411040792865167
-0.0628424659371376,1.2024238109588623,-0.3349120318889618,-0.4226521849632263,-0.0396010316908359,-0.1081846952438354,0.0,0.0,0.6118379974786718,0.6722400985807088
-0.0664167404174804,1.1935176849365234,-0.3505080938339233,-0.3960283696651459,-0.0464554466307163,-0.1371007412672042,0.0,0.0,-0.9295596851296885,-0.9617840771294244
-0.0701816529035568,1.184253215789795,-0.3721926808357239,-0.4118923842906952,-0.0507094003260135,-0.0850786715745925,0.0,0.0,-0.7697271358057864,-0.965401550205954
-0.0741159468889236,1.174651861190796,-0.391286164522171,-0.4267991185188293,-0.0528273694217205,-0.0423592440783977,0.0,0.0,-0.4461382474036415,0.9085473421435204
-0.0780852288007736,1.164706826210022,-0.3935884833335876,-0.4421238601207733,-0.0561295747756958,-0.0660442858934402,0.0,0.0,0.5656840052184706,0.808843646392411
-0.0821758285164833,1.1555254459381104,-0.4041019082069397,-0.4082568287849426,-0.0610304959118366,-0.0980186015367508,0.0,0.0,0.0701831707993383,-0.6869468817061185
-0.0864040404558181,1.1464720964431765,-0.419471800327301,-0.4025119245052337,-0.0643437951803207,-0.0662661865353584,0.0,0.0,0.2723794050096646,-0.798857803997586
-0.0907214134931564,1.138059377670288,-0.4302528500556946,-0.3739583194255829,-0.0658086091279983,-0.0292962882667779,0.0,0.0,-0.0195097318147694,0.8007719896767183
-0.0950662642717361,1.129287838935852,-0.4318403601646423,-0.3899634480476379,-0.0684212073683738,-0.0522522144019603,0.0,0.0,0.3879588180837621,0.8739890474561967
-0.0994541198015213,1.1211847066879272,-0.4345538020133972,-0.3603430092334747,-0.0726103782653808,-0.08378317207098,0.0,0.0,0.3418025492179743,-0.7188059750129053
-0.1040126830339431,1.1131768226623535,-0.4532354474067688,-0.3560307919979095,-0.0752118453383445,-0.0520292706787586,0.0,0.0,0.0227731424020392,-0.9097107545546216
-0.1086766272783279,1.1054096221923828,-0.4658407568931579,-0.3452363312244415,-0.075755551457405,-0.0108744893223047,0.0,0.0,0.1856459494048739,0.8225854683508524
-0.11329136043787,1.098102569580078,-0.4595346450805664,-0.3248625099658966,-0.077675350010395,-0.0383962430059909,0.0,0.0,-0.6415416306750159,-0.9788730558105344
-0.1180563941597938,1.090450882911682,-0.4768733382225036,-0.3400540649890899,-0.0773109272122383,0.0072884797118604,0.0,0.0,-0.0038768184010848,0.8200787083112552
-0.1228191405534744,1.0824486017227173,-0.4751388132572174,-0.3557139337062835,-0.0784290060400962,-0.022361371666193,0.0,0.0,-0.848771844032874,-0.9467394075694956
-0.1277247369289398,1.0741174221038818,-0.4917248785495758,-0.370218813419342,-0.0772818550467491,0.0229430440813303,0.0,0.0,-0.0181937799681148,-0.7421764541244773
-0.1327474564313888,1.0654447078704834,-0.505102276802063,-0.385309487581253,-0.0744713619351387,0.0562098249793052,0.0,0.0,0.2152940029774495,-0.6898379197638671
-0.1379279196262359,1.0573017597198486,-0.5224176049232483,-0.3616978228092193,-0.0701503753662109,0.0864199474453926,0.0,0.0,0.2709548473358154,0.9989676475524902
-0.1429461538791656,1.049390435218811,-0.5044711232185364,-0.351493239402771,-0.0675319656729698,0.0523680932819843,0.0,0.0,0.4963613748550415,0.990849494934082
-0.1478199064731598,1.0415263175964355,-0.4883679449558258,-0.3494718968868255,-0.0665442496538162,0.0197545401751995,0.0,0.0,0.0672255754470825,0.9911463260650636
-0.1525656729936599,1.0338069200515747,-0.4738155007362366,-0.3431207239627838,-0.0673027858138084,-0.0151707585901021,0.0,0.0,-0.4875113368034363,0.9965044260025024
-0.1572857797145843,1.025719404220581,-0.4696258008480072,-0.3595525324344635,-0.0696579962968826,-0.0471043512225151,0.0,0.0,-0.2420150637626648,0.9614737033843994
-0.1619687974452972,1.0172648429870603,-0.4640993177890777,-0.3759584426879883,-0.0738198980689048,-0.0832379907369613,0.0,0.0,-0.4228429794311523,0.99576997756958
-0.1666069030761718,1.0084468126296997,-0.4576608538627624,-0.3922307193279266,-0.0799110829830169,-0.1218234673142433,0.0,0.0,-0.8654705882072449,0.9938106536865234
-0.1712191551923751,0.9992833733558656,-0.4537152349948883,-0.4076818823814392,-0.0873535722494125,-0.1488496363162994,0.0,0.0,-0.6932352781295776,0.92555832862854
-0.1758098602294922,0.989772617816925,-0.4503604471683502,-0.4232351183891296,-0.0959760248661041,-0.1724492013454437,0.0,0.0,-0.6827892065048218,0.9972115755081176
-0.180357739329338,0.9799002408981324,-0.4444212317466736,-0.4394724667072296,-0.106262482702732,-0.2057294100522995,0.0,0.0,-0.8409072160720825,0.9752298593521118
-0.1848407685756683,0.9696650505065918,-0.4357779622077942,-0.4558339416980743,-0.1187029853463172,-0.2488102465867996,0.0,0.0,-0.8271418213844299,0.9834532737731934
-0.189280703663826,0.9590772986412048,-0.4299638271331787,-0.471747487783432,-0.1326620727777481,-0.2791818976402282,0.0,0.0,-0.7327579855918884,0.9613815546035768
-0.1936567276716232,0.9481202960014344,-0.4215708673000335,-0.4884869754314422,-0.1486396938562393,-0.31955286860466,0.0,0.0,-0.764298141002655,0.9614242315292358
-0.1979780197143554,0.9368096590042114,-0.4144713282585144,-0.5045582056045532,-0.166293203830719,-0.3530702888965606,0.0,0.0,-0.6409280896186829,0.9925363063812256
-0.2022224366664886,0.9251262545585632,-0.4046106338500976,-0.5215968489646912,-0.1861769258975982,-0.397674411535263,0.0,0.0,-0.7059203386306763,0.7925770282745361
-0.2064321041107177,0.9130810499191284,-0.4001218378543854,-0.5380924940109253,-0.2071497291326522,-0.4194563925266266,0.0,0.0,-0.2770028710365295,0.943467140197754
-0.2105700969696045,0.9006747603416443,-0.3911344707012176,-0.5547277927398682,-0.2300590872764587,-0.4581871032714844,0.0,0.0,0.2012645006179809,0.9033756256103516
-0.2144238054752349,0.8885816931724548,-0.3613420724868774,-0.5414025783538818,-0.2544900476932525,-0.4886195659637451,0.0,0.0,-0.5684244632720947,-0.4268673062324524
-0.2182862758636474,0.8761469721794128,-0.3626132011413574,-0.5569413304328918,-0.2786718904972076,-0.4836369156837463,0.0,0.0,0.449177622795105,0.3818414211273193
-0.2220298796892166,0.864391565322876,-0.3508215546607971,-0.5271331667900085,-0.3029145896434784,-0.4848538339138031,0.0,0.0,0.5531201362609863,0.2701071500778198
-0.2256278544664383,0.8527708053588867,-0.336892306804657,-0.5214308500289917,-0.3266873657703399,-0.4754556715488434,0.0,0.0,0.121813416481018,0.5028605461120605
-0.2291077077388763,0.8415036797523499,-0.3243806660175323,-0.5062853693962097,-0.3513820469379425,-0.4938937723636627,0.0,0.0,0.8830740451812744,-0.3903610706329345
-0.2322524040937423,0.8306517004966736,-0.2919231057167053,-0.4880048632621765,-0.3751799762248993,-0.4759585261344909,0.0,0.0,0.8485491275787354,-0.7006165981292725
-0.2351682633161544,0.8204290866851807,-0.2708917260169983,-0.4599334895610809,-0.3972238302230835,-0.4408770501613617,0.0,0.0,0.7568624019622803,-0.4231017827987671
-0.2379079759120941,0.8104471564292908,-0.2537253201007843,-0.4494588077068329,-0.4189855754375458,-0.4352348446846008,0.0,0.0,0.7430117130279541,-0.8738128542900085
-0.2405833303928375,0.8011054396629333,-0.2491639405488968,-0.4207734763622284,-0.4389214515686035,-0.3987174034118652,0.0,0.0,0.8572871685028076,-0.8143803477287292
-0.2428742945194244,0.7927567362785339,-0.212711364030838,-0.3762902915477752,-0.456854373216629,-0.3586586117744446,0.0,0.0,0.777625560760498,-0.4563528299331665
-0.2449391782283783,0.7844266891479492,-0.1908351480960846,-0.3754512369632721,-0.4741378128528595,-0.3456687331199646,0.0,0.0,0.784960150718689,-0.9703447818756104
-0.2466085851192474,0.7770200967788696,-0.1535188108682632,-0.333853930234909,-0.4890849590301513,-0.2989431917667389,0.0,0.0,0.9227319955825806,-0.8481318354606628
-0.2481743395328521,0.7701228857040405,-0.1448501795530319,-0.3107585608959198,-0.5022409558296204,-0.2631198763847351,0.0,0.0,0.9901269674301147,-0.9485270380973816
-0.2495064735412597,0.7640945315361023,-0.1233740299940109,-0.2715700268745422,-0.5133569240570068,-0.2223197221755981,0.0,0.0,0.993036150932312,-0.5308626294136047
-0.2504591047763824,0.7587007880210876,-0.0867806002497673,-0.2429451048374176,-0.5229963064193726,-0.1927878111600875,0.0,0.0,0.940615177154541,-0.865152895450592
-0.2511016726493835,0.7544298768043518,-0.0573737137019634,-0.1924917697906494,-0.5308571457862854,-0.1572165489196777,0.0,0.0,0.8483086824417114,-0.9354639053344728
-0.2513874173164367,0.7506310343742371,-0.0237757638096809,-0.1707278788089752,-0.5363574624061584,-0.1100063472986221,0.0,0.0,0.7621097564697266,-0.6820751428604126
-0.2515262067317962,0.7470860481262207,-0.0104791680350899,-0.1589082181453704,-0.540265679359436,-0.0781646072864532,0.0,0.0,0.475438117980957,-0.9454367756843568
-0.2515076696872711,0.7435593008995056,0.0032648630440235,-0.1573042720556259,-0.5418895483016968,-0.0324772410094738,0.0,0.0,-0.3157246112823486,-0.9591901898384094
-0.2515437006950378,0.7397352457046509,-0.0042554540559649,-0.1697021424770355,-0.5411456823348999,0.01487756986171,0.0,0.0,0.6126580238342285,-0.9712565541267396
-0.2512338757514953,0.73662930727005,0.0283337570726871,-0.1369812935590744,-0.5380963683128357,0.0609861090779304,0.0,0.0,-0.4127418994903564,-0.95048588514328
-0.2509585916996002,0.7332308292388916,0.0231314487755298,-0.1493038535118103,-0.5330463647842407,0.1009995937347412,0.0,0.0,-0.5585262179374695,-0.928600549697876
-0.2507361769676208,0.729556143283844,0.0155596118420362,-0.1607214361429214,-0.5254092216491699,0.1527425944805145,0.0,0.0,-0.3922508955001831,-0.919487714767456
-0.2505742609500885,0.7255893349647522,0.0072089722380042,-0.1728619039058685,-0.515186607837677,0.2044523507356643,0.0,0.0,-0.3734422326087951,-0.9169411659240724
-0.2504490315914154,0.7213304042816162,0.0016649777535349,-0.1852437853813171,-0.5029104351997375,0.2455233633518219,0.0,0.0,-0.5284743309020996,-0.539446234703064
-0.2503480911254883,0.7167587876319885,-0.0022287997417151,-0.198729008436203,-0.4890746474266052,0.2767161726951599,0.0,0.0,-0.4559835195541382,-0.3607467412948608
-0.2502282261848449,0.7118393778800964,-0.0006321541732177,-0.2142296135425567,-0.4750102758407593,0.2812872529029846,0.0,0.0,-0.1941463351249694,-0.7458925247192383
-0.2501410841941833,0.7066168785095215,-0.0056559359654784,-0.2272742539644241,-0.4591163396835327,0.3178791999816894,0.0,0.0,-0.2999038100242615,0.0379236936569213
-0.2500351071357727,0.7010474801063538,-0.00408990168944,-0.24278025329113,-0.4429957866668701,0.322410523891449,0.0,0.0,-0.3065662384033203,-0.0845842361450195
-0.2499104440212249,0.6951311826705933,-0.0025511954445391,-0.258287250995636,-0.4266497492790222,0.3269213438034057,0.0,0.0,-0.3049928545951843,0.1955900192260742
-0.2497676312923431,0.6888684034347534,-0.0010486074024811,-0.2737952172756195,-0.4100791811943054,0.3314107954502105,0.0,0.0,-0.2417414784431457,0.6363034248352051
-0.2495501935482025,0.682221531867981,0.0076226470991969,-0.2914031445980072,-0.3949262797832489,0.3030585944652557,0.0,0.0,0.3110609054565429,0.4529215097427368
-0.2490931451320648,0.6755972504615784,0.0308043453842401,-0.2903552055358886,-0.3790394961833954,0.3177358508110046,0.0,0.0,-0.2229363918304443,0.5478212833404541
-0.2485791146755218,0.6686060428619385,0.0372576490044593,-0.3070290982723236,-0.3640450537204742,0.2998889684677124,0.0,0.0,0.176401138305664,0.5640969276428223
-0.2477919161319732,0.6619923710823059,0.065338633954525,-0.2906071543693542,-0.3499429523944855,0.282042920589447,0.0,0.0,-0.1210448741912841,0.005194067955017
-0.2469899207353592,0.6550316214561462,0.0665385127067565,-0.306111991405487,-0.335622489452362,0.2864085733890533,0.0,0.0,-0.253514289855957,-0.0330398082733154
-0.2461740523576736,0.6477238535881042,0.0676525980234146,-0.3216177225112915,-0.3210853338241577,0.2907433807849884,0.0,0.0,-0.462963342666626,-0.1597990989685058
-0.2453451603651046,0.6400691866874695,0.0686732903122901,-0.3371243178844452,-0.3063330948352813,0.2950448393821716,0.0,0.0,-0.6232439875602722,0.2597944736480713
-0.2445043623447418,0.6320679187774658,0.0695931985974311,-0.3526317775249481,-0.2913675904273987,0.2993101179599762,0.0,0.0,-0.7822594046592712,0.8118573427200317
-0.2435940206050872,0.6236929893493652,0.077826902270317,-0.3696371018886566,-0.2777769267559051,0.2718132734298706,0.0,0.0,-0.7493290901184082,0.7217801809310913
-0.2426293790340423,0.6149585843086243,0.0841166228055954,-0.3859007060527801,-0.2651321589946747,0.2528952062129974,0.0,0.0,-0.7425199151039124,0.5410197973251343
-0.2416090071201324,0.6058600544929504,0.0906788930296897,-0.4023620784282684,-0.2535316944122314,0.2320091277360916,0.0,0.0,-0.0640234947204589,0.083699345588684
-0.2405817955732345,0.5964140295982361,0.0911299660801887,-0.4178642034530639,-0.2417267560958862,0.2360988408327102,0.0,0.0,-0.8059943318367004,0.4483404159545898
-0.2395490109920501,0.5866206288337708,0.0914468020200729,-0.433366984128952,-0.2297200858592987,0.2401334792375564,0.0,0.0,-0.5956099033355713,0.1958192586898803
-0.2385122328996658,0.5764799118041992,0.0916235819458961,-0.448870450258255,-0.21751469373703,0.2441080063581466,0.0,0.0,-0.5377652049064636,0.7299160957336426
-0.2374274283647537,0.5659772753715515,0.0973733514547348,-0.465183824300766,-0.2062980681657791,0.2243326902389526,0.0,0.0,-0.2374774813652038,0.7423536777496338
-0.2362988889217376,0.5551120042800903,0.1026457771658897,-0.4815143644809723,-0.1960104256868362,0.2057528048753738,0.0,0.0,-0.6276942491531372,0.8911757469177246
-0.2350891083478927,0.5438795685768127,0.1126492768526077,-0.4981370270252228,-0.1876359730958938,0.1674889624118805,0.0,0.0,-0.0193189978599548,-0.1457827687263488
-0.2338817119598388,0.5322989821434021,0.1122161000967025,-0.5136353969573975,-0.1790776848793029,0.1711656749248504,0.0,0.0,-0.6186094284057617,0.2828854322433471
-0.2326783686876297,0.5203703045845032,0.1116184815764427,-0.5291342735290527,-0.1703401654958725,0.174750342965126,0.0,0.0,0.4706416130065918,0.885163426399231
-0.2313165664672851,0.5091099739074707,0.1290695816278457,-0.4996624886989593,-0.1632245033979416,0.1423135995864868,0.0,0.0,-0.6130253076553345,0.2167952060699463
-0.2299623936414718,0.4975012838840484,0.1281326860189438,-0.5151598453521729,-0.1559399664402008,0.1456906944513321,0.0,0.0,0.4792850017547607,0.2594783306121826
-0.2284695208072662,0.4862975180149078,0.1415148675441742,-0.4971536695957184,-0.1481765061616897,0.1552689969539642,0.0,0.0,-0.8591244220733643,0.4565107822418213
-0.2269878834486007,0.4747455716133117,0.1402258723974228,-0.5126521587371826,-0.140256330370903,0.1584036201238632,0.0,0.0,-0.3337281942367553,0.5248831510543823
-0.2254736423492431,0.4628403484821319,0.144481748342514,-0.5284824967384338,-0.1333387494087219,0.1383515298366546,0.0,0.0,0.1961666345596313,0.4933664798736572
-0.223872423171997,0.4510688185691833,0.1527572274208068,-0.5225399136543274,-0.1260086148977279,0.1466027051210403,0.0,0.0,-0.0288840532302856,0.4413273334503174
-0.2222880870103836,0.4389491081237793,0.150924727320671,-0.5380384922027588,-0.1185434088110923,0.1493041813373565,0.0,0.0,0.3112552165985107,0.2261044979095459
-0.2207754105329513,0.4271079003810882,0.1440991461277008,-0.5257261395454407,-0.1114225015044212,0.1424181163311004,0.0,0.0,0.6504454612731934,0.2967736721038818
-0.2192422896623611,0.4157615900039673,0.1461243331432342,-0.5037624835968018,-0.1042828634381294,0.142792597413063,0.0,0.0,-0.0824050903320312,0.5637032985687256
-0.2176856994628906,0.4040586948394775,0.1495397984981537,-0.5197124481201172,-0.0982071533799171,0.1215141415596008,0.0,0.0,0.0151712894439697,0.081138014793396
-0.2160522043704986,0.3923256397247314,0.1567495614290237,-0.5210506916046143,-0.0916607230901718,0.1309288144111633,0.0,0.0,0.2123944759368896,0.1848169565200805
-0.2143280506134033,0.3809841275215149,0.1653799712657928,-0.5036537051200867,-0.084693893790245,0.1393365859985351,0.0,0.0,-0.4680627584457397,0.7536497116088867
-0.2125701457262039,0.3692936897277832,0.1702527403831482,-0.5192717909812927,-0.0792096853256225,0.1096843481063842,0.0,0.0,0.4281294345855713,0.0648772716522216
