x_pos,y_pos,x_vel,y_vel,angle,ang_vel,leg_1,leg_2,main_booster,lat_booster
-0.0015402793651446,1.4033459424972534,-0.1564003527164459,-0.3366294801235199,0.0021317799109965,0.0420785322785377,0.0,0.0,-0.5108654772015178,0.9655358086322804
-0.0030166625510901,1.3955119848251345,-0.1479961276054382,-0.3481751084327698,0.0024858496617525,0.0070827170275151,0.0,0.0,0.7274199279199587,-0.8491450685489347
-0.0044264793395996,1.3880268335342407,-0.1436984688043594,-0.3326801359653473,0.0051683271303772,0.0536545887589454,0.0,0.0,-0.6911854580722876,-0.6704809781211036
-0.0059213638305664,1.3802605867385864,-0.1541585177183151,-0.3451929688453674,0.0097876042127609,0.0923940688371658,0.0,0.0,0.979131848566386,0.9323995860292084
-0.0072040557861328,1.373394250869751,-0.1317737996578216,-0.3051965534687042,0.0132587058469653,0.0694287940859794,0.0,0.0,-0.4293338482152422,0.7300287309250295
-0.0084413532167673,1.3662497997283936,-0.1258096098899841,-0.317554771900177,0.0153101263567805,0.0410321727395057,0.0,0.0,-0.3484486883811792,0.7512848560524099
-0.0096485139802098,1.35882830619812,-0.1217066422104835,-0.3298569321632385,0.0162845682352781,0.0194905512034893,0.0,0.0,0.2850675368598758,-0.7730867493684924
-0.0108219143003225,1.3518871068954468,-0.1203998923301696,-0.30853471159935,0.0193202458322048,0.0607190020382404,0.0,0.0,0.8205966342808344,-0.7263928643329054
-0.0121147157624363,1.346056342124939,-0.1341228634119033,-0.2592156827449798,0.024114541709423,0.0958944410085678,0.0,0.0,-0.3996972092353559,-0.7753140308376343
-0.013500022701919,1.3399500846862793,-0.1452996730804443,-0.2715137302875519,0.0308035388588905,0.1337924301624298,0.0,0.0,0.5262147902326697,-0.9362153142231424
-0.0149187091737985,1.3343911170959473,-0.1509875655174255,-0.2472758293151855,0.0398179441690444,0.1803049743175506,0.0,0.0,-0.2265607355303494,0.6903938329261194
-0.016310978680849,1.328556776046753,-0.1471519619226455,-0.2595297694206238,0.0476609505712986,0.1568746864795684,0.0,0.0,0.9321506860721368,-0.8185983627023607
-0.0176761634647846,1.323682427406311,-0.1468221843242645,-0.216992899775505,0.0578572116792202,0.2039439678192138,0.0,0.0,0.1608297615997918,0.821597882221428
-0.0189719200134277,1.318907380104065,-0.1386248469352722,-0.2125964909791946,0.0668253228068351,0.1793785691261291,0.0,0.0,-0.9146839920491598,-0.9674067299427976
-0.0203643795102834,1.3138597011566162,-0.1501501053571701,-0.2248653471469879,0.0776249766349792,0.2160127609968185,0.0,0.0,0.6884365980118716,0.9541142469821112
-0.0216188430786132,1.3090015649795532,-0.1349612027406692,-0.216431051492691,0.087074838578701,0.1890141069889068,0.0,0.0,0.4074934586342871,0.9592538840690712
-0.0227678306400775,1.304993987083435,-0.1229792386293411,-0.1786034852266311,0.0950923487544059,0.1603649854660034,0.0,0.0,-0.5151093406273786,-0.8244155164355675
-0.0240071304142475,1.3006951808929443,-0.1336282789707183,-0.1917036473751068,0.1047288179397583,0.1927466243505478,0.0,0.0,0.3561561913113462,-0.6172100433740637
-0.0253193862736225,1.297114610671997,-0.1426912248134613,-0.1599730402231216,0.1161301881074905,0.2280478775501251,0.0,0.0,-0.3277767731976915,-0.814832184129286
-0.0267475135624408,1.2932450771331787,-0.1564675122499466,-0.1731009185314178,0.1297366172075271,0.2721530497074127,0.0,0.0,-0.8783658948860997,0.7816061750519949
-0.0281462669372558,1.2891199588775637,-0.151981309056282,-0.1844362467527389,0.1418145895004272,0.2415808141231537,0.0,0.0,-0.9413832945446072,-0.6762501855793217
-0.0296415332704782,1.2847044467926023,-0.1633107960224151,-0.1976226866245269,0.1555849909782409,0.2754327654838562,0.0,0.0,-0.6930354331254509,-0.7173763952395682
-0.0312267299741506,1.280002236366272,-0.1737540662288665,-0.2106463611125946,0.1708454638719558,0.305236667394638,0.0,0.0,-0.5275541204985783,0.7965146083086645
-0.0327884666621685,1.2750343084335327,-0.1699723452329635,-0.2224424183368683,0.1846954971551895,0.2770253717899322,0.0,0.0,0.1821127462651064,0.6457157423141681
-0.0345441810786724,1.2704545259475708,-0.1882326602935791,-0.2051780223846435,0.197449579834938,0.2551045417785644,0.0,0.0,-0.9639087939879896,-0.6362386616592415
-0.0364066138863563,0.0,-0.2008295059204101,-0.2193985432386398,0.2121555209159851,0.294118583202362,0.0,0.0,-0.8951049238116127,-0.6811992824423342
-0.038370419293642,1.260385274887085,-0.2126234769821167,-0.2325590550899505,0.2285869866609573,0.3286293447017669,0.0,0.0,0.7703705501746094,0.6014140009761191
-0.040684700012207,1.2561962604522705,-0.2464149743318557,-0.1885809600353241,0.2437827736139297,0.303916186094284,0.0,0.0,-0.938910692360156,-0.6642194400188561
-0.0431117042899131,1.2517154216766355,-0.2595630288124084,-0.2020396143198013,0.2609715163707733,0.3437749743461609,0.0,0.0,0.0349094522843287,0.6474593588728553
-0.0456324592232704,1.2474151849746704,-0.2679320275783539,-0.1940292418003082,0.2772020399570465,0.3246104419231415,0.0,0.0,0.8059001589317987,-0.6092734944748812
-0.0484837517142295,1.2441725730895996,-0.3025087118148803,-0.1475159972906112,0.29508176445961,0.3575951755046844,0.0,0.0,-0.833789159643388,-0.6282982207802563
-0.0514392852783203,1.2406295537948608,-0.3145855367183685,-0.1614504754543304,0.3147706389427185,0.3937768638134002,0.0,0.0,0.7283794502548899,0.9158452112981064
-0.0547313690185546,1.238006830215454,-0.3465250134468078,-0.1204215362668037,0.332800954580307,0.3606063425540924,0.0,0.0,0.562363505701273,-0.7548325238085127
-0.0583047866821289,1.235527276992798,-0.3762666881084442,-0.1146898195147514,0.3526273667812347,0.3965280055999756,0.0,0.0,-0.7200301209702886,-0.8984392000435111
-0.0619963631033897,1.2327425479888916,-0.3899713158607483,-0.1290305405855178,0.3746035993099212,0.4395249485969543,0.0,0.0,0.1764527300844345,0.7547895366426423
-0.0658711418509483,1.2304844856262207,-0.4070090651512146,-0.1056205704808235,0.395388662815094,0.4157008230686188,0.0,0.0,0.3608499145755426,0.8046314567213741
-0.06990747153759,1.2284923791885376,-0.4217571318149566,-0.0937035977840423,0.4148437976837158,0.389103502035141,0.0,0.0,-0.0861300868230827,0.9472286076097453
-0.0739277824759483,1.226282238960266,-0.4183858335018158,-0.1031350344419479,0.4325537085533142,0.354198157787323,0.0,0.0,-0.7449870285106421,0.8423479226222691
-0.077949047088623,1.223846197128296,-0.4171633720397949,-0.1129832193255424,0.448963463306427,0.3281946778297424,0.0,0.0,-0.9102533974866354,0.6376591052826024
-0.0819778442382812,1.2211716175079346,-0.4168558716773987,-0.123440533876419,0.4643270969390869,0.3072735369205475,0.0,0.0,0.1503157648411182,0.7086248501389572
-0.0863315612077713,1.2189362049102783,-0.4481330513954162,-0.1036802604794502,0.4784635007381439,0.2827286720275879,0.0,0.0,-0.9933652877807616,0.9819085597991944
-0.0906571373343467,1.216488242149353,-0.4433139264583587,-0.1125622764229774,0.4904618263244629,0.2399657517671585,0.0,0.0,-0.9833073616027832,0.9823479652404784
-0.0949551612138748,1.213818907737732,-0.4386805593967438,-0.121827594935894,0.5004149675369263,0.1990616768598556,0.0,0.0,-0.9612549543380736,0.9442172050476074
-0.0992319136857986,1.2109344005584717,-0.4347540736198425,-0.1308024376630783,0.5083874464035034,0.15944904088974,0.0,0.0,-0.9698381423950196,0.9919252395629884
-0.1034965515136718,1.2078168392181396,-0.4320876598358154,-0.1406701207160949,0.5147565007209778,0.1273816078901291,0.0,0.0,-0.9928694367408752,0.9703617095947266
-0.1077417358756065,1.2044748067855835,-0.4284872114658355,-0.1500380784273147,0.5192601084709167,0.0900718420743942,0.0,0.0,-0.9742535352706908,0.9934206008911132
-0.111966036260128,1.2009153366088867,-0.4246380925178528,-0.1590405851602554,0.5217796564102173,0.0503906533122062,0.0,0.0,-0.9620205163955688,0.950215458869934
-0.1161966323852539,1.1971335411071775,-0.4240995943546295,-0.1684834510087967,0.5229653120040894,0.02371321991086,0.0,0.0,-0.9822685718536376,0.9828165769577026
-0.1204337105154991,1.1931275129318235,-0.4235819876194,-0.1780015379190445,0.5228278636932373,-0.0027490286156535,0.0,0.0,-0.9714199900627136,0.9933335781097412
-0.1246603950858116,1.1888985633850098,-0.4210341870784759,-0.1873289495706558,0.5209726095199585,-0.0371048152446746,0.0,0.0,-0.9786524176597596,0.996849536895752
-0.1288589537143707,1.184464931488037,-0.4161905348300934,-0.1956559270620346,0.5168057084083557,-0.0833376497030258,0.0,0.0,-0.9136517643928528,0.8755600452423096
-0.1330614984035492,1.179805874824524,-0.4153527617454529,-0.2052263617515564,0.5112501382827759,-0.1111112460494041,0.0,0.0,-0.990788757801056,0.9879190921783448
-0.1372385919094085,1.174932837486267,-0.4108714461326599,-0.2140447199344635,0.503524661064148,-0.154510036110878,0.0,0.0,-0.985781729221344,0.9397307634353638
-0.1414100676774978,1.1698449850082395,-0.4087430834770202,-0.2230773121118545,0.4940736293792724,-0.1890205293893814,0.0,0.0,-0.9783966541290284,0.9666244983673096
-0.1455538719892501,1.1645451784133911,-0.4038955569267273,-0.2318238317966461,0.4823616147041321,-0.2342400550842285,0.0,0.0,-0.938177764415741,0.886329174041748
-0.1497013121843338,1.159007549285889,-0.403027594089508,-0.2420840859413147,0.469353437423706,-0.2601632475852966,0.0,0.0,-0.9912290573120116,0.7562024593353271
-0.1538466513156891,1.1532478332519531,-0.4013040959835052,-0.2515862584114074,0.4547583162784576,-0.2919028997421264,0.0,0.0,-0.9125001430511476,0.6027014255523682
-0.1579975187778473,1.1472543478012085,-0.4005759358406067,-0.261733740568161,0.4388570487499237,-0.3180245459079742,0.0,0.0,-0.8231604099273682,0.8194129467010498
-0.1621429473161697,1.1410404443740845,-0.398337721824646,-0.2712044715881347,0.4212599992752075,-0.3519417345523834,0.0,0.0,-0.898891031742096,0.2781583070755005
-0.1663456857204437,1.134553074836731,-0.4041453897953033,-0.2836131155490875,0.4038866460323334,-0.3474669754505157,0.0,0.0,-0.8534563779830933,0.1580891609191894
-0.1706055700778961,1.1277921199798584,-0.409949392080307,-0.2960205972194671,0.3867248594760895,-0.3432362079620361,0.0,0.0,-0.8107080459594727,0.3197764158248901
-0.1749226599931717,1.1207571029663086,-0.4157483577728271,-0.3084270358085632,0.3697616755962372,-0.3392634987831116,0.0,0.0,-0.6012532711029053,0.3063883781433105
-0.1792969703674316,1.1134480237960815,-0.4215408861637115,-0.3208324015140533,0.3529835641384125,-0.3355624079704284,0.0,0.0,-0.7540474534034729,0.6952537298202515
-0.1836755722761154,1.1058954000473022,-0.4206122756004333,-0.3315389454364776,0.3348929286003113,-0.3618128597736358,0.0,0.0,-0.6434581875801086,-0.0863105654716491
-0.1881115883588791,1.098069190979004,-0.4263857901096344,-0.3439463973045349,0.3169584274291992,-0.3586907982826233,0.0,0.0,-0.4976097345352173,0.40742027759552
-0.1926048249006271,1.0899691581726074,-0.4321487545967102,-0.3563529849052429,0.2991646230220794,-0.3558762073516845,0.0,0.0,-0.3921995759010315,0.104512333869934
-0.1971553862094879,1.0815951824188232,-0.4378996789455414,-0.3687587380409241,0.2814956903457641,-0.3533788919448852,0.0,0.0,-0.3525846004486084,0.3582844734191894
-0.2017630040645599,1.0729467868804932,-0.4436369836330414,-0.3811637163162231,0.2639353275299072,-0.3512073457241058,0.0,0.0,-0.3135761618614197,0.2131109237670898
-0.2064278125762939,1.0640244483947754,-0.4493589401245117,-0.3935679793357849,0.2464669048786163,-0.3493684530258178,0.0,0.0,-0.0368933677673339,0.5887848138809204
-0.2111112624406814,1.054839849472046,-0.4502364993095398,-0.4052796959877014,0.2280722856521606,-0.3678922951221466,0.0,0.0,0.0553077459335327,0.8495893478393555
-0.215951919555664,1.0460163354873655,-0.4642307758331299,-0.3892088830471039,0.2080103158950805,-0.4012394547462463,0.0,0.0,-0.293452501296997,0.6550476551055908
-0.2207967340946197,1.036937952041626,-0.4632185399532318,-0.4006247222423553,0.1866039335727691,-0.4281279444694519,0.0,0.0,-0.3060850501060486,0.8102371692657471
-0.2256503105163574,1.0276106595993042,-0.46275195479393,-0.4118615686893463,0.1639375835657119,-0.4533274173736572,0.0,0.0,-0.3023767471313476,0.5974481105804443
-0.2305086106061935,1.0180249214172363,-0.4617961347103119,-0.4235570132732391,0.1399361342191696,-0.480029433965683,0.0,0.0,-0.5259739756584167,0.8576998710632324
-0.2353596240282058,1.0081757307052612,-0.4593564867973327,-0.4355291724205017,0.1143103763461113,-0.5125154256820679,0.0,0.0,-0.751785397529602,0.4232199192047119
-0.2402671873569488,0.998056709766388,-0.4649111330509186,-0.4479608833789825,0.0886591374874115,-0.5130249261856079,0.0,0.0,-0.7303292751312256,0.5797638893127441
-0.2451874315738678,0.9876682162284852,-0.4649668633937835,-0.4603267908096313,0.0618734918534755,-0.5357133150100708,0.0,0.0,-0.8358173370361328,0.8259541988372803
-0.2500995993614197,0.9770247340202332,-0.4624135494232178,-0.4720992147922516,0.0334076955914497,-0.5693160891532898,0.0,0.0,-0.9118329286575316,0.5135769844055176
-0.2550213932991028,0.9661215543746948,-0.4621017575263977,-0.4841877520084381,0.0037118149921298,-0.593917965888977,0.0,0.0,-0.9531511068344116,0.958609104156494
-0.259936511516571,0.9549621343612672,-0.459770143032074,-0.4961915910243988,-0.0276218634098768,-0.6266739964485168,0.0,0.0,-0.9190946221351624,0.8899374008178711
-0.2648509442806244,0.9435266256332396,-0.4582198560237884,-0.5091872215270996,-0.0604466088116169,-0.6564954519271851,0.0,0.0,-0.9331862330436708,0.8927433490753174
-0.2697435021400451,0.9318289160728456,-0.4540688395500183,-0.521682858467102,-0.0952793657779693,-0.696655809879303,0.0,0.0,-0.8184660077095032,0.884765625
-0.2746308743953705,0.919861376285553,-0.4520687460899353,-0.5346294045448303,-0.1317052394151687,-0.7285181283950806,0.0,0.0,-0.4730703830718994,0.4920127391815185
-0.2795701622962951,0.9076332449913024,-0.4572910666465759,-0.5471189022064209,-0.1682692170143127,-0.7312804460525513,0.0,0.0,0.0407906770706176,0.2038013935089111
-0.2844939827919006,0.8957979083061218,-0.4557845592498779,-0.5305763483047485,-0.205018013715744,-0.7349764704704285,0.0,0.0,-0.3774096965789795,-0.8297313451766968
-0.2895225584506988,0.8837187886238098,-0.4677844047546386,-0.5421048402786255,-0.2405012398958206,-0.7096651792526245,0.0,0.0,-0.3383805751800537,0.0628948211669921
-0.2946000695228576,0.8713780641555786,-0.4728141725063324,-0.5545888543128967,-0.2761565148830414,-0.713106095790863,0.0,0.0,-0.1930640935897827,-0.5788846015930176
-0.2997634410858154,0.8587870001792908,-0.4825259149074554,-0.5663708448410034,-0.3110049366950989,-0.6969689130783081,0.0,0.0,0.4298950433731079,-0.7297877669334412
-0.3047426640987396,0.8465999960899353,-0.4659357666969299,-0.5488495230674744,-0.3443328440189361,-0.6665588617324829,0.0,0.0,0.3076105117797851,-0.7904423475265503
-0.3096050322055816,0.8345521092414856,-0.4560917019844055,-0.5429948568344116,-0.3761144578456878,-0.6356322169303894,0.0,0.0,0.7559210062026978,-0.8606177568435669
-0.3142867088317871,0.8233992457389832,-0.4398446977138519,-0.5034350752830505,-0.406337171792984,-0.6044551134109497,0.0,0.0,0.5007431507110596,-0.8366067409515381
-0.3187697827816009,0.8129552602767944,-0.4217870831489563,-0.4720634818077087,-0.4349967241287231,-0.5731908679008484,0.0,0.0,0.8572494983673096,-0.9484808444976808
-0.3229053914546966,0.8032149076461792,-0.3892036378383636,-0.4406799077987671,-0.4616639316082001,-0.5333449840545654,0.0,0.0,0.8386461734771729,-0.7482939958572388
-0.3268669247627258,0.7936440706253052,-0.3735252916812897,-0.4330876469612121,-0.4867533445358276,-0.5017880201339722,0.0,0.0,0.8962326049804688,-0.5657832026481628
-0.3306922316551208,0.7846530079841614,-0.360884428024292,-0.4074462056159973,-0.5110704898834229,-0.4863430857658386,0.0,0.0,0.9174587726593018,-0.7007895708084106
-0.3340197503566742,0.7766711711883545,-0.3127037286758423,-0.3624267876148224,-0.5338941216468811,-0.4564722180366516,0.0,0.0,0.904204487800598,-0.9540062546730042
-0.3371413648128509,0.7693442702293396,-0.2938703596591949,-0.333008199930191,-0.5549900531768799,-0.4219183027744293,0.0,0.0,0.9867899417877196,-0.8287768959999084
-0.3399862349033355,0.7631512880325317,-0.2674445807933807,-0.2824344933032989,-0.5748898386955261,-0.3979954123497009,0.0,0.0,0.9686737060546876,-0.9553885459899902
-0.3423785269260406,0.7577034831047058,-0.2240683734416961,-0.248783454298973,-0.5928140878677368,-0.3584846258163452,0.0,0.0,0.9027544260025024,-0.818052351474762
-0.3444277346134186,0.7531720399856567,-0.1910826861858368,-0.2077116668224334,-0.6093652844429016,-0.3310242593288421,0.0,0.0,0.9235680103302002,-0.9952305555343628
-0.3461576998233795,0.7496030330657959,-0.1607530862092971,-0.1644002646207809,-0.6241779923439026,-0.2962537407875061,0.0,0.0,0.3351569175720215,-0.9819698333740234
-0.3477641642093658,0.7463340163230896,-0.1500256508588791,-0.1504435688257217,-0.6371508836746216,-0.2594580352306366,0.0,0.0,0.8524088859558105,-0.9831281304359436
-0.3491748869419098,0.7438021898269653,-0.1318989098072052,-0.1171011850237846,-0.6484577655792236,-0.226137638092041,0.0,0.0,0.6862814426422119,-0.9296223521232604
-0.3504830300807953,0.7418534159660339,-0.1229529976844787,-0.0906212776899337,-0.6582321524620056,-0.1954872906208038,0.0,0.0,0.4920005798339844,-0.9249700903892516
-0.3513859212398529,0.7403702139854431,-0.0839358419179916,-0.0692266002297401,-0.6661799550056458,-0.1589562892913818,0.0,0.0,0.3789601325988769,-0.9362666606903076
-0.3521333634853363,0.7389810681343079,-0.0698301866650581,-0.0643309652805328,-0.6723591089248657,-0.1235835775732994,0.0,0.0,-0.535735547542572,-0.9690808057785034
-0.3529399335384369,0.7373751997947693,-0.0768182426691055,-0.0734229609370231,-0.6772103309631348,-0.097024068236351,0.0,0.0,-0.0265804529190063,-0.8530701994895935
-0.3538118898868561,0.7355631589889526,-0.0846774354577064,-0.0818885639309883,-0.6804069876670837,-0.0639325454831123,0.0,0.0,-0.2957752346992492,-0.8735186457633972
-0.3547318577766418,0.733531653881073,-0.0904031246900558,-0.0911483019590377,-0.682426393032074,-0.0403886884450912,0.0,0.0,-0.2474055290222168,-0.8280677199363708
-0.3557043969631195,0.731277346611023,-0.0966793224215507,-0.1005124971270561,-0.6831644177436829,-0.0147609114646911,0.0,0.0,0.1587755680084228,-0.8685476779937744
-0.3563746511936188,0.7294889092445374,-0.0677129998803138,-0.0791115090250969,-0.6822896003723145,0.0174962058663368,0.0,0.0,-0.4277351498603821,-0.823750913143158
-0.3570894598960876,0.7274844646453857,-0.0732143893837928,-0.0881543830037117,-0.6800879836082458,0.0440328493714332,0.0,0.0,-0.3327070474624634,-0.8759520053863525
-0.3578519225120544,0.7252560257911682,-0.079042762517929,-0.0975331291556358,-0.676544189453125,0.0708754658699035,0.0,0.0,-0.4657338261604309,-0.7972586154937744
-0.3586686551570892,0.7228228449821472,-0.0858966335654258,-0.1058947220444679,-0.6712122559547424,0.1066383570432663,0.0,0.0,-0.3652169704437256,-0.3998861312866211
-0.3594793677330017,0.7201140522956848,-0.0850549191236496,-0.1182907670736312,-0.6662024855613708,0.1001953929662704,0.0,0.0,-0.6697793006896973,-0.5654569268226624
-0.3603168427944183,0.7171716094017029,-0.0885066092014312,-0.1282958537340164,-0.660235583782196,0.1193385124206543,0.0,0.0,0.0514940023422241,-0.6248600482940674
-0.3609580099582672,0.7143824100494385,-0.0697441771626472,-0.1210664436221122,-0.6532140374183655,0.1404306292533874,0.0,0.0,-0.5321584939956665,-0.7429604530334473
-0.3616227209568023,0.7113538980484009,-0.0728829354047775,-0.1313572973012924,-0.6452636122703552,0.1590089499950409,0.0,0.0,-0.3980264663696289,-0.2670003771781921
-0.3622695803642273,0.7080501317977905,-0.0708652734756469,-0.1437555998563766,-0.6376447081565857,0.1523781716823578,0.0,0.0,-0.3702288866043091,-0.5426945090293884
-0.3629260957241058,0.7045113444328308,-0.0725258961319923,-0.1539124995470047,-0.629219114780426,0.1685115396976471,0.0,0.0,-0.3778665065765381,-0.1199954748153686
