x_pos,y_pos,x_vel,y_vel,angle,ang_vel,leg_1,leg_2,main_booster,lat_booster
-0.0014458656078204,1.4034584760665894,-0.1467875242233276,-0.3316297531127929,0.0019786949269473,0.0390473678708076,0.0,0.0,-0.336475670337677,0.8985610008239746
-0.0027366639114916,1.3958499431610107,-0.1293424665927887,-0.338163286447525,0.0022363930474966,0.0051548341289162,0.0,0.0,-0.4482455253601074,0.7335219383239746
-0.0038785934448242,1.3880696296691897,-0.1129119545221328,-0.3457899391651153,0.0009811617201194,-0.0251069515943527,0.0,0.0,-0.3766008615493774,0.4816248416900635
-0.0049417493864893,1.380123257637024,-0.1053050607442855,-0.3531728088855743,-1.4816917428106535e-05,-0.0199215039610862,0.0,0.0,-0.3111071586608886,0.2161204814910888
-0.0059261322021484,1.3720108270645142,-0.0976958498358726,-0.3605526387691498,-0.0007520417566411,-0.0147460009902715,0.0,0.0,-0.481796383857727,0.3309283256530761
-0.0068318368867039,1.3637323379516602,-0.0900853425264358,-0.3679317831993103,-0.0012298676883801,-0.0095575014129281,0.0,0.0,-0.6388756036758423,-0.0609537363052368
-0.0076587675139307,1.3552879095077517,-0.0824748128652572,-0.3753109574317932,-0.0014481645775958,-0.004366211593151,0.0,0.0,-0.4429343938827514,-0.2174585461616516
-0.0084069250151515,1.346677303314209,-0.0748658627271652,-0.3826901614665985,-0.0014068211894482,0.0008271561819128,0.0,0.0,-0.6801972389221191,0.2997595071792602
-0.0090765003114938,1.3379007577896118,-0.0672599375247955,-0.3900694847106933,-0.0011057633673772,0.0060214851982891,0.0,0.0,-0.659389853477478,0.0699547529220581
-0.0096674915403127,1.3289581537246704,-0.0596584677696228,-0.3974487483501434,-0.0005450938479043,0.0112144611775875,0.0,0.0,-0.7194826602935791,0.1654644012451172
-0.0101798055693507,1.3198494911193848,-0.0520629696547985,-0.4048281610012054,0.0002751060819718,0.0164056792855262,0.0,0.0,-0.7570614218711853,-0.0840574502944946
-0.0106136323884129,1.3105747699737549,-0.0444749556481838,-0.4122076034545898,0.0013546916889026,0.0215935595333576,0.0,0.0,-0.7754647731781006,-0.3864129185676574
-0.010969066992402,1.3011341094970703,-0.0368960052728652,-0.4195871353149414,0.0026934088673442,0.0267767701297998,0.0,0.0,-0.8565241098403931,-0.638556182384491
-0.0112907411530613,1.291521430015564,-0.0349210649728775,-0.4272414743900299,0.0054122544825077,0.0543819181621074,0.0,0.0,-0.8887715339660645,-0.4045640230178833
-0.0115344049409031,1.2817426919937134,-0.027368614450097,-0.434621661901474,0.0083889439702034,0.0595391169190406,0.0,0.0,-0.9328708052635192,-0.8426969051361084
-0.0117543218657374,1.2717877626419067,-0.0266500655561685,-0.4424799680709839,0.0129919787868857,0.0920692533254623,0.0,0.0,-0.9655017256736756,0.0472625494003295
-0.0118965152651071,1.261667013168335,-0.0191318150609731,-0.449861466884613,0.0178517252206802,0.0972035005688667,0.0,0.0,-0.9469395875930786,0.2998558282852173
-0.0119610782712697,1.2513806819915771,-0.0116310995072126,-0.4572434723377228,0.0229685083031654,0.1023446321487426,0.0,0.0,-0.822893500328064,-0.2465350031852722
-0.0119482995942235,1.2409286499023438,-0.0041505461558699,-0.4646256864070892,0.0283415131270885,0.107469841837883,0.0,0.0,-0.8247816562652588,0.5546625852584839
-0.0118203163146972,1.2303125858306885,0.0080683743581175,-0.47193044424057,0.0330158956348896,0.0934959352016449,0.0,0.0,-0.902928590774536,0.7972553968429565
-0.0115392683073878,1.2195401191711426,0.025065541267395,-0.4788431227207184,0.036025583744049,0.0601988919079303,0.0,0.0,-0.8865589499473572,-0.365901231765747
-0.0111814495176076,1.208601951599121,0.0324806310236454,-0.4862243831157684,0.0392905957996845,0.0653062164783477,0.0,0.0,-0.7944892644882202,0.2772442102432251
-0.0107473377138376,1.197497844696045,0.0398653708398342,-0.4936060309410095,0.0428092442452907,0.0703789219260215,0.0,0.0,-0.8570513725280762,0.7699135541915894
-0.010168838314712,1.1862239837646484,0.0557605139911174,-0.5011250972747803,0.0448736362159252,0.0412915460765361,0.0,0.0,-0.7546468377113342,-0.059957206249237
-0.0095145227387547,1.1747841835021973,0.0630819946527481,-0.5085064768791199,0.0471913814544677,0.0463591106235981,0.0,0.0,-0.900524914264679,-0.1482225060462951
-0.0087841991335153,1.1631572246551514,0.0704317837953567,-0.5168406367301941,0.0497608333826065,0.051388930529356,0.0,0.0,-0.8822547197341919,-0.2747174501419067
-0.0079789161682128,1.1513644456863403,0.077678196132183,-0.524219810962677,0.0525821298360824,0.0564259700477123,0.0,0.0,-0.9518449306488036,0.0575872659683227
-0.0070990561507642,1.1394059658050537,0.0848788172006607,-0.531599223613739,0.0556549280881881,0.0614558272063732,0.0,0.0,-0.9071360230445862,0.203881025314331
-0.0061450959183275,1.1272817850112915,0.0920294076204299,-0.5389788746833801,0.0589788109064102,0.0664776638150215,0.0,0.0,-0.9473088383674622,0.1286193132400512
-0.0051177022978663,1.1149920225143433,0.099125400185585,-0.5463587641716003,0.0625533014535904,0.071489967405796,0.0,0.0,-0.9134091138839722,-0.1666416525840759
-0.0040174485184252,1.102536678314209,0.1061618700623512,-0.5537387132644653,0.0663778781890869,0.0764915496110916,0.0,0.0,-0.8666536211967468,-0.5334376692771912
-0.002892303513363,1.0899078845977783,0.1071792393922805,-0.561521589756012,0.0716518014669418,0.105478823184967,0.0,0.0,-0.8243139982223511,0.0884078741073608
-0.0016957282787188,1.0771137475967407,0.1140802726149559,-0.5689030289649963,0.0771745219826698,0.1104543656110763,0.0,0.0,-0.9331800937652588,-0.3058996200561523
-0.0004283905145712,1.0641543865203855,0.1209044009447097,-0.5762847661972046,0.0829452648758888,0.1154148578643798,0.0,0.0,-0.8381622433662415,-0.2298349142074585
0.0009088516235351,1.0510296821594238,0.1276449114084243,-0.5836669206619263,0.0889631882309913,0.1203585714101791,0.0,0.0,-0.9256079196929932,0.3039020299911499
0.0023150444030761,1.0377397537231443,0.1342945247888565,-0.5910494327545166,0.0952273681759834,0.1252838224172592,0.0,0.0,-0.941835641860962,-0.4011462926864624
0.0037891387473791,1.024284839630127,0.1408453434705734,-0.5984323620796204,0.101736806333065,0.1301886737346649,0.0,0.0,-0.8054797649383545,0.1438384056091308
0.0053299902938306,1.010664701461792,0.1472889631986618,-0.605815589427948,0.1084903627634048,0.1350711286067962,0.0,0.0,-0.7822558879852295,0.2555402517318725
0.0069366456009447,0.996879518032074,0.1536162793636322,-0.6131992340087891,0.1154868155717849,0.1399290263652801,0.0,0.0,-0.872104823589325,0.4322474002838135
0.0086075784638524,0.9829296469688416,0.1598175764083862,-0.6205832958221436,0.1227248162031173,0.1447600573301315,0.0,0.0,-0.5378178954124451,0.4356470108032226
0.0103415492922067,0.9688146114349364,0.1658824384212494,-0.6279677748680115,0.130202904343605,0.149561733007431,0.0,0.0,-0.74114590883255,-0.1105546951293945
0.0121371271088719,0.9545348286628724,0.1717997789382934,-0.6353526711463928,0.137919470667839,0.1543312519788742,0.0,0.0,-0.6768628358840942,0.8162415027618408
0.0140675548464059,0.94009667634964,0.1869643032550811,-0.642272412776947,0.1439827531576156,0.1212659478187561,0.0,0.0,-0.888847827911377,0.5401303768157959
0.0161055568605661,0.9255028963088988,0.1987443417310714,-0.6491069793701172,0.1490234285593032,0.1008136123418808,0.0,0.0,-0.9069403409957886,-0.5786126852035522
0.0181522369384765,0.9107264280319214,0.1981463730335235,-0.6573984026908875,0.1555358469486236,0.1302485018968582,0.0,0.0,-0.8562731146812439,0.9084367752075196
0.0203304290771484,0.8957937359809875,0.2130362093448639,-0.664186418056488,0.1603271812200546,0.0958264619112014,0.0,0.0,-0.9199873208999634,-0.5489332675933838
0.0225227363407611,0.8806836605072021,0.2132198810577392,-0.6722223162651062,0.1663356721401214,0.1201701387763023,0.0,0.0,-0.8781476020812988,-0.0476318597793579
0.0247648246586322,0.8654085397720337,0.2179801762104034,-0.6796060800552368,0.1725693196058273,0.1246729716658592,0.0,0.0,-0.1173282265663147,-0.2440911531448364
0.027054214850068,0.8499683141708374,0.2224969863891601,-0.6869901418685913,0.179025113582611,0.1291159391403198,0.0,0.0,-0.8562612533569336,0.061722993850708
0.0293882377445697,0.8343632817268372,0.2267546206712722,-0.6943744421005249,0.1856997907161712,0.1334935426712036,0.0,0.0,-0.1958180665969848,0.8290492296218872
0.0318439491093158,0.8186154961585999,0.2407601624727249,-0.7005138993263245,0.1905301809310913,0.0966078713536262,0.0,0.0,-0.9593142867088318,-0.6707460880279541
0.0342809669673442,0.8026904463768005,0.2372289896011352,-0.7086229920387268,0.1970441192388534,0.1302788257598877,0.0,0.0,-0.5238738059997559,0.8184571266174316
0.036829374730587,0.7866185307502747,0.2500921785831451,-0.7149525880813599,0.2018258869647979,0.0956354066729545,0.0,0.0,-0.9695907831192015,-0.4697914123535156
0.039410401135683,0.7703812122344971,0.2531549334526062,-0.7223355174064636,0.2068102061748504,0.0996864885091781,0.0,0.0,-0.9577130079269408,-0.7606407999992371
0.0419767387211322,0.7539623975753784,0.2503559291362762,-0.7306216359138489,0.2131450921297073,0.1266976743936538,0.0,0.0,-0.8149964213371277,0.5870524644851685
0.0446070656180381,0.7373883128166199,0.2575635910034179,-0.7374277114868164,0.2186801582574844,0.110701285302639,0.0,0.0,-0.9180667400360109,0.0791127681732177
0.0472594276070594,0.7206490635871887,0.2595763802528381,-0.7448111772537231,0.2244012951850891,0.1144231408834457,0.0,0.0,-0.8540956377983093,0.5418992042541504
0.0499807372689247,0.7037644386291504,0.2676325440406799,-0.7511178851127625,0.2289584428071975,0.0911428034305572,0.0,0.0,-0.8088841438293457,-0.4608224630355835
0.0527162551879882,0.6867145895957947,0.2688859701156616,-0.7585004568099976,0.2336882650852203,0.0945962071418762,0.0,0.0,-0.6548004746437073,-0.1317026615142822
0.0554619804024696,0.6694996953010559,0.2697468400001526,-0.7658831477165222,0.2385832220315933,0.0978991538286209,0.0,0.0,-0.6733174324035645,-0.3482890725135803
0.0582137107849121,0.6521195769309998,0.2702090740203857,-0.7732658386230469,0.2436352372169494,0.1010402217507362,0.0,0.0,-0.7507094144821167,-0.4080249071121216
0.0609674453735351,0.6345743536949158,0.2702685892581939,-0.7806485891342163,0.2488356232643127,0.104007676243782,0.0,0.0,-0.6731702089309692,-0.3091709613800049
0.0637191757559776,0.6168637275695801,0.269923597574234,-0.7880313396453857,0.2541750967502594,0.1067895889282226,0.0,0.0,-0.4587787389755249,0.5678271055221558
0.0665093436837196,0.5990062355995178,0.2748336493968963,-0.7943950891494751,0.2584500908851623,0.0854991525411605,0.0,0.0,0.0782537460327148,-0.3860042095184326
0.0692272186279296,0.5813648104667664,0.2674676775932312,-0.7848321199417114,0.2628673911094665,0.0883461833000183,0.0,0.0,-0.1873207092285156,-0.5446365475654602
0.0718806236982345,0.5635381937026978,0.2596166729927063,-0.7933303117752075,0.2687210738658905,0.1170736923813819,0.0,0.0,0.3124328851699829,0.7401299476623535
0.0744082480669021,0.5465686321258545,0.2483898848295211,-0.7550107836723328,0.2731889188289642,0.0893568247556686,0.0,0.0,0.2869256734848022,0.9086189270019532
0.0769938454031944,0.5298109650611877,0.2558660805225372,-0.7452919483184814,0.2759540379047394,0.0553023219108581,0.0,0.0,0.1745346784591674,-0.6409337520599365
0.0793585777282714,0.5137588381767273,0.232421800494194,-0.7141969799995422,0.2801134586334228,0.0831882804632186,0.0,0.0,0.3186410665512085,0.3904420137405395
0.0815167427062988,0.4980546832084656,0.2120528519153595,-0.698691189289093,0.2839837074279785,0.0774051249027252,0.0,0.0,0.1543459892272949,0.7270321846008301
0.0834933295845985,0.4828623533248901,0.1953596621751785,-0.6756629943847656,0.2863483130931854,0.0472924374043941,0.0,0.0,0.5175495147705078,0.9803200960159302
0.0853761658072471,0.4683749377727508,0.1878658533096313,-0.6439695358276367,0.2867807149887085,0.0086483126506209,0.0,0.0,0.6837549209594727,0.920640230178833
0.0869021415710449,0.4549382030963897,0.1541909724473953,-0.5968751311302185,0.2851433455944061,-0.0327472910284996,0.0,0.0,0.9858887195587158,0.9904097318649292
0.0883584022521972,0.4424090087413788,0.1490103751420974,-0.5561965703964233,0.2816617786884308,-0.0696315541863441,0.0,0.0,0.95589017868042,0.9776411056518556
0.0896726623177528,0.4303875565528869,0.1368250250816345,-0.5332566499710083,0.2761195003986358,-0.1108455657958984,0.0,0.0,0.9095512628555298,0.9861762523651124
0.0909962654113769,0.4188003540039062,0.1395943909883499,-0.5136400461196899,0.2687006592750549,-0.1483771204948425,0.0,0.0,0.9921661615371704,0.886078953742981
0.0921881645917892,0.4076424241065979,0.1283020824193954,-0.4942596852779388,0.259374588727951,-0.1865214556455612,0.0,0.0,0.9741060733795166,0.3768073320388794
0.0930729880928993,0.3976897895336151,0.0977213233709335,-0.4407342374324798,0.2499501705169677,-0.1884882152080536,0.0,0.0,0.964885711669922,-0.1988584995269775
0.0937536209821701,0.3890173137187958,0.0769460573792457,-0.3839509785175323,0.2409006506204605,-0.1809901297092437,0.0,0.0,0.8463633060455322,-0.3396106958389282
0.0940357223153114,0.3814655542373657,0.0377758219838142,-0.334098070859909,0.2311926037073135,-0.1941610872745514,0.0,0.0,-0.7377230525016785,0.9596544504165648
0.094316579401493,0.3737598359584808,0.039252184331417,-0.3407668173313141,0.2198824435472488,-0.2262031733989715,0.0,0.0,-0.3662381768226623,0.2052175998687744
0.0945347771048545,0.3658894300460815,0.0331212133169174,-0.3481529951095581,0.2084692269563675,-0.228264719247818,0.0,0.0,-0.5994357466697693,0.2880491018295288
0.0946886986494064,0.3578544855117798,0.026830717921257,-0.3555392622947693,0.1969412565231323,-0.2305594980716705,0.0,0.0,0.0873576402664184,0.847460150718689
0.0947132110595703,0.3503221869468689,0.0157503094524145,-0.3330550193786621,0.1835706084966659,-0.267412781715393,0.0,0.0,-0.7379311323165894,-0.5093069076538086
0.094629667699337,0.3426170945167541,0.0040752361528575,-0.3409594297409057,0.171103835105896,-0.2493356466293335,0.0,0.0,-0.6740787029266357,-0.2866500616073608
0.0944773703813552,0.3347476422786712,-0.0026215235702693,-0.3483477234840393,0.1584905534982681,-0.2522651851177215,0.0,0.0,-0.8417261838912964,-0.8308433890342712
0.0941937416791915,0.3266908526420593,-0.0171737782657146,-0.3569298684597015,0.1473235338926315,-0.2233404219150543,0.0,0.0,-0.9048553109169006,-0.4844126105308532
0.0938392654061317,0.3184693455696106,-0.024090003222227,-0.3643157184123993,0.1359916180372238,-0.226638525724411,0.0,0.0,-0.8264575004577637,-0.7569751143455505
0.0933678597211837,0.3100736737251282,-0.036728199571371,-0.3722244203090668,0.1256295293569564,-0.2072419226169586,0.0,0.0,-0.8654901385307312,-0.7420328259468079
0.0927793532609939,0.3014988899230957,-0.0493992567062377,-0.3803331553936004,0.1162275597453117,-0.1880394369363784,0.0,0.0,-0.8329823613166809,-0.8565371036529541
0.0920485481619834,0.2927531898021698,-0.0651552528142929,-0.3881047070026397,0.1083598881959915,-0.1573531925678253,0.0,0.0,-0.8702109456062317,-0.3316052556037903
0.0912432670593261,0.2838419675827026,-0.0724094808101654,-0.3954856991767883,0.1002970188856124,-0.161257654428482,0.0,0.0,-0.7166482210159302,-0.795566976070404
0.0903127640485763,0.2747607231140136,-0.0859849229454994,-0.4031532406806946,0.0932896509766578,-0.1401472389698028,0.0,0.0,-0.8034984469413757,-0.6767892837524414
0.0892622917890548,0.2655005156993866,-0.0988940447568893,-0.4111958742141723,0.0872003138065338,-0.121786817908287,0.0,0.0,-0.4774041175842285,0.5356354713439941
0.0881739631295204,0.256078153848648,-0.1014871150255203,-0.4183609187602997,0.0799245461821556,-0.145515501499176,0.0,0.0,-0.6283300518989563,0.3062678575515747
0.0870085731148719,0.2464902251958847,-0.1089762449264526,-0.4257414937019348,0.0724310725927352,-0.1498693823814392,0.0,0.0,-0.5397310853004456,-0.0552752017974853
0.0857654586434364,0.236736923456192,-0.1165118440985679,-0.4331224262714386,0.0647153556346893,-0.1543145179748535,0.0,0.0,-0.1470041275024414,-0.066517949104309
0.0844442397356033,0.2268183380365371,-0.1240898370742797,-0.4405037462711334,0.0567731782793998,-0.1588435620069503,0.0,0.0,-0.2407395839691162,0.0516947507858276
0.0830445289611816,0.216734305024147,-0.1317065209150314,-0.447885513305664,0.0486006923019886,-0.1634497195482254,0.0,0.0,0.1996585130691528,-0.4423633813858032
0.0815006271004676,0.2072985023260116,-0.1457041949033737,-0.4191111326217651,0.0400145202875137,-0.1717235147953033,0.0,0.0,-0.376455008983612,-0.5177353024482727
0.0798306465148925,0.1976984143257141,-0.1592404097318649,-0.4264850318431854,0.0323621518909931,-0.153047502040863,0.0,0.0,-0.379626989364624,-0.1541675329208374
0.078081227838993,0.1879329532384872,-0.1669539362192154,-0.4338668584823608,0.0244696997106075,-0.1578490138053894,0.0,0.0,-0.0031965374946594,-0.5870428681373596
0.0761963874101638,0.1780007630586624,-0.181651160120964,-0.4413365721702575,0.0177281033247709,-0.1348322927951812,0.0,0.0,-0.2531303167343139,0.3488820791244507
0.0742314308881759,0.1679031401872635,-0.1894157379865646,-0.4487175941467285,0.0107411909848451,-0.139738529920578,0.0,0.0,0.1800709962844848,-0.1043440699577331
0.0722562819719314,0.1584112048149109,-0.1905410140752792,-0.4218303263187408,0.0038566002622246,-0.1376920342445373,0.0,0.0,-0.1959057450294494,-0.6162055134773254
0.0701567679643631,0.1487481743097305,-0.2038415670394897,-0.4294652938842773,-0.0021771350875496,-0.1206744909286499,0.0,0.0,-0.0496981143951416,-0.3886083364486694
0.0679763779044151,0.1389196217060089,-0.2116665542125702,-0.4368459284305572,-0.0084624793380498,-0.1257069408893585,0.0,0.0,0.6777925491333008,0.0329329967498779
0.0656985267996788,0.1301081031560897,-0.2210529744625091,-0.3916780650615692,-0.0151087576523423,-0.1329254060983657,0.0,0.0,-0.2145187854766845,0.2778124809265136
0.0633395165205001,0.1211312115192413,-0.2289093434810638,-0.3990597128868103,-0.0220100004225969,-0.1380250304937362,0.0,0.0,0.411198616027832,0.5176377296447754
0.0610215179622173,0.1127279624342918,-0.2236880958080291,-0.3736180961132049,-0.0300262253731489,-0.1603246629238128,0.0,0.0,-0.2461171150207519,-0.0444548726081848
0.0586219802498817,0.1041596978902816,-0.2315700799226761,-0.3810016810894012,-0.0383002422749996,-0.1654804199934005,0.0,0.0,0.7037149667739868,0.413662314414978
0.0562346465885639,0.0966402143239975,-0.2303918898105621,-0.3344339430332184,-0.0465439930558204,-0.1648747771978378,0.0,0.0,0.3032453060150146,0.2454452514648437
0.0538459792733192,0.089493378996849,-0.2305588722229004,-0.3179214894771576,-0.0547539107501506,-0.1641985476016998,0.0,0.0,-0.1868183612823486,0.4411461353302002
0.051375675946474,0.0821816027164459,-0.2384698390960693,-0.3253059387207031,-0.0632250607013702,-0.1694226413965225,0.0,0.0,0.8164230585098267,-0.0461305379867553
0.0487184524536132,0.0755656361579895,-0.2562354207038879,-0.2944697737693786,-0.0726111978292465,-0.1877230107784271,0.0,0.0,0.4518336057662964,-0.2562136650085449
0.0459964759647846,0.0695283040404319,-0.2623640894889831,-0.268830806016922,-0.0823479741811752,-0.194735437631607,0.0,0.0,0.5688333511352539,0.2418627738952636
0.0432588569819927,0.0640807747840881,-0.2637841999530792,-0.2426914721727371,-0.0922345593571662,-0.1977317631244659,0.0,0.0,0.0451085567474365,0.335060715675354
0.0405425056815147,0.058797251433134,-0.2617830336093902,-0.2354623675346374,-0.1020036116242408,-0.1953812390565872,0.0,0.0,0.072357177734375,-0.2576180696487427
0.0378523841500282,0.0540018901228904,-0.2592028379440307,-0.2138253897428512,-0.1117453649640083,-0.1948351562023162,0.0,0.0,-0.1945874691009521,-0.1462355852127075
0.0350802429020404,0.0490421615540981,-0.2671448886394501,-0.2212133705615997,-0.1217530518770217,-0.2001537382602691,0.0,0.0,0.2973190546035766,0.2111607789993286
0.0323055274784565,0.0442739091813564,-0.2673830986022949,-0.2127774506807327,-0.1317960321903228,-0.2008595764636993,0.0,0.0,0.4821162223815918,-0.2140384912490844
