x_pos,y_pos,x_vel,y_vel,angle,ang_vel,leg_1,leg_2,main_booster,lat_booster
-0.0015705109108239,1.4029676914215088,-0.1587376892566681,-0.3534469306468963,0.0015050849178805,0.0296701528131961,0.0,0.0,0.7901229044014337,-0.8758802646315444
-0.0031960487831383,1.3951269388198853,-0.16559499502182,-0.34848752617836,0.0045163622125983,0.0602319613099098,0.0,0.0,0.5873579302553187,0.9790832591668688
-0.0046485899947583,1.3872050046920776,-0.146211951971054,-0.3520808219909668,0.0054584965109825,0.0188442096114158,0.0,0.0,-0.8159178212982403,0.9447066801450854
-0.0060893059708178,1.3786237239837646,-0.1431711614131927,-0.3813920617103576,0.0045716622844338,-0.0177383068948984,0.0,0.0,0.6624327465274167,-0.8438337466117577
-0.0075032236054539,1.3703727722167969,-0.1421097517013549,-0.3667064905166626,0.0052798464894294,0.0141648994758725,0.0,0.0,0.2283912148027285,-0.8451434556483122
-0.0089166639372706,1.362069845199585,-0.1435078531503677,-0.3690332472324371,0.0074173165485262,0.0427533388137817,0.0,0.0,0.4344780671358994,-0.7276985866255287
-0.0104611394926905,1.3538610935211182,-0.1576584577560424,-0.3648507297039032,0.0105962269008159,0.0635841712355613,0.0,0.0,0.9692606181353208,-0.8496407127744723
-0.0119343753904104,1.3461568355560305,-0.1523034125566482,-0.342458575963974,0.0155217247083783,0.0985189005732536,0.0,0.0,-0.1089791542011173,-0.6414177470913363
-0.0135078430175781,1.337801456451416,-0.1632485091686248,-0.371419757604599,0.021365363150835,0.1168834567070007,0.0,0.0,-0.8547559081258651,-0.7716120075423938
-0.0151907922700047,1.3287925720214844,-0.1753687858581543,-0.400508314371109,0.0283550769090652,0.1398072242736816,0.0,0.0,-0.5112585775660814,0.6467828893669102
-0.0168643947690725,1.3191301822662354,-0.1725509911775589,-0.4295491278171539,0.0334873795509338,0.1026554256677627,0.0,0.0,-0.1342715764026074,0.8637257384251866
-0.0185108184814453,1.3088128566741943,-0.167491465806961,-0.4586129188537597,0.0363090075552463,0.0564378127455711,0.0,0.0,0.9206720589555388,0.7141633854565298
-0.0200158115476369,1.2990731000900269,-0.151925653219223,-0.432913988828659,0.0377193950116634,0.0282102022320032,0.0,0.0,0.7384339829023023,0.7741499336872365
-0.0214429851621389,1.2892369031906128,-0.1423412710428238,-0.4371557831764221,0.037350907921791,-0.0073706349357962,0.0,0.0,-0.4979188810895016,0.7358433351379914
-0.0228476524353027,1.2787551879882812,-0.1378458440303802,-0.4657889008522033,0.0347635596990585,-0.0517516545951366,0.0,0.0,-0.9067950834139176,-0.7640217990634194
-0.0243501663208007,1.2676050662994385,-0.1484687477350235,-0.4955244064331054,0.0329967588186264,-0.0353391990065574,0.0,0.0,0.9055563784974798,0.7345532759527161
-0.025704288855195,1.2572970390319824,-0.1321362853050232,-0.4580683708190918,0.0297559686005115,-0.0648216679692268,0.0,0.0,0.07873270247464,0.8693383267098684
-0.0269366260617971,1.2466990947723389,-0.1178038865327835,-0.4709151089191437,0.0243869554251432,-0.107389822602272,0.0,0.0,-0.9300602909776748,-0.7796887278050164
-0.0282694809138774,1.235450029373169,-0.1287398189306259,-0.499888151884079,0.0198806338012218,-0.0901345759630203,0.0,0.0,-0.1138253245948621,0.7525999224929759
-0.0295998565852642,1.2235456705093384,-0.1267248839139938,-0.5290148258209229,0.0136386835947632,-0.1248500943183898,0.0,0.0,0.7184416521800256,0.865663729915443
-0.0307742115110158,1.2121684551239014,-0.1091885343194007,-0.5055904388427734,0.0054887509904801,-0.1630132645368576,0.0,0.0,-0.3911365938831594,-0.903055274639642
-0.0320672988891601,1.200129508972168,-0.1223955303430557,-0.5350605845451355,-0.0013488392578437,-0.1367641538381576,0.0,0.0,0.3143667347501933,0.8435621316682893
-0.0332243926823139,1.1880824565887451,-0.1067497953772544,-0.5354490876197815,-0.0101955831050872,-0.1769509613513946,0.0,0.0,-0.5895916037925542,0.964425554767552
-0.0343449600040912,1.175368070602417,-0.1004925966262817,-0.5652068257331848,-0.0216351170092821,-0.2288108319044113,0.0,0.0,0.7570618866116012,0.7016806268390136
-0.0356080047786235,1.1630308628082275,-0.1124832853674888,-0.5485750436782837,-0.0352964363992214,-0.2732510864734649,0.0,0.0,0.2377462518440305,-0.997386246721108
-0.0371084213256835,1.150824785232544,-0.137743204832077,-0.5428333878517151,-0.0474577136337757,-0.2432251423597335,0.0,0.0,-0.9598876735505344,0.7892501997806608
-0.0385949127376079,1.1379648447036743,-0.1342728286981582,-0.5720729827880859,-0.0616619475185871,-0.2840849161148071,0.0,0.0,0.7801585810425062,0.8003287435375065
-0.0401659980416297,1.125799536705017,-0.1403571814298629,-0.5414522886276245,-0.0782292261719703,-0.3313457071781158,0.0,0.0,0.5878352933893933,-0.999944970639106
-0.0419480316340923,1.1141287088394165,-0.1628647893667221,-0.5195767283439636,-0.0934197306632995,-0.3038102984428406,0.0,0.0,0.6630852685262676,0.7244547333267
-0.0436988845467567,1.1025303602218628,-0.1577955484390258,-0.5166435837745667,-0.1105735301971435,-0.3430761098861694,0.0,0.0,0.876145493256324,0.961221794417546
-0.0452921874821186,1.0917081832885742,-0.1397009193897247,-0.4825576245784759,-0.1300750970840454,-0.3900315761566162,0.0,0.0,-0.4037302752870544,-0.9209872425556388
-0.0470154769718647,1.0802451372146606,-0.1543699204921722,-0.5111328959465027,-0.1479770392179489,-0.3580389618873596,0.0,0.0,-0.5224302510713779,-0.7262749299775862
-0.0488507263362407,1.068151354789734,-0.1667854934930801,-0.5392540097236633,-0.1647008657455444,-0.3344763815402984,0.0,0.0,0.2886498176907364,0.9060845228691022
-0.0506745353341102,1.0558104515075684,-0.1633563935756683,-0.5506998896598816,-0.1837610006332397,-0.3812029659748077,0.0,0.0,0.5804629193460757,0.7470441953872782
-0.0523609146475791,1.043684720993042,-0.1477668583393097,-0.5416454672813416,-0.2047678381204605,-0.4201366901397705,0.0,0.0,0.5276620829711642,-0.838406474402861
-0.053998090326786,1.0319565534591677,-0.1441289186477661,-0.5240840911865234,-0.2245397865772247,-0.3954389095306396,0.0,0.0,-0.1365302488689881,-0.765867978838475
-0.0557442680001258,1.0195950269699097,-0.1562402695417404,-0.5523112416267395,-0.2431881427764892,-0.3729671835899353,0.0,0.0,-0.5720428935215705,0.9490481731374846
-0.0574586875736713,1.0065617561340332,-0.15068981051445,-0.5828377604484558,-0.2643525600433349,-0.4232887327671051,0.0,0.0,-0.3666360445527321,0.955476123354727
-0.0591494552791118,0.9928624033927916,-0.1462199836969375,-0.6131690740585327,-0.2878012657165527,-0.4689739346504211,0.0,0.0,0.4828720574006435,0.660941820992489
-0.0606543533504009,0.9792669415473938,-0.1260652840137481,-0.6092655658721924,-0.3130240440368652,-0.5044561624526978,0.0,0.0,-0.6446652751644333,0.6518716767467444
-0.0621627792716026,0.9650107622146606,-0.125122383236885,-0.6393852233886719,-0.3398220539093017,-0.5359600186347961,0.0,0.0,-0.2458274364471435,-0.9243015050888062
-0.0637706741690635,0.9501357078552246,-0.1362698972225189,-0.6671155691146851,-0.365606814622879,-0.5156950950622559,0.0,0.0,0.7779889106750488,-0.9816924333572388
-0.0652676597237587,0.9350549578666688,-0.1269803196191787,-0.6762403845787048,-0.3897182643413543,-0.4822288155555725,0.0,0.0,0.6223963499069214,-0.9430013298988342
-0.0665788650512695,0.920024573802948,-0.110100507736206,-0.6739349365234375,-0.4122461676597595,-0.4505581855773926,0.0,0.0,0.2157979011535644,-0.9843114018440248
-0.0679531097412109,0.904700517654419,-0.1180215626955032,-0.6868725419044495,-0.4332414865493774,-0.4199059009552002,0.0,0.0,-0.192790687084198,-0.9806086421012878
-0.0694382637739181,0.888762891292572,-0.1305438578128814,-0.7140018343925476,-0.4528579115867615,-0.3923283219337463,0.0,0.0,-0.1839728951454162,-0.9117198586463928
-0.0710255652666091,0.8722133040428162,-0.142039269208908,-0.7410672307014465,-0.4712628126144409,-0.3680978417396545,0.0,0.0,-0.5575367212295532,-0.9593974947929382
-0.0727318748831749,0.8550831079483032,-0.1557909846305847,-0.7664714455604553,-0.4877590835094452,-0.3299255967140198,0.0,0.0,0.2322652339935302,-0.9932662844657898
-0.0743733420968055,0.8382248282432556,-0.1508675068616867,-0.7540293335914612,-0.502643883228302,-0.2976958751678467,0.0,0.0,0.5173428058624268,-0.9209954738616944
-0.0759147629141807,0.8213945627212524,-0.1422395408153534,-0.7524339556694031,-0.516105055809021,-0.269223690032959,0.0,0.0,0.477446436882019,-0.9861536622047424
-0.0771851539611816,0.8045271039009094,-0.116705872118473,-0.7536274194717407,-0.5278780460357666,-0.2354599982500076,0.0,0.0,0.6825416088104248,-0.97702956199646
-0.0782392472028732,0.7880923748016357,-0.09644665569067,-0.733942449092865,-0.5381354689598083,-0.2051482945680618,0.0,0.0,0.7123916149139404,-0.9924327731132508
-0.0790563598275184,0.7715558409690857,-0.0743292421102523,-0.7379299402236938,-0.5466451048851013,-0.1701924502849578,0.0,0.0,0.1914718151092529,-0.9196569919586182
-0.0796699523925781,0.7551644444465637,-0.0552822351455688,-0.7309894561767578,-0.553676187992096,-0.1406212300062179,0.0,0.0,0.4145270586013794,-0.9718477725982666
-0.0800439864397049,0.7385938167572021,-0.0327797308564186,-0.7383885979652405,-0.5590569376945496,-0.1076152175664901,0.0,0.0,0.0384705066680908,-0.9873782992362976
-0.080426886677742,0.721861720085144,-0.0351043157279491,-0.7449861764907837,-0.5627725720405579,-0.0743122771382331,0.0,0.0,0.0970492362976074,-0.9427635669708252
-0.0805606842041015,0.7051545977592468,-0.0114944027736783,-0.7433391809463501,-0.5649778246879578,-0.0441055856645107,0.0,0.0,0.4134039878845215,-0.900644063949585
-0.0803660377860069,0.6884765625,0.0200406592339277,-0.7414825558662415,-0.5656388998031616,-0.0132220117375254,0.0,0.0,-0.1625285148620605,-0.9418378472328186
-0.0802563652396202,0.6712048649787903,0.0104195345193147,-0.7674021124839783,-0.5650112628936768,0.0125521775335073,0.0,0.0,-0.0431561470031738,-0.9557763338088988
-0.0802477821707725,0.6533541083335876,-0.0012365786824375,-0.7924818396568298,-0.562558114528656,0.0490635149180889,0.0,0.0,-0.0508755445480346,-0.9616892337799072
-0.0803318992257118,0.6348978877067566,-0.0117026148363947,-0.8189007639884949,-0.558727502822876,0.0766122490167617,0.0,0.0,-0.0260174870491027,-0.9109663963317872
-0.0805147141218185,0.615858256816864,-0.0231155566871166,-0.8442036509513855,-0.5531082153320312,0.1123860701918602,0.0,0.0,0.2919983863830566,-0.9660233855247498
-0.0804831534624099,0.5966506004333496,-0.0030751065351068,-0.8511215448379517,-0.5458956360816956,0.1442525684833526,0.0,0.0,0.2163782119750976,-0.9168158173561096
-0.0802873596549034,0.5774098634719849,0.0120405405759811,-0.8521162271499634,-0.5372103452682495,0.1737062633037567,0.0,0.0,0.3460011482238769,-0.762010931968689
-999.0,0.5579727292060852,0.0205498300492763,-0.8605031967163086,-0.5273900628089905,0.1964053511619568,0.0,0.0,0.3846373558044433,-0.4526994824409485
-0.0795683860778808,0.5386033058166504,0.0350176319479942,-0.8578727841377258,-0.5185326337814331,0.1771491467952728,0.0,0.0,0.7966539859771729,-0.7801820039749146
-0.0787279158830642,0.5198277831077576,0.0751611739397049,-0.8311166763305664,-0.5084405541419983,0.2018412053585052,0.0,0.0,0.682481050491333,-0.7843057513237
-0.0777373313903808,0.500759482383728,0.0889240950345993,-0.8437593579292297,-0.4970233738422394,0.2283432185649871,0.0,0.0,0.904881715774536,-0.95231831073761
-0.0763252228498458,0.482374906539917,0.129574179649353,-0.8129423260688782,-0.4840039610862732,0.2603883147239685,0.0,0.0,0.7127025127410889,-0.9318970441818236
-0.0748610496520996,0.4641135036945343,0.133498340845108,-0.8071635961532593,-0.4696496725082397,0.287085622549057,0.0,0.0,0.6725683212280273,-0.9281931519508362
-0.073254682123661,0.4462408423423767,0.1464118659496307,-0.7896041870117188,-0.4539474248886108,0.3140447437763214,0.0,0.0,0.8784482479095459,-0.8599634766578674
-0.0713725090026855,0.4286916851997375,0.1725862920284271,-0.7749773859977722,-0.4368426203727722,0.3420960307121277,0.0,0.0,0.9181182384490968,-0.5697354674339294
-0.0692648887634277,0.4119594097137451,0.1947328895330429,-0.7387664318084717,-0.419443279504776,0.3479869961738586,0.0,0.0,0.8165619373321533,-0.5168036818504333
-0.0668614357709884,0.3954189121723175,0.2233764827251434,-0.7302060723304749,-0.4011870920658111,0.3651236891746521,0.0,0.0,0.6180514097213745,-0.4248816967010498
-0.0643407851457595,0.3787760734558105,0.2355490177869796,-0.7351147532463074,-0.383537620306015,0.3529900014400482,0.0,0.0,0.5530984401702881,-0.9354392886161804
-0.061708927154541,0.3618993163108825,0.2450965940952301,-0.7453267574310303,-0.3643423318862915,0.383905827999115,0.0,0.0,0.7756650447845459,-0.5781989097595215
-0.0590216629207134,0.3449223041534424,0.2498784065246582,-0.749873697757721,-0.3445032835006714,0.3967812061309814,0.0,0.0,0.8466976881027222,-0.8631334900856018
-0.0561012253165245,0.3285942077636719,0.2718035876750946,-0.7209929823875427,-0.3233423829078674,0.4232185781002044,0.0,0.0,0.7219258546829224,-0.6797230839729309
-0.052865982055664,0.3128150403499603,0.3020099997520447,-0.6966478228569031,-0.3010145425796509,0.4465568959712982,0.0,0.0,0.4401822090148926,-0.8405924439430237
-0.0495758056640625,0.2974944710731506,0.3062196373939514,-0.6763704419136047,-0.2775232493877411,0.4698259830474853,0.0,0.0,0.4910964965820312,-0.9222126007080078
-0.0463899597525596,0.2820324301719665,0.2943311631679535,-0.6827933192253113,-0.2527224123477936,0.496016651391983,0.0,0.0,0.915448784828186,-0.8090116381645203
-0.0429715141654014,0.2672659754753113,0.3161381483078003,-0.6520707607269287,-0.2265773713588714,0.522901177406311,0.0,0.0,0.902080535888672,-0.9171738624572754
-0.0395833030343055,0.252889335155487,0.3117312490940094,-0.6350301504135132,-0.1992068588733673,0.547410249710083,0.0,0.0,0.9777761697769164,-0.9546141028404236
-0.0361599922180175,0.239107996225357,0.3136793971061706,-0.6089034676551819,-0.170427605509758,0.5755852460861206,0.0,0.0,0.935848355293274,-0.8047526478767395
-0.0326540954411029,0.2259173244237899,0.3205651342868805,-0.5830872058868408,-0.1404373943805694,0.5998043417930603,0.0,0.0,0.942409873008728,-0.3028066158294678
-0.0289287567138671,0.2130766957998275,0.3422814309597015,-0.568120002746582,-0.1103312447667121,0.6021236181259155,0.0,0.0,0.965483784675598,-0.7756829857826233
-0.0251658447086811,0.2001968771219253,0.3446571230888366,-0.5704017281532288,-0.0789551585912704,0.6275224685668945,0.0,0.0,0.9718713760375975,-0.5328401923179626
-0.0212649349123239,0.1873799115419387,0.3572710752487182,-0.5682350993156433,-0.0464991740882396,0.6491199731826782,0.0,0.0,0.9968230724334716,0.1417901515960693
-0.0171277038753032,0.1749421954154968,0.3803417086601257,-0.552081823348999,-0.0135335139930248,0.6593139171600342,0.0,0.0,0.999060034751892,0.3920879364013672
-0.0127873420715332,0.1625747084617614,0.4001305103302002,-0.5497019290924072,0.0199170093983411,0.6690109968185425,0.0,0.0,0.9980514049530028,0.0709648132324218
-0.0084431646391749,0.150927260518074,0.4008637368679046,-0.5184398889541626,0.0530593246221542,0.6628468632698059,0.0,0.0,0.9947468042373656,0.4552422761917114
-0.0040802955627441,0.1400122493505478,0.4028761386871338,-0.486628383398056,0.0861178115010261,0.6611703038215637,0.0,0.0,0.9997942447662354,0.6281602382659912
0.0004538536013569,0.1296902447938919,0.4211555421352386,-0.4609227180480957,0.118126556277275,0.6401751041412354,0.0,0.0,0.998637557029724,0.7529597282409668
0.0051643373444676,0.1193382143974304,0.440301239490509,-0.4628074467182159,0.1487348526716232,0.6121664643287659,0.0,0.0,0.9992566108703612,0.4633269309997558
0.0097533222287893,0.1092410907149314,0.4287881255149841,-0.4520477056503296,0.1788590550422668,0.6024844646453857,0.0,0.0,0.9985406398773192,0.8675409555435181
0.0143669126555323,0.1000967621803283,0.4330697059631347,-0.4100688695907593,0.2072998434305191,0.5688161849975586,0.0,0.0,0.9973320960998536,0.7408056259155273
0.0189010612666606,0.0913235023617744,0.4269763827323913,-0.3938487768173218,0.2340374737977981,0.534753143787384,0.0,0.0,0.9997009038925172,0.5833652019500732
0.0231356620788574,0.0832722261548042,0.3989131450653076,-0.3619366586208343,0.2590256929397583,0.4997642934322357,0.0,0.0,0.9978432655334472,0.6893224716186523
0.0273521430790424,0.0758625343441963,0.3984141945838928,-0.3335974514484405,0.2828124761581421,0.4757357537746429,0.0,0.0,0.9901291131973268,0.0518734455108642
0.0312917716801166,0.06907769292593,0.3712487816810608,-0.3061220943927765,0.3062391579151153,0.4685333669185638,0.0,0.0,0.963698387145996,0.2870329618453979
0.0349075309932231,0.0628711283206939,0.3394903540611267,-0.280670017004013,0.3291762471199035,0.4587415158748626,0.0,0.0,0.8698093891143799,0.367742657661438
0.0383532531559467,0.056800615042448,0.3227880895137787,-0.2749293744564056,0.3519754707813263,0.455984503030777,0.0,0.0,0.7111908197402954,-0.0949944257736206
0.0415101051330566,0.0508942455053329,0.2946015298366546,-0.2678314745426178,0.374235600233078,0.445202499628067,0.0,0.0,0.6168190240859985,0.3727151155471802
0.0443825721740722,0.0449719987809658,0.2669374346733093,-0.2686813473701477,0.3958616256713867,0.432520717382431,0.0,0.0,0.7512966394424438,0.45259690284729
0.0471055023372173,0.0395183190703392,0.2516118288040161,-0.2483071833848953,0.4180806875228882,0.4443808495998382,0.0,1.0,0.9830286502838136,0.9952218532562256
0.0498042106628418,0.0350424610078334,0.2643527388572693,-0.2013728618621826,0.4210794866085052,0.0556318052113056,0.0,1.0,0.999512791633606,0.9880120754241944
0.0522597320377826,0.0322605483233928,0.2611989378929138,-0.1191066205501556,0.4040835797786712,-0.3401109278202057,0.0,1.0,0.9944026470184326,-0.7019423246383667
0.0540392883121967,0.0306387767195701,0.2088547497987747,-0.0638358071446418,0.3703945279121399,-0.6748231053352356,0.0,1.0,0.9670703411102296,-0.9264423847198486
0.0554565414786338,0.0300644971430301,0.1779945194721222,-0.0166341196745634,0.3321727514266968,-0.7645345330238342,0.0,1.0,0.8306713104248047,-0.9809011816978456
0.0567094795405864,0.0297410581260919,0.1584717482328415,-0.0071377255953848,0.2976841330528259,-0.6898084878921509,0.0,1.0,0.7095127105712891,-0.8885703682899475
0.0576387420296669,0.0299584250897169,0.1245520338416099,0.0157891847193241,0.2651412487030029,-0.6508835554122925,0.0,0.0,-0.9999377727508544,-0.6864595413208008
0.0585606582462787,0.0295195430517196,0.1227838844060897,-0.0142801515758037,0.233945146203041,-0.623947024345398,0.0,0.0,-0.9984849691390992,-0.7312833070755005
0.0594761855900287,0.0284158326685428,0.1209943145513534,-0.04466313123703,0.204156294465065,-0.5958005785942078,0.0,0.0,-0.9990364909172058,-0.586280882358551
0.0603798851370811,0.0266510099172592,0.1184164881706237,-0.0748171582818031,0.1759378165006637,-0.5643917918205261,0.0,0.0,-0.9692319631576538,-0.7840771079063416
0.0612533576786518,0.0242180675268173,0.1134525388479232,-0.1052552238106727,0.1498043686151504,-0.5226895809173584,0.0,0.0,-0.8983253836631775,-0.859243631362915
0.0621016509830951,0.0211209394037723,0.1090441942214965,-0.1353949904441833,0.1256511360406875,-0.4830834865570068,0.0,0.0,-0.1518856883049011,-0.8567934632301331
0.0629304870963096,0.0173609834164381,0.10531797260046,-0.1653778105974197,0.1033577769994735,-0.4458845555782318,0.0,0.0,0.626807451248169,-0.8227483034133911
0.0638462081551551,0.0134835103526711,0.1118934154510498,-0.1710543483495712,0.083190880715847,-0.4033533930778503,0.0,0.0,0.8997828960418701,-0.6832590699195862
0.064815804362297,0.0101311774924397,0.1149813085794448,-0.1480904370546341,0.0653479993343353,-0.3568572998046875,0.0,0.0,0.6371686458587646,-0.5632016062736511
0.0657612830400466,0.0073260879144072,0.1111021041870117,-0.124028593301773,0.0489755943417549,-0.3274480700492859,0.0,0.0,0.4910241365432739,-0.2931650876998901
0.0667967796325683,0.0042938683182001,0.1195543557405471,-0.1343207657337188,0.0331691056489944,-0.3161297440528869,0.0,0.0,0.8089919090270996,-0.2897170782089233
