x_pos,y_pos,x_vel,y_vel,angle,ang_vel,leg_1,leg_2,main_booster,lat_booster
-0.0015133857959881,1.403353929519653,-0.1527675241231918,-0.3362773954868316,0.0012790811015293,0.0251949224621057,0.0,0.0,-0.1709996461868286,0.3756884336471557
-0.0030155181884765,1.3955402374267578,-0.1509841829538345,-0.3472765982151031,0.0020411966834217,0.0152443256229162,0.0,0.0,0.1852741241455078,0.4337610006332397
-0.0044099809601902,1.387890338897705,-0.1401869803667068,-0.3399921059608459,0.0027812509797513,0.0148024084046483,0.0,0.0,-0.6561318039894104,0.6717243194580078
-0.0057482719421386,1.3799678087234497,-0.1330167204141616,,0.0019742401782423,-0.0161417312920093,0.0,0.0,-0.0427572727203369,0.7669985294342041
-0.0069985389709472,1.3717774152755735,-0.1218661442399025,-0.3640199601650238,-0.0011520215775817,-0.0625310242176055,0.0,0.0,-0.1240663528442382,-0.2229795455932617
-0.0082327844575047,1.363316535949707,-0.1197816953063011,-0.3760476112365722,-0.0047536208294332,-0.0720385611057281,0.0,0.0,-0.019952118396759,0.691043496131897
-0.0093975067138671,1.3545849323272705,-0.1110179424285888,-0.3880963325500488,-0.0101461289450526,-0.1078599467873573,0.0,0.0,-0.5507438778877258,0.1512410640716552
-0.0105439182370901,1.3455833196640017,-0.1087056994438171,-0.4001255631446838,-0.0160090178251266,-0.117268718779087,0.0,0.0,0.2197936773300171,-0.4288687705993652
-0.0116697307676076,1.3372385501861572,-0.1061412692070007,-0.3709625005722046,-0.0223828125745058,-0.1274878829717636,0.0,0.0,-0.1514543890953064,-0.520054042339325
-0.0128159523010253,1.3286283016204834,-0.1087479814887046,-0.3827798962593078,-0.0281896907836198,-0.1161480918526649,0.0,0.0,-0.1877989172935485,-0.0662152171134948
-0.0139404293149709,1.3197481632232666,-0.1061088815331459,-0.3948068022727966,-0.0344588831067085,-0.1253951042890548,0.0,0.0,-0.4220776557922363,0.0546214580535888
-0.0150420190766453,1.3105981349945068,-0.1033614501357078,-0.4068373441696167,-0.0411858633160591,-0.1345519125461578,0.0,0.0,-0.4996343851089477,0.0846374034881591
-0.0161196701228618,1.3011784553527832,-0.100507453083992,-0.4188695549964905,-0.0483666062355041,-0.1436282098293304,0.0,0.0,-0.4850914478302002,-0.4455211162567138
-0.0171722415834665,1.2914892435073853,-0.0975489169359207,-0.4309026300907135,-0.0559964552521705,-0.1526109874248504,0.0,0.0,-0.88477623462677,-0.7813042998313904
-0.0182455070316791,1.281542420387268,-0.1003718003630638,-0.4423570930957794,-0.0628804862499237,-0.1376932263374328,0.0,0.0,-0.9290359020233154,-0.1552308797836303
-0.019291590899229,1.2713260650634766,-0.0972133502364158,-0.4543907046318054,-0.0702034085988998,-0.1464722007513046,0.0,0.0,-0.7501892447471619,-0.8989326357841492
-0.0203635208308696,1.2608562707901,-0.1007574796676635,-0.4656401872634887,-0.0765776634216308,-0.1274966448545456,0.0,0.0,-0.8666646480560303,-0.7137196063995361
-0.0214493758976459,1.2501155138015747,-0.1028225868940353,-0.4776677191257477,-0.0822959616780281,-0.1143765076994896,0.0,0.0,-0.6357051134109497,-0.7360647916793823
-0.0225532539188861,1.2391180992126465,-0.1054414734244346,-0.4890579879283905,-0.0872022435069084,-0.0981344208121299,0.0,0.0,-0.403367817401886,-0.373268723487854
-0.0236258506774902,1.2278507947921753,-0.1019132286310195,-0.5010908842086792,-0.0925185605883598,-0.1063353195786476,0.0,0.0,-0.4805864691734314,-0.6512012481689453
-0.0247063636779785,1.216323971748352,-0.1033343449234962,-0.5126006603240967,-0.0972116589546203,-0.0938703194260597,0.0,0.0,-0.7232192754745483,-0.4106428623199463
-0.0257538799196481,1.2045273780822754,-0.0996343269944191,-0.5246338248252869,-0.1022959128022193,-0.1016938239336013,0.0,0.0,0.1271686553955078,-0.921341598033905
-0.0266981124877929,1.1930092573165894,-0.0908027365803718,-0.5121752619743347,-0.105908028781414,-0.0722485482692718,0.0,0.0,-0.1498981118202209,-0.249627947807312
-0.0276076309382915,1.1812210083007812,-0.0869456082582473,-0.524212121963501,-0.109889343380928,-0.0796333402395248,0.0,0.0,-0.7132208943367004,-0.8598496317863464
-0.0285647399723529,1.169179081916809,-0.0934773236513137,-0.5353663563728333,-0.1121052205562591,-0.0443210899829864,0.0,0.0,-0.0211828351020813,-0.7460687160491943
-0.0295593254268169,1.1568617820739746,-0.0987478941679,-0.5474845767021179,-0.1128133460879325,-0.0141623709350824,0.0,0.0,-0.6745269298553467,-0.7877436876296997
-0.0305776596069335,1.1442898511886597,-0.1023665517568588,-0.5587125420570374,-0.1122849732637405,0.0105673400685191,0.0,0.0,-0.3987654447555542,-0.6787894368171692
-0.0316222198307514,1.1314659118652344,-0.1063308492302894,-0.5698166489601135,-0.1104166582226753,0.0373663827776908,0.0,0.0,-0.3270108699798584,-0.6425923705101013
-0.0326886177062988,1.118387222290039,-0.1098098158836364,-0.5810402631759644,-0.1072802692651748,0.062728002667427,0.0,0.0,-0.2819884419441223,0.1622154712677002
-0.0337153449654579,1.1050385236740112,-0.1055502519011497,-0.5930689573287964,-0.1044191345572471,0.0572223663330078,0.0,0.0,-0.8450132608413696,0.3790959119796753
-0.0347014442086219,1.091419696807861,-0.10123261064291,-0.605097234249115,-0.1018138155341148,0.0521064177155494,0.0,0.0,-0.7204828262329102,0.4867931604385376
-0.0356460586190223,1.077530860900879,-0.0968597903847694,-0.6171251535415649,-0.0994437485933303,0.0474015772342681,0.0,0.0,0.4384244680404663,0.8334136009216309
-0.0364937782287597,1.0644233226776123,-0.085163727402687,-0.5825271010398865,-0.0990508720278739,0.0078573208302259,0.0,0.0,-0.7459027171134949,-0.2579238414764404
-0.0372985824942588,1.051045536994934,-0.0806890279054641,-0.5945540070533752,-0.0988491624593734,0.0040343543514609,0.0,0.0,-0.9032446146011353,-0.5790237784385681
-0.0381042473018169,1.037405252456665,-0.0817266777157783,-0.6061593294143677,-0.0976916253566742,0.0231506433337926,0.0,0.0,-0.9040369987487792,0.0316164493560791
-0.0388656631112098,1.0234946012496948,-0.0771612375974655,-0.6181858777999878,-0.0966777056455612,0.0202783830463886,0.0,0.0,-0.8962796926498413,-0.0206491947174072
-0.0395821556448936,1.0093135833740234,-0.0725544244050979,-0.6302122473716736,-0.0957826003432273,0.0179019775241613,0.0,0.0,-0.8912842273712158,-0.3739612102508545
-0.0402532592415809,0.9948620796203612,-0.0679087787866592,-0.642238438129425,-0.0949809923768043,0.016031801700592,0.0,0.0,-0.8714569211006165,0.1143615245819091
-0.0408781059086322,0.980139970779419,-0.0632268190383911,-0.6542643308639526,-0.0942472293972969,0.0146752968430519,0.0,0.0,-0.9091615676879884,-0.8422256112098694
-0.0415193550288677,0.965157687664032,-0.0664395317435264,-0.6657425165176392,-0.0919551476836204,0.0458416268229484,0.0,0.0,-0.91201651096344,0.1011066436767578
-0.0421134009957313,0.9499046802520752,-0.0616922602057457,-0.6777684688568115,-0.0896790325641632,0.0455223880708217,0.0,0.0,-0.7636668086051941,0.0779515504837036
-0.0426594726741313,0.9343811869621276,-0.0569157823920249,-0.6897941827774048,-0.087393008172512,0.0457204394042491,0.0,0.0,-0.8773491382598877,0.1292309761047363
-0.0431571006774902,0.9185872077941896,-0.0521123483777046,-0.7018195986747742,-0.0850714668631553,0.0464307740330696,0.0,0.0,-0.8291698098182678,-0.0571789741516113
-0.0436059013009071,0.9025227427482604,-0.047284111380577,-0.713844895362854,-0.0826891958713531,0.0476454645395278,0.0,0.0,-0.7548569440841675,0.1269260644912719
-0.0440052971243858,0.8861875534057617,-0.0424331836402416,-0.7258700728416443,-0.0802215114235878,0.0493537113070488,0.0,0.0,-0.7011065483093262,-0.0381792783737182
-0.0443549156188964,0.8695818781852722,-0.0375616252422332,-0.7378951907157898,-0.0776444002985954,0.0515423119068145,0.0,0.0,-0.7681688070297241,-0.1483771800994873
-0.0446542724967002,0.8527055978775024,-0.0326714292168617,-0.7499202489852905,-0.0749346017837524,0.0541957803070545,0.0,0.0,-0.0413228869438171,-0.2353476881980896
-0.0449028983712196,0.8355584740638733,-0.0277645494788885,-0.7619453072547913,-0.0720697566866874,0.0572968423366546,0.0,0.0,-0.5405176281929016,0.6391779184341431
-0.0450610145926475,0.818142294883728,-0.0178799554705619,-0.7739577889442444,-0.0700193643569946,0.0410076566040515,0.0,0.0,-0.159932255744934,0.4016865491867065
-0.0451677329838275,0.8004554510116577,-0.0129453837871551,-0.7859823107719421,-0.0677720606327056,0.0449462607502937,0.0,0.0,-0.3765658140182495,0.55828857421875
-0.0451683029532432,0.7824921011924744,-0.001151853473857,-0.7983234524726868,-0.0666847601532936,0.0217457916587591,0.0,0.0,-0.5290201306343079,0.2885475158691406
-0.0451168045401573,0.7642579078674316,0.0038029893767088,-0.8103475570678711,-0.0653628185391426,0.0264393389225006,0.0,0.0,-0.1652880907058715,0.6361029148101807
-0.0449541099369525,0.7457435131072998,0.016197096556425,-0.8228538632392883,-0.0652859732508659,0.0015364708378911,0.0,0.0,-0.1593889594078064,0.2030164003372192
-0.0447390563786029,0.7269584536552429,0.0211649052798748,-0.8348776698112488,-0.0649409890174865,0.0068995454348623,0.0,0.0,-0.7503997087478638,-0.4107232093811035
-0.044471263885498,0.7079024910926819,0.0261364672333002,-0.8469014763832092,-0.0643127113580703,0.0125658111646771,0.0,0.0,-0.2988171577453613,0.3173333406448364
-0.0441508293151855,0.6885758638381958,0.0311099551618099,-0.8589252233505249,-0.0633869618177414,0.0185148324817419,0.0,0.0,-0.1308214664459228,0.3373119831085205
-0.0437774658203125,0.6689783930778503,0.0360835269093513,-0.8709490299224854,-0.0621506385505199,0.0247267726808786,0.0,0.0,-0.0157243013381958,0.0686969757080078
-0.0433511734008789,0.6491100192070007,0.0410553142428398,-0.8829728364944458,-0.0605914890766143,0.0311827752739191,0.0,0.0,0.2109390497207641,-0.3042078018188476
-0.0427804961800575,0.6298694014549255,0.05489007756114,-0.855050265789032,-0.0584449023008346,0.0429319366812706,0.0,0.0,-0.1888424754142761,0.1575658321380615
-0.0421567931771278,0.6103580594062805,0.0598525591194629,-0.8670743107795715,-0.0559537671506404,0.0498227179050445,0.0,0.0,0.2880133390426636,-0.3994312286376953
-0.0414238944649696,0.5910050272941589,0.0702210068702697,-0.8600239157676697,-0.052923809736967,0.060599036514759,0.0,0.0,0.5857527256011963,-0.233141541481018
-0.0406984314322471,0.5723973512649536,0.0695690438151359,-0.8269048929214478,-0.0499759577214717,0.058956790715456,0.0,0.0,0.109574556350708,0.0055967569351196
-0.0398196205496788,0.5540331602096558,0.0841352790594101,-0.8160660266876221,-0.0462731383740901,0.074056252837181,0.0,0.0,0.0779805183410644,-0.1300236582756042
-0.0388538353145122,0.5359965562820435,0.0923701673746109,-0.8015025854110718,-0.0421204045414924,0.0830549076199531,0.0,0.0,0.0096123218536376,-0.4074979424476623
-0.0378200523555278,0.5180562138557434,0.0987610667943954,-0.797224760055542,-0.0375598222017288,0.091211512684822,0.0,0.0,0.0233292579650878,-0.417729914188385
-0.0367962829768657,0.5003985166549683,0.0977186113595962,-0.7846797108650208,-0.0329618528485298,0.0919595211744308,0.0,0.0,0.7442755699157715,-0.6029481887817383
-0.0357131958007812,0.4838331043720245,0.1019676551222801,-0.7361112236976624,-0.0267036948353052,0.1251633167266845,0.0,0.0,-0.57835853099823,-0.3385162949562073
-0.0345776565372943,0.4669976234436035,0.1068082079291343,-0.748138964176178,-0.020042210817337,0.1332298815250396,0.0,0.0,-0.367654800415039,-0.6224471926689148
-0.0334366783499717,0.4499008655548095,0.1057305335998535,-0.7597683668136597,-0.0117896534502506,0.1650512665510177,0.0,0.0,0.5566352605819702,0.2815890312194824
-0.0323270782828331,0.4332048892974853,0.1025925129652023,-0.7420016527175903,-0.0035344043280929,0.165105253458023,0.0,0.0,0.6676845550537109,0.3488472700119018
-0.0312561020255088,0.4172649085521698,0.0987552925944328,-0.7084458470344543,0.0047091972082853,0.1648718267679214,0.0,0.0,0.2588557004928589,0.7777999639511108
-0.0300477035343647,0.4017685353755951,0.1136039718985557,-0.6887661218643188,0.0118564283475279,0.1429444402456283,0.0,0.0,0.0977873802185058,-0.199383795261383
-0.0288803093135356,0.3868425786495209,0.109463170170784,-0.6634523868560791,0.0190322697162628,0.1435169428586959,0.0,0.0,-0.4308210611343384,0.5548832416534424
-0.0276129730045795,0.3716481029987335,0.1202833801507949,-0.6754043698310852,0.0253978297114372,0.1273111850023269,0.0,0.0,0.3835220336914062,-0.0323938131332397
-0.0263319965451955,0.3566738665103912,0.1213563531637191,-0.6656529307365417,0.0320638008415699,0.1333194971084594,0.0,0.0,0.2680662870407104,-0.1236526370048523
-0.0249568931758403,0.3418063521385193,0.1300745010375976,-0.6609520316123962,0.039405096322298,0.1468258649110794,0.0,0.0,0.7065114974975586,0.0967953205108642
-0.0235789306461811,0.3271929025650024,0.1300777047872543,-0.6497098207473755,0.0470319613814353,0.1525374501943588,0.0,0.0,0.7826200723648071,0.6699028015136719
-0.0221493728458881,0.3136012554168701,0.1361654102802276,-0.6043012738227844,0.0537407025694847,0.1341748088598251,0.0,0.0,0.328671932220459,0.5610673427581787
-0.0205925945192575,0.3007374405860901,0.149425595998764,-0.5719639658927917,0.0599225834012031,0.123637355864048,0.0,0.0,-0.4518611431121826,-0.3758870363235473
-0.0189883224666118,0.2876039147377014,0.1537315100431442,-0.5839947462081909,0.066548079252243,0.1325100511312484,0.0,0.0,0.2596609592437744,-0.1562622785568237
-0.0174524299800395,0.2745689451694488,0.1469052284955978,-0.5796441435813904,0.0731629580259323,0.1322977840900421,0.0,0.0,0.7418897151947021,0.0366746187210083
-0.0158889777958393,0.2625159621238708,0.1490161418914795,-0.5360639691352844,0.0804223269224166,0.1451871544122696,0.0,0.0,-0.2305268049240112,-0.3476642370223999
-0.0142802242189645,0.2501936852931976,0.1530908644199371,-0.548096776008606,0.0881312415003776,0.1541785895824432,0.0,0.0,0.2873876094818115,0.0625604391098022
-0.0127161983400583,0.2383857369422912,0.148374393582344,-0.525294303894043,0.0960939824581146,0.1592547446489334,0.0,0.0,0.3443639278411865,0.7843270301818848
-0.0111126899719238,0.2271693795919418,0.1534585505723953,-0.4989637732505798,0.1029309630393982,0.1367396861314773,0.0,0.0,-0.0071907043457031,0.2436766624450683
-0.0094667430967092,0.2156837284564972,0.1572488397359848,-0.5109969973564148,0.1102227196097374,0.1458350270986557,0.0,0.0,0.5725170373916626,0.4727458953857422
-0.0077928542159497,0.2044184505939483,0.1594856977462768,-0.5012844204902649,0.1180752217769622,0.1570500284433365,0.0,0.0,0.3724033832550049,0.8087694644927979
-0.0059678079560399,0.1934029459953308,0.1756583899259567,-0.4901332855224609,0.1248817816376686,0.1361312121152877,0.0,0.0,0.2528705596923828,0.3565022945404053
-0.0040471078827977,0.1827837526798248,0.1842622756958007,-0.4726392924785614,0.1326639354228973,0.1556431949138641,0.0,0.0,0.6188106536865234,0.3605891466140747
-0.0020042420364916,0.1724973767995834,0.1953714936971664,-0.4579905569553375,0.1415388882160186,0.1774990707635879,0.0,0.0,0.0651744604110717,0.1431915760040283
2.956390289909905e-06,0.1626608222723007,0.1913727819919586,-0.4380927085876465,0.1508593410253524,0.1864092051982879,0.0,0.0,0.028733491897583,-0.6657166481018066
0.0019431114196777,0.1532546430826187,0.1828724592924118,-0.4192225039005279,0.1619933098554611,0.2226794511079788,0.0,0.0,-0.0111386775970458,0.3842799663543701
0.00391645450145,0.1435805857181549,0.1857503652572631,-0.4312644302845001,0.1735925376415252,0.2319844663143158,0.0,0.0,-0.0522282719612121,0.5517261028289795
0.0059722899459302,0.1336460411548614,0.1948333829641342,-0.4428251385688782,0.1843710094690323,0.2155694216489792,0.0,0.0,0.7945375442504883,-0.0744687914848327
0.0079004289582371,0.1242436468601226,0.1818909049034118,-0.4192814826965332,0.1953535974025726,0.2196517288684845,0.0,0.0,0.5241646766662598,-0.4469637870788574
0.0097787855193018,0.1157675087451934,0.1761082708835601,-0.3783066570758819,0.2071669101715088,0.2362662255764007,0.0,0.0,0.1037603616714477,-0.2010032534599304
0.0115898130461573,0.1075774058699607,0.1690126955509185,-0.3657483756542206,0.2193790525197982,0.2442429065704345,0.0,0.0,0.1873180866241455,-0.2751280069351196
0.0132132526487112,0.0999278128147125,0.1502345353364944,-0.341831237077713,0.2316498011350631,0.2454151213169098,0.0,0.0,0.1840418577194214,0.1035314798355102
0.0148048400878906,0.0927628874778747,0.1463175117969513,-0.3205164074897766,0.2446827590465545,0.260659247636795,0.0,0.0,-0.0773607492446899,0.5877780914306641
0.0164565090090036,0.085350401699543,0.1529756188392639,-0.3315224647521972,0.2571055591106415,0.2484560012817382,0.0,0.0,0.3339039087295532,0.5431932210922241
0.0179426185786724,0.0785403102636337,0.1372285187244415,-0.3047131896018982,0.2687444984912872,0.2327790558338165,0.0,0.0,0.1052733659744262,0.2649710178375244
0.0193397514522075,0.0719382166862487,0.1279725432395935,-0.2956284284591675,0.2807841598987579,0.2407931983470916,0.0,0.0,0.1298404932022094,0.0632733106613159
0.0205594059079885,0.0656287968158721,0.1101554781198501,-0.2827363014221191,0.2929337322711944,0.2429914027452469,0.0,0.0,0.4364011287689209,0.6875970363616943
0.0215722080320119,0.0596657842397689,0.0906516537070274,-0.2672005593776703,0.3039115667343139,0.2195566594600677,0.0,0.0,0.2268751859664917,0.8360295295715332
0.0225815773010253,0.0542738996446132,0.0914620757102966,-0.2416470795869827,0.3137282431125641,0.1963337957859039,0.0,0.0,0.0417876243591308,-0.1441128253936767
0.0235618595033884,0.0489647723734378,0.0879436582326889,-0.238179937005043,0.3242064416408539,0.2095638513565063,0.0,0.0,-0.3774884939193725,0.5948104858398438
0.024599552154541,0.0434203967452049,0.0947019085288047,-0.248474508523941,0.33365598320961,0.1889916509389877,0.0,0.0,0.2310401201248169,0.5404787063598633
0.0254702568054199,0.0384440757334232,0.0786660462617874,-0.223134696483612,0.3424429893493652,0.1757408082485199,0.0,0.0,0.0593242645263671,-0.004514992237091
0.0262414924800395,0.034020647406578,0.067880168557167,-0.1988217979669571,0.3521387577056885,0.1939161717891693,0.0,1.0,0.9956252574920654,0.9871845245361328
0.0269454009830951,0.0311124175786972,0.0716659054160118,-0.1296671777963638,0.3487459123134613,-0.070901446044445,0.0,1.0,0.8683998584747314,0.9745795726776124
0.0272955894470214,0.0298816058784723,0.0529826357960701,-0.0505101643502712,0.3298158943653106,-0.3787712752819061,0.0,1.0,0.8213739395141602,0.5493664741516113
0.0273942947387695,0.0299162957817316,0.0354717001318931,0.0071228086017072,0.3031393587589264,-0.5336453318595886,0.0,1.0,0.2026861906051635,0.1268839836120605
0.0274702068418264,0.0301712844520807,0.0320969931781291,0.0162334255874156,0.277859628200531,-0.5056233406066895,0.0,1.0,-0.2756677865982055,0.1133656501770019
0.0275495536625385,0.0301597695797681,0.0324001424014568,0.0039361049421131,0.2528142929077148,-0.5009263753890991,0.0,0.0,-0.9993244409561156,0.1123087406158447
0.0276239402592182,0.0298875421285629,0.031583022326231,-0.0081339571624994,0.2282558381557464,-0.4911884367465973,0.0,0.0,-0.9976121187210084,-0.0719263553619384
0.0276989936828613,0.0293456651270389,0.0309055931866168,-0.0206325557082891,0.2045873999595642,-0.4733687043190002,0.0,0.0,-0.9974356889724731,0.5400092601776123
0.0278077125549316,0.0285545215010643,0.0350455716252327,-0.0319976285099983,0.1802763938903808,-0.4862204194068908,0.0,0.0,-0.993273377418518,0.1851085424423217
0.0279043205082416,0.0275016650557518,0.0334453657269477,-0.0440788306295871,0.1564551144838333,-0.4764259755611419,0.0,0.0,-0.9844335317611694,-0.0359675884246826
0.0279865264892578,0.0261865239590406,0.0315994583070278,-0.0561573430895805,0.1331239491701126,-0.4666236937046051,0.0,0.0,-0.9718583822250366,0.0034595727920532
0.0280520431697368,0.0246087405830621,0.0295132063329219,-0.0682331845164299,0.1102831587195396,-0.4568155407905578,0.0,0.0,-0.924780249595642,0.1643694639205932
0.0280986782163381,0.022767886519432,0.0271928049623966,-0.0803063660860061,0.0879330039024353,-0.447003036737442,0.0,0.0,-0.823466956615448,-0.0800148248672485
