x_pos,y_pos,x_vel,y_vel,angle,ang_vel,leg_1,leg_2,main_booster,lat_booster
-0.0015913009410724,1.4031938314437866,-0.1606678515672683,-0.3433893620967865,0.001378791523166,0.0271695703268051,0.0,0.0,-0.1896026134490966,0.7224297523498535
-0.0031900405883789,1.3950567245483398,-0.1592573970556259,-0.361649602651596,0.0007621861295774,-0.0123325679451227,0.0,0.0,-0.0396270155906677,0.9136340618133544
-0.00477094668895,1.3864818811416626,-0.1548610627651214,-0.3811014294624328,-0.0024383168201893,-0.064016118645668,0.0,0.0,-0.054027259349823,0.2712545394897461
-0.0064225196838378,1.377476692199707,-0.1615735292434692,-0.4002443552017212,-0.0059838509187102,-0.0709168165922164,0.0,0.0,-0.3462907075881958,0.8427283763885498
-0.0080649377778172,1.368043065071106,-0.1583026349544525,-0.419307142496109,-0.0118656596168875,-0.1176467388868331,0.0,0.0,0.1697847843170166,0.5733252763748169
-0.0096223829314112,1.358752727508545,-0.148571103811264,-0.4129787683486938,-0.0189517270773649,-0.1417345851659774,0.0,0.0,0.2030184268951416,0.1775797605514526
-0.0112607954069972,1.349663496017456,-0.1563498824834823,-0.404077798128128,-0.0263569690287113,-0.1481183767318725,0.0,0.0,-0.0540717244148254,0.5842524766921997
-0.0129148485139012,1.3401440382003784,-0.1562524437904358,-0.4232747256755829,-0.0354082584381103,-0.1810424476861953,0.0,0.0,-0.4597866535186767,0.5184704065322876
-0.0146020893007516,1.3301987648010254,-0.1584037244319915,-0.4422857463359833,-0.0456282682716846,-0.2044193744659423,0.0,0.0,-0.2046560049057006,0.4708499908447265
-0.016363238915801,1.3198243379592896,-0.1656602919101715,-0.461432933807373,-0.0559712052345275,-0.2068778574466705,0.0,0.0,-0.0424652099609375,0.5057103633880615
-0.0181528087705373,1.309017539024353,-0.167283147573471,-0.4807776510715484,-0.0675424486398696,-0.2314462959766388,0.0,0.0,0.2778393030166626,0.429577112197876
-0.0199345592409372,1.298387885093689,-0.1667181849479675,-0.4729857444763183,-0.0788941010832786,-0.2270539253950119,0.0,0.0,-0.1855994462966919,0.7330825328826904
-0.0217204093933105,1.2873249053955078,-0.1653584539890289,-0.4924376904964447,-0.0920128226280212,-0.2623981833457947,0.0,0.0,0.1812776327133178,0.5293552875518799
-0.0234620086848735,1.2761949300765991,-0.1600552052259445,-0.4955952763557434,-0.1060262620449066,-0.2802946269512176,0.0,0.0,-0.0913707613945007,0.1174218654632568
-0.0252779964357614,1.2646366357803345,-0.1675945222377777,-0.5147532820701599,-0.1199511513113975,-0.2785232663154602,0.0,0.0,-0.5143018960952759,0.6453368663787842
-0.0271089561283588,1.2526321411132812,-0.1677345484495163,-0.5348438620567322,-0.1352670490741729,-0.3063460290431976,0.0,0.0,-0.1666648387908935,-0.4560176134109497
-0.0290140155702829,1.2401996850967407,-0.1753380298614502,-0.5540024042129517,-0.1504084169864654,-0.3028548955917358,0.0,0.0,-0.3945430517196655,-0.6617677211761475
-0.0310329440981149,1.2273422479629517,-0.1879715174436569,-0.5729072690010071,-0.1643284410238266,-0.2784254848957062,0.0,0.0,0.4656434059143066,-0.6680652499198914
-0.0329666137695312,1.2151052951812744,-0.1812775433063507,-0.5452393293380737,-0.1764651834964752,-0.2427567690610885,0.0,0.0,0.0663936138153076,-0.4554609060287475
-0.0349609367549419,1.2029920816421509,-0.1874064803123474,-0.5398408770561218,-0.1885499656200409,-0.2417174279689788,0.0,0.0,0.0782886743545532,-0.4463368654251098
-0.036854363977909,1.1911487579345703,-0.1780703961849212,-0.5278470516204834,-0.1999111473560333,-0.2272443771362304,0.0,0.0,0.2274572849273681,-0.5446071028709412
-0.0387884154915809,1.1793652772903442,-0.1836124211549759,-0.525061845779419,-0.2097906321287155,-0.197607159614563,0.0,0.0,-0.1101499795913696,-0.7080236673355103
-0.040837574750185,1.167163610458374,-0.1966542303562164,-0.5434837341308594,-0.21814726293087,-0.1671477109193802,0.0,0.0,0.2009186744689941,-0.0427397489547729
-0.0428597442805767,1.1548467874526978,-0.1946321278810501,-0.548551619052887,-0.225827008485794,-0.1536085605621338,0.0,0.0,0.5377748012542725,-0.6032813191413879
-0.0450046546757221,1.1430399417877195,-0.2082722634077072,-0.5257121920585632,-0.2321423441171646,-0.1263180673122406,0.0,0.0,0.7048332691192627,-0.1514208316802978
-0.0472024902701377,1.1318929195404053,-0.2133791893720626,-0.4964426755905151,-0.238649308681488,-0.1301389634609222,0.0,0.0,-0.0415418148040771,0.5564087629318237
-0.0494266524910926,1.1203020811080933,-0.2154278010129928,-0.516299307346344,-0.245751067996025,-0.1420347690582275,0.0,0.0,-0.196866750717163,-0.3285000920295715
-0.0517195686697959,1.1082794666290283,-0.2228736877441406,-0.5354291200637817,-0.2522937059402466,-0.1308525651693344,0.0,0.0,-0.1255967020988464,-0.1638206243515014
-0.0540804862976074,1.0958247184753418,-0.2302480936050415,-0.5545575618743896,-0.2582521438598633,-0.1191686764359474,0.0,0.0,0.7118467092514038,0.0834619998931884
-0.0564002022147178,1.0836788415908811,-0.2266428917646408,-0.5407685041427612,-0.2637036740779876,-0.109030582010746,0.0,0.0,0.8605003356933594,0.5667717456817627
-0.0584712997078895,1.0724610090255735,-0.2013368606567382,-0.4996147155761719,-0.2696056067943573,-0.1180391311645507,0.0,0.0,-0.268326997756958,-0.3727744221687317
-0.0606068596243858,1.0608108043670654,-0.2084384709596634,-0.5187402367591858,-0.2748582661151886,-0.1050532460212707,0.0,0.0,0.2323137521743774,0.1183366775512695
-0.0627028495073318,1.0496163368225098,-0.2048483341932296,-0.4984373450279236,-0.2797280550003052,-0.0973955765366554,0.0,0.0,0.2206107378005981,-0.7507200241088867
-0.0648965835571289,1.0384130477905271,-0.2167249619960785,-0.498433917760849,-0.2824534177780151,-0.0545070692896842,0.0,0.0,0.7949308156967163,-0.6787925958633423
-0.0669937133789062,1.0277739763259888,-0.2091233730316162,-0.4729603230953216,-0.2830550670623779,-0.0120330937206745,0.0,0.0,0.268413782119751,-0.369481086730957
-0.0689741149544715,1.017532229423523,-0.1982180178165435,-0.4551576375961303,-0.2828776240348816,0.0035485881380736,0.0,0.0,0.798139214515686,-0.24589604139328
-0.0709010139107704,1.0075829029083252,-0.1934363096952438,-0.4420484900474548,-0.2821048498153686,0.0154556687921285,0.0,0.0,0.3528013229370117,0.7279841899871826
-0.0726201981306076,0.9980649948120116,-0.1720121502876281,-0.4229980409145355,-0.2820140123367309,0.001816825941205,0.0,0.0,0.8840281963348389,0.133100152015686
-0.0741687789559364,0.9895168542861938,-0.1554707437753677,-0.3797974288463592,-0.2813808917999267,0.0126622868701815,0.0,0.0,-0.0406211018562316,-0.408206582069397
-0.0757689476013183,0.9805353879928588,-0.1613744646310806,-0.3989169299602508,-0.2799884080886841,0.0278497785329818,0.0,0.0,-0.0560590028762817,0.3936936855316162
-0.0774186104536056,0.9711205959320068,-0.1670764088630676,-0.4180364906787872,-0.2778279483318329,0.0432089567184448,0.0,0.0,0.1860044002532959,0.2349828481674194
-0.0789273232221603,0.9617781043052672,-0.1541351228952407,-0.4146078824996948,-0.2744820415973663,0.0669183731079101,0.0,0.0,-0.3945876955986023,-0.4336789846420288
-0.0804810523986816,0.952002227306366,-0.1593965590000152,-0.4337281882762909,-0.2703536748886108,0.0825675129890441,0.0,0.0,-0.5155619382858276,-0.3171772956848144
-0.082077220082283,0.9417933821678162,-0.1644189208745956,-0.4528490900993347,-0.2654367983341217,0.0983373597264289,0.0,0.0,-0.1077775955200195,0.1656494140625
-0.0837132483720779,0.931151568889618,-0.169189453125,-0.4719707667827606,-0.2597261369228363,0.1142132133245468,0.0,0.0,-0.8876911401748657,0.4802298545837402
-0.0853863731026649,0.9200767874717712,-0.1736953258514404,-0.4910934269428253,-0.2532171010971069,0.1301813721656799,0.0,0.0,-0.1666646599769592,0.04296875
-0.0870939269661903,0.9085695147514344,-0.1779236942529678,-0.5102171897888184,-0.2459056377410888,0.1462291330099105,0.0,0.0,-0.6478073000907898,0.8981567621231079
-0.0887751579284668,0.8966180086135864,-0.1746673732995987,-0.5301039814949036,-0.2392557114362716,0.1329989433288574,0.0,0.0,-0.9064854383468628,0.5714858770370483
-0.0904497131705284,0.8842262029647827,-0.1739220172166824,-0.5497101545333862,-0.2326921969652176,0.1312700361013412,0.0,0.0,-0.2189019918441772,0.3472272157669067
-0.0921493545174598,0.8714019656181335,-0.177239716053009,-0.5688351392745972,-0.2253177314996719,0.1474889069795608,0.0,0.0,0.286812424659729,0.7261136770248413
-0.0935933142900466,0.8587343096733093,-0.1512085497379303,-0.5619841814041138,-0.2184253484010696,0.1378477960824966,0.0,0.0,-0.7818472981452942,-0.2641557455062866
-0.0950555801391601,0.8456342816352844,-0.1538563221693039,-0.5811102986335754,-0.2107187658548355,0.1541317850351333,0.0,0.0,-0.8943890333175659,0.679334282875061
-0.0964712128043174,0.8320786356925964,-0.1484075039625167,-0.6015141010284424,-0.2038144171237945,0.1380870044231414,0.0,0.0,-0.8626394271850586,-0.0932024717330932
-0.0978980064392089,0.818091094493866,-0.1503374278545379,-0.6206413507461548,-0.1960942596197128,0.1544032394886016,0.0,0.0,-0.9548195600509644,0.6060636043548584
-0.0992737784981727,0.8036516308784485,-0.1445562094449997,-0.640845000743866,-0.1890781074762344,0.1403226405382156,0.0,0.0,-0.386324942111969,-0.2248841524124145
-0.1006529778242111,0.7887803316116333,-0.1457241177558899,-0.6599732637405396,-0.1812459677457809,0.1566428542137146,0.0,0.0,-0.1105762720108032,0.4182298183441162
-0.1020318046212196,0.7734772562980652,-0.1464962065219879,-0.6791030764579773,-0.1725981831550598,0.1729556173086166,0.0,0.0,-0.8404881358146667,0.6251633167266846
-0.1033457741141319,0.7577296495437622,-0.1393159925937652,-0.6989972591400146,-0.1646738797426223,0.1584858298301696,0.0,0.0,-0.4310637712478637,0.783109188079834
-0.1045815497636795,0.7415412664413452,-0.1305574923753738,-0.718730092048645,-0.1576937586069107,0.1396026164293289,0.0,0.0,-0.3493527173995971,0.251605749130249
-0.105804443359375,0.7249212861061096,-0.1300898641347885,-0.7378605604171753,-0.1499006599187851,0.1558620333671569,0.0,0.0,0.5456482172012329,0.6981854438781738
-0.1068524345755577,0.7083535194396973,-0.1121276766061782,-0.7356252670288086,-0.1425929516553878,0.1461541205644607,0.0,0.0,-0.0002609491348266,0.5630483627319336
-0.1078420653939247,0.6913493275642395,-0.1061596423387527,-0.7550699710845947,-0.1354119181632995,0.1436206698417663,0.0,0.0,0.8632173538208008,0.7573986053466797
-0.1085177436470985,0.674735963344574,-0.0744009539484977,-0.7377699613571167,-0.128602921962738,0.1361795365810394,0.0,0.0,0.7150418758392334,0.4297606945037842
-0.1090572327375412,0.6586331129074097,-0.0617226883769035,-0.7150329947471619,-0.1208742931485176,0.1545727849006652,0.0,0.0,0.2287684679031372,0.7828094959259033
-0.109458640217781,0.6425248384475708,-0.047160618007183,-0.7153698801994324,-0.1138997673988342,0.1394905745983123,0.0,0.0,0.0509538650512695,0.50156569480896
-0.1098253279924392,0.626554012298584,-0.0433231256902217,-0.7093204259872437,-0.1072821244597435,0.1323527991771698,0.0,0.0,-0.2357739210128784,0.7468771934509277
-0.110087014734745,0.6101507544517517,-0.0320957973599433,-0.7286175489425659,-0.1014039292931556,0.1175640448927879,0.0,0.0,0.5695524215698242,0.7273542881011963
-0.1101307868957519,0.5937005877494812,-0.0098129780963063,-0.7307637929916382,-0.0960184410214424,0.1077098697423935,0.0,0.0,0.3682799339294433,0.4866513013839721
-0.1100324615836143,0.5778716206550598,0.0034955299925059,-0.7031167149543762,-0.0897340551018714,0.1256878226995468,0.0,0.0,0.313136339187622,0.7445056438446045
-0.1098691970109939,0.5621737837791443,0.0107969809323549,-0.6973608136177063,-0.0842556729912757,0.1095673590898513,0.0,0.0,0.7914795875549316,0.765674352645874
-0.1096313446760177,0.547151505947113,0.0192227996885776,-0.6674073934555054,-0.0797394886612892,0.0903236716985702,0.0,0.0,-0.0926450490951538,0.4482450485229492
-0.1093287467956543,0.5316981673240662,0.0249049849808216,-0.6865409016609192,-0.0744355842471122,0.1060779467225074,0.0,0.0,0.3889157772064209,0.7587199211120605
-0.1089648231863975,0.5168910026550293,0.031935878098011,-0.6578802466392517,-0.0700330510735511,0.0880507677793502,0.0,0.0,-0.1749393939971923,0.5899307727813721
-0.1084758788347244,0.5016472935676575,0.0449903570115566,-0.6773210763931274,-0.0661660656332969,0.0773397833108902,0.0,0.0,0.5022308826446533,-0.0210978388786315
-0.1079171150922775,0.4865078032016754,0.0513186678290367,-0.6726711392402649,-0.0616611205041408,0.0900990143418312,0.0,0.0,0.926834225654602,-0.0844615697860717
-0.1071752533316612,0.4714977443218231,0.0684762001037597,-0.6668903231620789,-0.0560122169554233,0.112977959215641,0.0,0.0,0.4358409643173218,0.3414336442947387
-0.1063599586486816,0.4565010368824005,0.0751628801226615,-0.6662935614585876,-0.04971594363451,0.1259252429008484,0.0,0.0,0.7972416877746582,-0.0731979012489318
-0.1054229736328125,0.4423672258853912,0.0865959152579307,-0.6279494166374207,-0.0426900759339332,0.1405173391103744,0.0,0.0,0.1324291229248047,0.7334072589874268
-0.1042499542236328,0.4286405444145202,0.110830046236515,-0.6099030375480652,-0.0362934730947017,0.1279320269823074,0.0,0.0,-0.2686778306961059,0.7150295972824097
-0.1029359847307205,0.414488136768341,0.1253149211406707,-0.6288617253303528,-0.030287055298686,0.1201282888650894,0.0,0.0,-0.2792731523513794,0.1384164094924926
-0.101524069905281,0.3999053537845611,0.1343327760696411,-0.6480000019073486,-0.0235171131789684,0.1353989243507385,0.0,0.0,0.0925636291503906,0.4511163234710693
-0.0999721512198448,0.3856754899024963,0.1474343538284301,-0.6323385238647461,-0.0158629640936851,0.1530832201242447,0.0,0.0,0.2608735561370849,0.8047215938568115
-0.0983337387442588,0.3716747760772705,0.1570341885089874,-0.6221974492073059,-0.0091395350173115,0.1344684362411499,0.0,0.0,-0.0019105076789855,0.4690457582473755
-0.0965885147452354,0.3572441339492798,0.1669448465108871,-0.6413378119468689,-0.0016607678262516,0.1495748907327652,0.0,0.0,0.6956369876861572,0.4013932943344116
-0.0947449654340744,0.3434601724147796,0.1760784238576889,-0.6126328706741333,0.0065137664787471,0.1634908020496368,0.0,0.0,0.1801037788391113,0.6022837162017822
-0.0926752090454101,0.3298711776733398,0.199032723903656,-0.6040112376213074,0.0143550354987382,0.1568254083395004,0.0,0.0,0.3457766771316528,-0.4325487017631531
-0.0904757529497146,0.3162713050842285,0.2111599147319793,-0.6045501232147217,0.0230325646698474,0.1735505163669586,0.0,0.0,0.6407780647277832,0.2801665067672729
-0.0880765914916992,0.3028449416160583,0.2299389094114303,-0.5969087481498718,0.0328802801668643,0.1969543695449829,0.0,0.0,0.7553578615188599,0.1864124536514282
-0.0854222327470779,0.2899070978164673,0.2539786398410797,-0.5753030776977539,0.0441921837627887,0.2262382209300995,0.0,0.0,0.5137550830841064,0.555079460144043
-0.0824811905622482,0.2770900726318359,0.2826895117759704,-0.5700171589851379,0.0554736629128456,0.2256292551755905,0.0,0.0,0.1285344362258911,-0.6464440822601318
-0.0795013457536697,0.2646138072013855,0.2845388352870941,-0.5550538301467896,0.0687699094414711,0.2659249603748321,0.0,0.0,0.2699198722839355,-0.0499436259269714
-0.0764132514595985,0.2525850534439087,0.2945306301116943,-0.535327136516571,0.0829080417752265,0.2827630043029785,0.0,0.0,0.7097173929214478,-0.2126218676567077
-0.0731275528669357,0.2411773800849914,0.3129691481590271,-0.5079445838928223,0.0983709245920181,0.3092575073242187,0.0,0.0,0.3792223930358886,0.2362651824951172
-0.0696570426225662,0.2297626137733459,0.3303569555282593,-0.5085024833679199,0.1149484291672706,0.3315499722957611,0.0,0.0,0.6898465156555176,0.1520936489105224
-0.0661704093217849,0.2186891585588455,0.3315293490886688,-0.49356609582901,0.1319989711046219,0.3410107791423797,0.0,0.0,0.5873079299926758,-0.1490345001220703
-0.0625815391540527,0.2084390521049499,0.3406856954097748,-0.4572739005088806,0.1501436084508896,0.3628925383090973,0.0,0.0,0.5535008907318115,-0.0670492649078369
-0.058962631970644,0.1985529959201812,0.3431351482868194,-0.4413798451423645,0.1689009368419647,0.3751465678215027,0.0,0.0,0.4641506671905517,-0.1697765588760376
-0.0554377548396587,0.1892571747303009,0.3335734009742737,-0.4154031574726105,0.1878582388162613,0.3791459500789642,0.0,0.0,0.1749063730239868,0.071235179901123
-0.0518107414245605,0.1802862286567688,0.342872679233551,-0.4013436436653137,0.207807645201683,0.3989880681037903,0.0,0.0,0.1848893165588379,-0.179381787776947
-0.0481974594295024,0.1716698259115219,0.3410760760307312,-0.3859283030033111,0.228280708193779,0.4094613194465637,0.0,0.0,0.3429343700408935,-0.269638180732727
-0.0446516051888465,0.1634969562292099,0.3340515494346618,-0.3665553331375122,0.2491391748189926,0.4171692430973053,0.0,0.0,0.0284076929092407,0.2492319345474243
-0.0410606376826763,0.155346468091011,0.3380700051784515,-0.3659577667713165,0.2706173062324524,0.4295627176761627,0.0,0.0,0.3475518226623535,0.3550684452056885
-0.0375553146004676,0.1474446207284927,0.3294032216072082,-0.3552519381046295,0.2923410832881927,0.4344756603240967,0.0,0.0,0.4086246490478515,-0.0084579586982727
-0.0341633781790733,0.1397067606449127,0.318096786737442,-0.3482855558395386,0.3141513466835022,0.4362047612667084,0.0,0.0,0.2595312595367431,0.5689752101898193
-0.0306760780513286,0.1323937773704528,0.3280960917472839,-0.3296446800231933,0.33564093708992,0.4297915995121002,0.0,0.0,0.1666139364242553,0.3244611024856567
-0.0270946510136127,0.1250494569540023,0.3368411660194397,-0.331529825925827,0.3579975962638855,0.4471327662467956,0.0,0.0,0.4691303968429565,0.4215736389160156
-0.0234906189143657,0.1183050945401191,0.3380855023860931,-0.3054932355880737,0.3816100358963012,0.4722487330436706,0.0,0.0,0.5884921550750732,0.4422683715820312
-0.0200452804565429,0.1121668443083763,0.321922093629837,-0.2790504097938537,0.4057718515396118,0.4832361340522766,0.0,0.0,0.0514875650405883,0.637115478515625
-0.0165363308042287,0.1064550280570983,0.3290431201457977,-0.2603000104427337,0.4293545186519623,0.471653550863266,0.0,0.0,0.033953309059143,0.444695234298706
-0.0129947662353515,0.1008477061986923,0.331766277551651,-0.2562510371208191,0.453791081905365,0.4887312054634094,0.0,0.0,0.1215459108352661,0.7854397296905518
-0.0095077510923147,0.0956112444400787,0.327496588230133,-0.2398115545511245,0.4771947562694549,0.468074083328247,0.0,0.0,0.0495990514755249,0.6276109218597412
-0.0060292244888842,0.0906895026564598,0.3274995684623718,-0.2259363085031509,0.4999297857284546,0.4547008574008941,0.0,0.0,0.301570177078247,0.5774682760238647
-0.0024810791946947,0.0859022215008735,0.3351292610168457,-0.2201007008552551,0.5221813321113586,0.44503054022789,0.0,0.0,0.4698485136032104,0.5700259208679199
0.0008700370672158,0.0813549160957336,0.3164545893669128,-0.2094216346740722,0.5435518026351929,0.4274096488952636,0.0,0.0,0.2351965904235839,0.9068326950073242
0.0041301725432276,0.0768465846776962,0.3087809383869171,-0.2074543684720993,0.5635351538658142,0.399666965007782,0.0,0.0,0.4166672229766845,0.9404640197753906
0.0073184012435376,0.0725700706243515,0.3030504584312439,-0.1968362629413604,0.5820512771606445,0.3703222572803497,0.0,0.0,0.6044356822967529,0.9114217758178712
0.0104476930573582,0.0685999020934104,0.2985016703605652,-0.1828870773315429,0.5991849303245544,0.3426728844642639,0.0,0.0,0.3002722263336181,0.9571387767791748
0.0137229915708303,0.0647129863500595,0.3145106434822082,-0.1787688583135604,0.6148192286491394,0.3126855194568634,0.0,0.0,0.1989762783050537,0.9691818952560424
0.0169822685420513,0.0611500851809978,0.3143873810768127,-0.1638638377189636,0.6288385987281799,0.2803873419761657,0.0,0.0,0.1626073122024536,0.8836953639984131
0.0200251583009958,0.0590199083089828,0.3076024651527405,-0.0932387858629226,0.6245039701461792,-0.0872469022870063,0.0,1.0,0.9808542728424072,0.993779182434082
0.0227519981563091,0.0577029101550579,0.292257010936737,-0.0497901923954486,0.6000056862831116,-0.4915318489074707,0.0,1.0,0.9912477731704712,-0.5408170223236084
