x_pos,y_pos,x_vel,y_vel,angle,ang_vel,leg_1,leg_2,main_booster,lat_booster
-0.0015287399291992,1.4032485485076904,-0.1549507975578308,-0.3409611582756042,0.0018542963080108,0.0365845635533332,0.0,0.0,-0.4760454893112182,0.6917288303375244
-0.0030042647849768,1.3952208757400513,-0.1479525566101074,-0.3567850887775421,0.0022503084037452,0.0079215560108423,0.0,0.0,0.102992296218872,0.7859256267547607
-0.0043217660859227,1.3872162103652954,-0.1307274848222732,-0.3557653129100799,0.0012457016855478,-0.0200939401984214,0.0,0.0,-0.1343052387237548,0.868079662322998
-0.0055906297639012,1.3788326978683472,-0.1245437711477279,-0.3726034164428711,-0.0010725266765803,-0.0463686399161815,0.0,0.0,0.1090865135192871,-0.1785675287246704
-0.0067790984176099,1.370729684829712,-0.1169737577438354,-0.3601346611976623,-0.0029156692326068,-0.0368665717542171,0.0,0.0,0.0397045612335205,0.5685533285140991
-0.0078321453183889,1.3627618551254272,-0.1025147885084152,-0.3541318774223327,-0.005671992432326,-0.0551314167678356,0.0,0.0,-0.2063484191894531,-0.0535308718681335
-0.0088923452422022,1.354418158531189,-0.1032875776290893,-0.3708448410034179,-0.0083766477182507,-0.0540979988873004,0.0,0.0,-0.6572961807250977,0.099176287651062
-0.0099600795656442,1.345698595046997,-0.1040865555405616,-0.3875547647476196,-0.0110346591100096,-0.0531651303172111,0.0,0.0,-0.5028994679450989,0.1169406175613403
-0.0110357282683253,1.3366032838821411,-0.1049097999930381,-0.4042652249336242,-0.0136502599343657,-0.0523171052336692,0.0,0.0,-0.3491051197052002,0.3650140762329101
-0.0121193882077932,1.3271318674087524,-0.1057561784982681,-0.4209765493869781,-0.0162277892231941,-0.0515554025769233,0.0,0.0,-0.2960035800933838,0.0912078619003295
-0.0132113453000783,1.3172844648361206,-0.1066238433122634,-0.4376879632472992,-0.0187714621424675,-0.05087810754776,0.0,0.0,-0.5552664995193481,0.2863756418228149
-0.0143118854612112,1.3070613145828247,-0.1075113788247108,-0.454399436712265,-0.0212854128330945,-0.0502835288643837,0.0,0.0,-0.1572228670120239,-0.0326312184333801
-0.0154211996123194,1.2964622974395752,-0.1084174364805221,-0.4711109101772308,-0.0237736441195011,-0.0497693978250026,0.0,0.0,-0.4506734013557434,0.6529111862182617
-0.0164821632206439,1.2854790687561035,-0.1021525710821151,-0.4882067739963531,-0.0276838093996047,-0.0782104805111885,0.0,0.0,0.1390143632888794,-0.8157635927200317
-0.0174885746091604,1.2749786376953125,-0.098419614136219,-0.4667253494262695,-0.0298764463514089,-0.0438567176461219,0.0,0.0,-0.338854432106018,-0.0914820432662963
-0.0185044296085834,1.2641022205352783,-0.0993750840425491,-0.4834433794021606,-0.032056026160717,-0.043595440685749,0.0,0.0,-0.5426018238067627,-0.6292563676834106
-0.0195679664611816,1.2528589963912964,-0.1051320284605026,-0.4997233748435974,-0.0332600735127925,-0.0240833442658185,0.0,0.0,0.4909908771514892,0.8510705232620239
-0.020418643951416,1.2417290210723877,-0.0823501795530319,-0.4947285056114197,-0.0359446965157985,-0.053697220981121,0.0,0.0,-0.8975269198417664,-0.7043981552124023
-0.0213255882263183,1.2302321195602417,-0.0891766995191574,-0.5110088586807251,-0.0374502129852771,-0.0301134847104549,0.0,0.0,-0.5107539892196655,-0.07157564163208
-0.0222426410764455,1.218359351158142,-0.0901826843619346,-0.5277186036109924,-0.0389554984867572,-0.0301084369421005,0.0,0.0,-0.2046079635620117,-0.2077881693840026
-0.0231698993593454,1.2061107158660889,-0.0911982208490371,-0.5444292426109314,-0.0404625236988067,-0.0301435496658086,0.0,0.0,-0.0678197741508483,-0.0404194593429565
-0.0241074562072753,1.1934858560562134,-0.0922232419252395,-0.5611408352851868,-0.0419742614030838,-0.0302372872829437,0.0,0.0,-0.5883997082710266,-0.6949217915534973
-0.0250985138118267,1.1804869174957275,-0.0986627489328384,-0.5777440667152405,-0.0424094870686531,-0.0087054688483476,0.0,0.0,0.0498847961425781,-0.0009456872940063
-0.0260473247617483,1.1674065589904783,-0.0946380123496055,-0.5813621878623962,-0.042648859322071,-0.0047881095670163,0.0,0.0,-0.2381640672683715,-0.489237368106842
-0.0270068161189556,1.1539499759674072,-0.0956897363066673,-0.5980760455131531,-0.042900200933218,-0.0050275358371436,0.0,0.0,-0.4828817844390869,-0.6249616742134094
-0.0280388835817575,1.1401033401489258,-0.1044991761445999,-0.6153717041015625,-0.0416206791996955,0.0255903992801904,0.0,0.0,-0.6070302724838257,0.6931800842285156
-0.0290264133363962,1.1258814334869385,-0.0986305773258209,-0.6320810317993164,-0.0417442321777343,-0.0024709641002118,0.0,0.0,-0.0866632461547851,-0.2902002334594726
-0.0300248153507709,1.111283779144287,-0.0996999442577362,-0.648790180683136,-0.0418853349983692,-0.0028220335952937,0.0,0.0,-0.8293461799621582,-0.4746544957160949
-0.0310341827571392,1.096310257911682,-0.1007739156484603,-0.6654993891716003,-0.0420454293489456,-0.003202034626156,0.0,0.0,-0.3737039566040039,-0.2332115769386291
-0.0320545211434364,1.0809605121612549,-0.1018519848585128,-0.6822085976600647,-0.0422257632017135,-0.0036065992899239,0.0,0.0,0.1750906705856323,-0.6268073916435242
-0.0330949798226356,1.0661468505859375,-0.1051275879144668,-0.6583607792854309,-0.0411565490067005,0.021384660154581,0.0,0.0,-0.3013613224029541,-0.3459961414337158
-0.034146498888731,1.050957202911377,-0.1062123030424118,-0.6750701069831848,-0.0401093624532222,0.020943684503436,0.0,0.0,-0.3828252553939819,0.016878604888916
-0.0352090820670127,1.0353915691375732,-0.1072996482253074,-0.6917794346809387,-0.0390847958624362,0.0204913914203643,0.0,0.0,0.0047171115875244,-0.22556734085083
-0.0363130569458007,1.0197809934616089,-0.1112235784530639,-0.6937811970710754,-0.0382625386118888,0.0164451394230127,0.0,0.0,-0.8084928393363953,0.2788145542144775
-0.0374280922114849,1.0037946701049805,-0.1123148575425148,-0.7104904651641846,-0.0374633595347404,0.0159834288060665,0.0,0.0,-0.0127326250076293,0.1928606033325195
-0.0385542884469032,0.9874321818351746,-0.1134074330329895,-0.7271996736526489,-0.0366871505975723,0.0155241219326853,0.0,0.0,-0.565467894077301,-0.1893360018730163
-0.0396916382014751,0.9706937670707704,-0.1145009398460388,-0.7439089417457581,-0.0359335541725158,0.0150718223303556,0.0,0.0,0.0331053733825683,-0.3776955604553222
-0.040799330919981,0.9542916417121888,-0.1116160601377487,-0.7289604544639587,-0.0350918807089328,0.01683328486979,0.0,0.0,-0.4024373292922973,0.581336498260498
-0.0418750755488872,0.9375178813934326,-0.1073029786348342,-0.7455090284347534,-0.03535146266222,-0.0051917871460318,0.0,0.0,-0.4217766523361206,-0.797268271446228
-0.0430219657719135,0.9203723669052124,-0.1159344315528869,-0.7619954347610474,-0.0341196060180664,0.024636773392558,0.0,0.0,0.4451377391815185,-0.3968466520309448
-0.0442500114440918,0.9038767218589784,-0.1235989555716514,-0.7331241965293884,-0.0333387032151222,0.0156182665377855,0.0,0.0,-0.5000923871994019,-0.4974782466888428
-0.0454892143607139,0.8870049715042114,-0.1246910244226455,-0.7498334646224976,-0.0325750671327114,0.015272612683475,0.0,0.0,0.6751995086669922,0.2144229412078857
-0.046630572527647,0.8702293634414673,-0.1153601631522178,-0.7455583810806274,-0.0313712358474731,0.0240765288472175,0.0,0.0,0.1497392654418945,-0.4651018381118774
-0.0477024093270301,0.8536261320114136,-0.108711376786232,-0.7378924489021301,-0.0298612732440233,0.0301994420588016,0.0,0.0,-0.2932894229888916,0.0460082292556762
-0.0487851127982139,0.8366467952728271,-0.1097979322075843,-0.7546018362045288,-0.0283624827861785,0.0299758911132812,0.0,0.0,0.430305004119873,-0.0620494484901428
-0.0498309135437011,0.8197238445281982,-0.1062711477279663,-0.7521048784255981,-0.0266883671283721,0.03348233923316,0.0,0.0,-0.8621416687965393,0.3831359148025512
-0.0508875846862793,0.8024248480796814,-0.1073520928621292,-0.7688143253326416,-0.0250201467424631,0.0333643034100532,0.0,0.0,0.5540852546691895,0.0357840061187744
-0.0520410537719726,0.7859300374984741,-0.1165388375520706,-0.7330856919288635,-0.0238439794629812,0.0235234554857015,0.0,0.0,-0.2896348237991333,0.4610576629638672
-0.0532053001224994,0.7690591216087341,-0.1176125407218933,-0.7497949600219727,-0.0226674601435661,0.023530026897788,0.0,0.0,-0.063699185848236,0.4670699834823608
-0.0543801300227642,0.7518123388290405,-0.1186820119619369,-0.766504168510437,-0.0214871522039175,0.0236060321331024,0.0,0.0,-0.3613705635070801,-0.0188364386558532
-0.0555655471980571,0.7341896891593933,-0.1197468414902687,-0.7832133173942566,-0.0202993564307689,0.0237561054527759,0.0,0.0,0.5412462949752808,0.4588773250579834
-0.0568012222647666,0.7172234058380127,-0.1245280355215072,-0.7540459036827087,-0.0193486120551824,0.0190148055553436,0.0,0.0,-0.2402375936508178,0.5421907901763916
-0.0579966530203819,0.699876606464386,-0.1192261800169944,-0.7709712982177734,-0.0196565184742212,-0.006158385425806,0.0,0.0,0.5124752521514893,0.3870518207550049
-0.0591850280761718,0.6832490563392639,-0.1185578256845474,-0.7390096783638,-0.0199309717863798,-0.005489086266607,0.0,0.0,0.191535472869873,0.5179669857025146
-0.0602179542183876,0.6667661070823669,-0.1022448986768722,-0.7325887084007263,-0.0209689270704984,-0.0207590479403734,0.0,0.0,0.4012985229492187,0.8051552772521973
-0.0612800605595111,0.6505040526390076,-0.1034435778856277,-0.7228052616119385,-0.0236999299377203,-0.0546203963458538,0.0,0.0,0.1784377098083496,-0.2956880331039428
-0.0622715950012207,0.6347160935401917,-0.0967319682240486,-0.7017280459403992,-0.026086401194334,-0.0477292090654373,0.0,0.0,-0.3221109509468078,0.3721275329589844
-0.0632728561758995,0.6185523271560669,-0.0977516025304794,-0.7184375524520874,-0.0284333042800426,-0.046938095241785,0.0,0.0,0.5605291128158569,0.780503511428833
-0.0641215294599533,0.6031807065010071,-0.081101469695568,-0.6832579374313354,-0.0321530885994434,-0.0743957012891769,0.0,0.0,-0.1705117225646972,-0.8295616507530212
-0.0650534629821777,0.5874440670013428,-0.0913621336221695,-0.6994476318359375,-0.0339628644287586,-0.0361954420804977,0.0,0.0,-0.5507528781890869,0.7808048725128174
-0.0659278854727745,0.5713213086128235,-0.0839627608656883,-0.7166483402252197,-0.0374024175107479,-0.0687911361455917,0.0,0.0,0.587512731552124,-0.1933645606040954
-0.0668826103210449,0.5558384656906128,-0.0916004851460456,-0.6882278323173523,-0.0412256084382534,-0.0764637365937233,0.0,0.0,-0.5741251111030579,0.0966906547546386
-0.0678463950753212,0.5399798154830933,-0.0925727635622024,-0.7049379348754883,-0.044980626553297,-0.0751003921031951,0.0,0.0,0.0071760416030883,0.8423566818237305
-0.0687185302376747,0.5243010520935059,-0.08179771900177,-0.6970081925392151,-0.0503362528979778,-0.1071125864982605,0.0,0.0,0.2738806009292602,-0.0040379762649536
-0.0695776939392089,0.508709192276001,-0.0806169658899307,-0.6931596994400024,-0.055583368986845,-0.1049422398209571,0.0,0.0,0.4435062408447265,-0.5793036222457886
-0.0705799087882042,0.4935289025306701,-0.095899648964405,-0.6748448014259338,-0.0598538480699062,-0.0854095891118049,0.0,0.0,0.5127238035202026,0.7567850351333618
-0.0714616775512695,0.4791476726531982,-0.0824598744511604,-0.6394028067588806,-0.0654980540275573,-0.1128840446472168,0.0,0.0,-0.5785590410232544,0.7185280323028564
-0.0722873657941818,0.4643760919570923,-0.0753177851438522,-0.6568483710289001,-0.072669543325901,-0.1434300243854522,0.0,0.0,-0.1459530591964721,-0.509246289730072
-0.0731589347124099,0.4492391347885132,-0.0810030549764633,-0.6730661988258362,-0.0787641480565071,-0.1218923553824424,0.0,0.0,0.6686046123504639,-0.5844013690948486
-0.0741487517952919,0.4344563484191894,-0.0938552767038345,-0.6572906970977783,-0.0838397666811943,-0.1015121340751648,0.0,0.0,0.902296543121338,0.3151750564575195
-0.0751859694719314,0.4204764664173126,-0.098232664167881,-0.6216447353363037,-0.089284211397171,-0.1088887229561805,0.0,0.0,-0.0808973312377929,0.0285444259643554
-0.0762304291129112,0.4061208665370941,-0.0990832448005676,-0.6383554339408875,-0.094601534307003,-0.1063465029001236,0.0,0.0,0.9327830076217652,0.743370532989502
-0.0772919654846191,0.3928881287574768,-0.0990522652864456,-0.5885871052742004,-0.1016440764069557,-0.140850692987442,0.0,0.0,-0.1902558803558349,0.2207506895065307
-0.0783601775765419,0.3792798817157745,-0.0998692959547042,-0.605299174785614,-0.1085458770394325,-0.1380359381437301,0.0,0.0,-0.0243347287178039,-0.4191443920135498
-0.0794348716735839,0.3652960658073425,-0.1006685346364975,-0.6220109462738037,-0.115300141274929,-0.1350854635238647,0.0,0.0,-0.5804218649864197,-0.3763545751571655
-0.0805157646536827,0.3509366512298584,-0.1014493703842163,-0.6387224197387695,-0.1219001337885856,-0.1319998502731323,0.0,0.0,0.6428501605987549,-0.691262423992157
-0.0816504508256912,0.3367133736610412,-0.108305238187313,-0.6325750350952148,-0.1270351558923721,-0.1027003973722457,0.0,0.0,0.9565248489379884,-0.895544171333313
-0.0827521309256553,0.3235353529453277,-0.1069562807679176,-0.5859691500663757,-0.1302316039800644,-0.0639286488294601,0.0,0.0,0.4277987480163574,0.2503247261047363
-0.0836991295218467,0.311016172170639,-0.0919830948114395,-0.5566462278366089,-0.1329338550567627,-0.0540448799729347,0.0,0.0,0.3031773567199707,-0.5990960597991943
-0.0847086906433105,0.2991141080856323,-0.0994421988725662,-0.529119074344635,-0.1344421654939651,-0.030165996402502,0.0,0.0,-0.7016566395759583,0.8706276416778564
-0.0856704711914062,0.2868160009384155,-0.093474805355072,-0.54682856798172,-0.1371334344148636,-0.0538253784179687,0.0,0.0,0.6834636926651001,-0.616520345211029
-0.0865304917097091,0.2753448486328125,-0.0848468393087387,-0.5099355578422546,-0.1382890343666076,-0.0231119059026241,0.0,0.0,0.0134165287017822,0.7761639356613159
-0.0873573273420333,0.2640241384506225,-0.0801342576742172,-0.5033804774284363,-0.1408227831125259,-0.0506748482584953,0.0,0.0,-0.2697659730911255,-0.8307948112487793
-0.0882587432861328,0.2523456811904907,-0.0896282866597175,-0.5190918445587158,-0.1413372904062271,-0.0102900741621851,0.0,0.0,0.2141029834747314,0.0179182291030883
-0.0891002640128135,0.2410557866096496,-0.0838089734315872,-0.5018035769462585,-0.14168082177639,-0.006871054880321,0.0,0.0,-0.0748506188392639,-0.5560904741287231
-0.0899825096130371,0.2293976843357086,-0.089052066206932,-0.5180612206459045,-0.1408562660217285,0.0164910648018121,0.0,0.0,0.1247076988220214,-0.5670078992843628
-0.0908624678850174,0.21770940721035,-0.0902101397514343,-0.5192702412605286,-0.1386480927467346,0.04416374117136,0.0,0.0,0.7104723453521729,0.8633143901824951
-0.0915152579545974,0.2062216103076934,-0.066162034869194,-0.5104866623878479,-0.1377614736557006,0.0177323408424854,0.0,0.0,0.8662097454071045,0.3643643856048584
-0.0919174179434776,0.1952816396951675,-0.0421101152896881,-0.4860483407974243,-0.1358722299337387,0.0377845168113708,0.0,0.0,0.7087141275405884,0.604530930519104
-0.0920659080147743,0.1845256239175796,-0.0161597002297639,-0.4779254794120788,-0.1345669478178024,0.0261056572198867,0.0,0.0,0.8030619621276855,-0.0745041966438293
-0.0921125411987304,0.1746132522821426,-0.0061928192153573,-0.4404140710830688,-0.1330463290214538,0.0304127838462591,0.0,0.0,0.1424394845962524,-0.6938867568969727
-0.0921212211251258,0.1651156544685363,-0.0040716039948165,-0.4218314886093139,-0.129860445857048,0.0637175664305687,0.0,0.0,0.2234553098678589,-0.6555424332618713
-0.0920165032148361,0.1559692472219467,0.0055404775775969,-0.4060886204242706,-0.1249548345804214,0.0981121733784675,0.0,0.0,-0.2629672884941101,-0.824073314666748
-0.0919675827026367,0.146448329091072,-0.0016714496305212,-0.4226134121417999,-0.1184253469109535,0.1305898874998092,0.0,0.0,0.8070075511932373,0.5133744478225708
-0.0918741226196289,0.1373834013938903,0.0037231196183711,-0.4024519622325897,-0.1128353923559188,0.1117991805076599,0.0,0.0,0.5130137205123901,-0.2425384521484375
-0.0916152969002723,0.1291071772575378,0.0196289978921413,-0.3673755824565887,-0.1066206023097038,0.124296024441719,0.0,0.0,0.0729800462722778,-0.4384903311729431
-0.0913324356079101,0.1210087612271308,0.0218173153698444,-0.3594814836978912,-0.100205585360527,0.1283003985881805,0.0,0.0,0.3862414360046386,0.1116306781768798
-0.0910867676138877,0.1135464310646057,0.0183062478899955,-0.3312528729438782,-0.0939995497465133,0.1241208091378212,0.0,0.0,-0.2742840051651001,0.7845339775085449
-0.0907699614763259,0.1057021468877792,0.0269420593976974,-0.3483458757400512,-0.0893042832612991,0.0939051359891891,0.0,0.0,0.6115493774414062,-0.3074032664299011
-0.0904395133256912,0.0985822081565857,0.0282698236405849,-0.3161640465259552,-0.0845695286989212,0.0946951210498809,0.0,0.0,0.0679981708526611,0.5669125318527222
-0.090081974864006,0.09181559830904,0.0319200977683067,-0.300524890422821,-0.0807709321379661,0.0759721398353576,0.0,0.0,-0.1913764476776123,-0.2797310948371887
-0.089723490178585,0.08467298746109,0.0317186564207077,-0.3172333538532257,-0.0766848847270011,0.0817209407687187,0.0,0.0,0.0931763648986816,0.4995341300964355
-0.0894103050231933,0.0777583196759224,0.0272515658289194,-0.3071154654026031,-0.072665587067604,0.0803860798478126,0.0,0.0,0.3205416202545166,0.8508641719818115
-0.0891351699829101,0.071099504828453,0.0250095129013061,-0.2958259582519531,-0.0701810419559478,0.0496906489133834,0.0,0.0,0.6796878576278687,0.7413763999938965
-0.088630773127079,0.0651435703039169,0.0488889999687671,-0.2646374106407165,-0.0686373859643936,0.0308729764074087,0.0,0.0,-0.0650211572647094,0.3868937492370605
-0.0881243720650672,0.0588113404810428,0.0487662926316261,-0.2813450992107391,-0.0667955577373504,0.036836914718151,0.0,0.0,0.5736820697784424,0.841867208480835
-0.0873469337821006,0.0531749837100505,0.077033519744873,-0.250472217798233,-0.0660923570394516,0.0140639496967196,0.0,0.0,-0.0369139313697814,-0.0473756194114685
-0.0865673050284385,0.0471624694764614,0.076946385204792,-0.2671797573566437,-0.0650865286588668,0.0201163832098245,0.0,0.0,0.445586085319519,-0.4056434631347656
-0.0856121033430099,0.0418807379901409,0.0936161130666732,-0.2346640527248382,-0.0631985515356063,0.0377594716846942,0.0,0.0,-0.0808240175247192,-0.1161459684371948
-0.0846542343497276,0.0362227782607078,0.0935617089271545,-0.2513718903064728,-0.0610040612518787,0.0438897833228111,0.0,0.0,0.5279051065444946,-0.5155174136161804
-0.0836953148245811,0.0313287116587162,0.0923445895314216,-0.2173694968223571,-0.0574927106499671,0.0702270343899726,0.0,0.0,0.2486202716827392,0.3773036003112793
-0.0826534256339073,0.0269461963325738,0.100104883313179,-0.1946301907300949,-0.0534595027565956,0.0806643366813659,0.0,0.0,0.2556328773498535,-0.5926436185836792
-0.0815694779157638,0.0227050874382257,0.1026850491762161,-0.188300147652626,-0.0478107929229736,0.1129742860794067,0.0,0.0,0.4791560173034668,-0.1021435856819152
-0.0805651694536209,0.0189255326986312,0.0949085876345634,-0.1678156703710556,-0.0423560924828052,0.1090940982103347,0.0,0.0,0.1529289484024047,0.5304422378540039
-0.0795989036560058,0.0153106311336159,0.0920513719320297,-0.1605374366044998,-0.0378326103091239,0.0904697030782699,0.0,0.0,0.6110864877700806,0.4973063468933105
-0.0786293968558311,0.0121451951563358,0.0921576991677284,-0.1405751854181289,-0.0330914556980133,0.0948228687047958,0.0,0.0,0.2784934043884277,-0.0529848337173461
-0.0776225104928016,0.0092217661440372,0.0954751819372177,-0.1298223882913589,-0.0279416181147098,0.1029966324567794,0.0,0.0,0.1183785200119018,0.029950737953186
-0.0765167251229286,0.0062839603051543,0.10462486743927,-0.1304682344198227,-0.0220663081854581,0.1175063475966453,0.0,0.0,0.1704698801040649,-0.8429853916168213
-0.0753832831978797,0.0037005639169365,0.1053220182657241,-0.114719308912754,-0.0141489626839756,0.1583469659090042,0.0,0.0,0.0467100143432617,0.0645115375518798
-0.0742228478193283,0.0015081977471709,0.1076227575540542,-0.0973814278841018,-0.0058404258452355,0.1661705374717712,0.0,0.0,-0.0001082420349121,0.0083299875259399
