x_pos,y_pos,x_vel,y_vel,angle,ang_vel,leg_1,leg_2,main_booster,lat_booster
-0.0014718056190758,1.4030307531356812,-0.1489682495594024,-0.3506369590759277,0.0015999814495444,0.0315492786467075,0.0,0.0,0.0290709733963012,0.8640282154083252
-0.0027858733665198,1.3949978351593018,-0.1311211287975311,-0.3570151627063751,0.0013219815446063,-0.0055601056665182,0.0,0.0,-0.4568830132484436,0.4021610021591186
-0.0040473937988281,1.3863707780838013,-0.1257308423519134,-0.3834284543991089,0.0009063280303962,-0.0083139985799789,0.0,0.0,-0.3416372537612915,0.7515048980712891
-0.0052087781950831,1.377147555351257,-0.1143764406442642,-0.4099220931529999,-0.0008408945868723,-0.0349475629627704,0.0,0.0,0.3678112030029297,0.6976937055587769
-0.0061434744857251,1.3681424856185913,-0.0903936624526977,-0.4002302587032318,-0.0038894938770681,-0.0609777085483074,0.0,0.0,0.1034109592437744,-0.3551245927810669
-0.006932258605957,1.3590872287750244,-0.0760939121246337,-0.402465283870697,-0.00663768267259,-0.0549684949219226,0.0,0.0,-0.3612866401672363,-0.3113061189651489
-0.0076679228805005,1.3494384288787842,-0.0706508383154869,-0.4288535714149475,-0.0095242792740464,-0.0577373728156089,0.0,0.0,-0.5960185527801514,-0.4760762453079223
-0.0083504673093557,1.339195966720581,-0.0651982799172401,-0.4552392959594726,-0.0125486068427562,-0.0604921653866767,0.0,0.0,-0.5279433727264404,-0.8295949101448059
-0.009046459570527,1.328370213508606,-0.0680887848138809,-0.4811562895774841,-0.0140343941748142,-0.0297183133661746,0.0,0.0,-0.404927909374237,-0.2902828454971313
-0.0096891401335597,1.3169509172439575,-0.0626258105039596,-0.5075432062149048,-0.0156587734818458,-0.03249092400074,0.0,0.0,-0.5229421257972717,-0.7395848035812378
-0.0103284837678074,1.3049396276474,-0.0634206756949424,-0.5338413715362549,-0.0161642804741859,-0.0101108355447649,0.0,0.0,-0.5677185654640198,-0.7643005847930908
-0.0109676364809274,1.2923341989517212,-0.064621090888977,-0.560226559638977,-0.0154706304892897,0.0138744069263339,0.0,0.0,-0.4870672225952148,-0.6197382211685181
-0.0115918163210153,1.279139518737793,-0.0639500692486763,-0.5864231586456299,-0.0139511972665786,0.0303913168609142,0.0,0.0,-0.7495704293251038,-0.6561733484268188
-0.0122084617614746,1.2653459310531616,-0.0642293840646743,-0.6130286455154419,-0.0114170089364051,0.0506884455680847,0.0,0.0,-0.3062708377838135,-0.7818905115127563
-0.0128190042451024,1.250967502593994,-0.0646761357784271,-0.6390100121498108,-0.0078313974663615,0.0717187374830246,0.0,0.0,-0.4927644729614258,-0.5425257682800293
-0.0134112359955906,1.2359898090362549,-0.0635997503995895,-0.6656584143638611,-0.0035017889458686,0.0865999311208725,0.0,0.0,-0.3524954319000244,0.1361041069030761
-0.0139500619843602,1.2204186916351318,-0.0581260100007057,-0.6920467019081116,0.000692072615493,0.0838848650455474,0.0,0.0,-0.7584406137466431,0.2564598321914673
-0.0144355772063136,1.2042540311813354,-0.0526506416499614,-0.718434751033783,0.0047513884492218,0.0811931788921356,0.0,0.0,-0.4375742673873901,0.440432071685791
-0.0148676875978708,1.1874959468841553,-0.0471743792295455,-0.7448229193687439,0.0086767952889204,0.0785152018070221,0.0,0.0,-0.3925677537918091,0.182923674583435
-0.0152462963014841,1.1701442003250122,-0.0416979640722274,-0.7712109684944153,0.0124693419784307,0.0758575573563575,0.0,0.0,-0.2002912759780883,0.1116191148757934
-0.0155715942382812,1.152199149131775,-0.0362220741808414,-0.7975990176200867,0.0161301791667938,0.0732233524322509,0.0,0.0,0.2905201911926269,0.3647668361663818
-0.0158397667109966,1.134178876876831,-0.0304319951683282,-0.8009398579597473,0.0197032243013381,0.07146717607975,0.0,0.0,-0.2380229830741882,0.5353400707244873
-0.0160030368715524,1.1155657768249512,-0.0185042172670364,-0.8272801041603088,0.0218540038913488,0.0430195219814777,0.0,0.0,0.1835420131683349,0.2115011215209961
-0.0160675998777151,1.0966960191726685,-0.0087496601045131,-0.8386908769607544,0.0241104066371917,0.0451323762536048,0.0,0.0,-0.4288598895072937,0.5336462259292603
-0.0160466190427541,1.0772351026535034,0.0007640843978151,-0.8649505972862244,0.0254296511411666,0.0263874940574169,0.0,0.0,0.1173521280288696,0.6641764640808105
-0.0160427093505859,1.0578742027282717,0.0006577937165275,-0.8604727983474731,0.0251680165529251,-0.0052328729070723,0.0,0.0,0.229304552078247,-0.5073695182800293
-0.016036033630371,1.0387321710586548,2.592333112261258e-05,-0.8507722020149231,0.0258007105439901,0.0126540409401059,0.0,0.0,0.9101885557174684,-0.2578241229057312
-0.0161515232175588,1.020421266555786,-0.0113701997324824,-0.8138124942779541,0.0256158020347356,-0.0036980602890253,0.0,0.0,0.3917301893234253,-0.2328428030014038
-0.0163403507322073,1.0024908781051636,-0.0180621426552534,-0.7968899011611938,0.0248064752668142,-0.0161866638809442,0.0,0.0,0.5704700946807861,-0.0571376681327819
-0.016507338732481,0.9846612811088562,-0.0156695377081632,-0.7924169898033142,0.0237917155027389,-0.0202952679246664,0.0,0.0,0.670527458190918,-0.6124326586723328
-0.0166695602238178,0.967527449131012,-0.0163680911064147,-0.7615053057670593,0.023933932185173,0.002844396745786,0.0,0.0,0.3452697992324829,0.2439775466918945
-0.016850471496582,0.9503327012062072,-0.0178338773548603,-0.7642039656639099,0.0236762929707765,-0.0051526515744626,0.0,0.0,0.0084865093231201,0.0150575637817382
-0.0170402526855468,0.9332764148712158,-0.0183818154036998,-0.7580521106719971,0.0230820942670106,-0.0118838027119636,0.0,0.0,-0.1355995535850525,-0.0679318308830261
-0.0171771049499511,0.915626347064972,-0.0129832699894905,-0.7844370007514954,0.0223881024867296,-0.013879750855267,0.0,0.0,0.2894612550735473,0.4917603731155395
-0.017259407788515,0.898117184638977,-0.0074836178682744,-0.7781761288642883,0.0216568186879158,-0.0146256554871797,0.0,0.0,0.4516860246658325,0.1570749282836914
-0.017287254333496,0.881011426448822,-0.0020296017173677,-0.7602441906929016,0.0209074188023805,-0.0149880666285753,0.0,0.0,-0.6553416848182678,-0.1967399716377258
-0.0172625537961721,0.8633119463920593,0.0033215037547051,-0.7866290211677551,0.0200701933354139,-0.0167445559054613,0.0,0.0,0.0825486183166503,0.1902041435241699
-0.0171704292297363,0.845767617225647,0.0100310444831848,-0.7797373533248901,0.0192649010568857,-0.0161058418452739,0.0,0.0,0.3688750267028808,0.4712305068969726
-0.0170720107853412,0.8286756873130798,0.0108924256637692,-0.7596282958984375,0.0182298813015222,-0.0207003615796566,0.0,0.0,-0.1518447399139404,0.6253844499588013
-0.0168696399778127,0.810992419719696,0.0226798318326473,-0.7858988046646118,0.0158186107873916,-0.0482255294919014,0.0,0.0,-0.2315280437469482,-0.3329522013664245
-0.0166152957826852,0.7927154898643494,0.0279427170753479,-0.8122840523719788,0.0133381830528378,-0.0496085360646247,0.0,0.0,0.3754775524139404,-0.7378643751144409
-0.0162588115781545,0.7744981050491333,0.0365683808922767,-0.8096551299095154,0.0124356970191001,-0.0180498082190752,0.0,0.0,-0.3634457588195801,0.0751363039016723
-0.015850830823183,0.7556869983673096,0.0417733900249004,-0.8360401391983032,0.0114744706079363,-0.0192246194928884,0.0,0.0,0.2273677587509155,0.7359931468963623
-0.0152545925229787,0.7368721961975098,0.0620395764708519,-0.8361939787864685,0.0090962601825594,-0.0475642755627632,0.0,0.0,-0.276177704334259,-0.4437077045440674
-0.0146073345094919,0.7174639105796814,0.0671752020716667,-0.862579345703125,0.0066703152842819,-0.0485187321901321,0.0,0.0,0.4677834510803222,-0.3903428316116333
-0.0138709070160985,0.6979076266288757,0.0759642645716667,-0.8691567778587341,0.0043911566026508,-0.0455831810832023,0.0,0.0,0.0503296852111816,-0.8330658078193665
-0.0131057742983102,0.6781792044639587,0.077157124876976,-0.8768156170845032,0.0037439670413732,-0.0129437278956174,0.0,0.0,0.2874535322189331,-0.495112657546997
-0.0123809818178415,0.6588312387466431,0.073572926223278,-0.859906017780304,0.0026612936053425,-0.0216535553336143,0.0,0.0,0.3126323223114013,-0.4542062282562256
-0.0117140766233205,0.639828622341156,0.0683144032955169,-0.8445633053779602,0.0010666182497516,-0.031893566250801,0.0,0.0,0.294083833694458,-0.9212892651557922
-0.0110907554626464,0.6208269596099854,0.0621206760406494,-0.8445141911506653,0.0012731999158859,0.0041318568401038,0.0,0.0,0.7024407386779785,-0.480643630027771
-0.0102721210569143,0.602114737033844,0.0809706002473831,-0.8316580653190613,0.0021512056700885,0.0175598207861185,0.0,0.0,0.6915223598480225,-0.65018230676651
-0.0095228198915719,0.5839441418647766,0.0728849098086357,-0.8075846433639526,0.0041665979661047,0.0403080582618713,0.0,0.0,-0.2327296733856201,0.4710615873336792
-0.0087265968322753,0.5651800036430359,0.077577531337738,-0.8339698910713196,0.0061817108653485,0.0403023138642311,0.0,0.0,0.8582441806793213,-0.2312297821044922
-0.0078862188383936,0.5471680760383606,0.0819805040955543,-0.800541341304779,0.0082191424444317,0.0407484844326972,0.0,0.0,0.5627622604370117,-0.6922309994697571
-0.0069045065902173,0.5292530059814453,0.0943895727396011,-0.7962518930435181,0.0119561580941081,0.0747402980923652,0.0,0.0,0.4155730009078979,-0.0291551947593688
-0.0059649469330906,0.5113484263420105,0.0905337780714035,-0.7957869172096252,0.0153319481760263,0.0675157159566879,0.0,0.0,0.8314976692199707,-0.3160945177078247
-0.0048913001082837,0.4941779971122741,0.1034394949674606,-0.7631772756576538,0.0192131735384464,0.0776243358850479,0.0,0.0,-0.1602822542190551,-0.08411705493927
-0.003775215242058,0.4764140546321869,0.1076509952545166,-0.7895635366439819,0.0231233835220336,0.0782042667269706,0.0,0.0,0.7901959419250488,-0.5544621348381042
-0.0025960921775549,0.4594018459320068,0.112565591931343,-0.7561914920806885,0.0284081008285284,0.1056939959526062,0.0,0.0,0.6326922178268433,-0.4393684864044189
-0.0014741898048669,0.4429574608802795,0.107148066163063,-0.7309661507606506,0.0333846844732761,0.0995315462350845,0.0,0.0,0.5605523586273193,0.0592217445373535
-0.000277042388916,0.4264465570449829,0.1144016161561012,-0.7339447140693665,0.0386303886771202,0.104914404451847,0.0,0.0,0.4528796672821045,0.1970912218093872
0.0008451461908407,0.4102618396282196,0.1072821170091629,-0.7194569110870361,0.0435189306735992,0.0977706089615821,0.0,0.0,0.6145327091217041,0.4221374988555908
0.0021016120444983,0.3942491114139557,0.1200723648071289,-0.7118486166000366,0.0490216165781021,0.1100539192557334,0.0,0.0,0.7407890558242798,0.0685255527496337
0.00338497152552,0.3786125481128692,0.1225900053977966,-0.6951549053192139,0.0547000281512737,0.1135680899024009,0.0,0.0,0.7256543636322021,0.3397877216339111
0.0046854973770678,0.3630106747150421,0.1242067217826843,-0.6936434507369995,0.0604819878935813,0.1156391948461532,0.0,0.0,0.8031868934631348,0.4613320827484131
0.0058421134017407,0.3477691411972046,0.110380508005619,-0.6776250600814819,0.065709501504898,0.1045502573251724,0.0,0.0,0.6371328830718994,0.5083816051483154
0.0070334435440599,0.3332157731056213,0.1147406920790672,-0.6470183730125427,0.0700610056519508,0.087029755115509,0.0,0.0,0.655174970626831,0.5173072814941406
0.0083587644621729,0.3185147047042846,0.1288463771343231,-0.653556764125824,0.0737038180232048,0.0728564709424972,0.0,0.0,0.742527961730957,-0.6114171743392944
0.0096230506896972,0.3045723438262939,0.1213596612215042,-0.6199178695678711,0.0787237137556076,0.1003979071974754,0.0,0.0,0.6537127494812012,0.3593136072158813
0.0107770916074514,0.2907342314720154,0.1106836646795272,-0.6152867078781128,0.0833964422345161,0.0934545770287513,0.0,0.0,0.7482221126556396,-0.0833555459976196
0.0117929456755518,0.2773616015911102,0.0972285866737365,-0.594587504863739,0.0877125114202499,0.0863212198019027,0.0,0.0,0.6812334060668945,0.4811170101165771
0.0128002166748046,0.2643461525440216,0.0961271673440933,-0.5787417888641357,0.0922703221440315,0.0911562070250511,0.0,0.0,0.5241801738739014,0.8408045768737793
0.0136817935854196,0.2519012689590454,0.0853453651070594,-0.5532845258712769,0.0950589030981063,0.0557713918387889,0.0,0.0,0.7584209442138672,0.6265701055526733
0.0146484375,0.2397996485233307,0.0947958976030349,-0.5379675030708313,0.0969127714633941,0.0370773561298847,0.0,0.0,0.862013578414917,-0.69939124584198
0.0154841421172022,0.2277432978153228,0.0802863985300064,-0.5360549092292786,0.1001737043261528,0.0652187019586563,0.0,0.0,0.9107348918914796,0.455238938331604
0.0163649562746286,0.2156664878129959,0.0843173265457153,-0.5370043516159058,0.1039108261466026,0.0747424215078353,0.0,0.0,0.9576778411865234,0.4080185890197754
0.0171684268862009,0.2035906165838241,0.0766335502266883,-0.5369693040847778,0.1075906679034233,0.0735968723893165,0.0,0.0,0.8802886009216309,0.2198390960693359
0.0178641323000192,0.1922661215066909,0.0657818391919136,-0.5035871267318726,0.1113458722829818,0.0751043185591697,0.0,0.0,0.9677126407623292,-0.3464630842208862
0.0185422897338867,0.1818126589059829,0.0634673088788986,-0.4649292230606079,0.1156648471951484,0.0863794535398483,0.0,0.0,0.96299147605896,-0.0596130490303039
0.0189686771482229,0.1721897423267364,0.0387978553771972,-0.427985817193985,0.1194930896162986,0.0765647664666175,0.0,0.0,0.965683937072754,0.244131326675415
0.0191854480654001,0.1625330001115799,0.018406044691801,-0.4294541478157043,0.1227383092045784,0.0649044960737228,0.0,0.0,0.9857852458953856,0.0642317533493042
0.0193211548030376,0.1537063270807266,0.0099577736109495,-0.3925977349281311,0.1263398975133896,0.0720317587256431,0.0,0.0,0.9140230417251588,0.4407731294631958
0.0192411430180072,0.145256295800209,-0.0112174814566969,-0.3758301436901092,0.1295333206653595,0.0638684928417205,0.0,0.0,0.6644852161407471,0.9378395080566406
0.0190665237605571,0.1372349858283996,-0.0188334081321954,-0.3566234707832336,0.1309042870998382,0.0274189822375774,0.0,0.0,0.7239061594009399,0.7868754863739014
0.0188240054994821,0.1297188550233841,-0.0241660065948963,-0.3340429961681366,0.1308150887489318,-0.0017841175431385,0.0,0.0,0.7658028602600098,0.9193202257156372
0.018652344122529,0.1225687339901924,-0.0155385676771402,-0.3176393806934356,0.1291970908641815,-0.0323596037924289,0.0,0.0,0.7262630462646484,0.8093963861465454
0.0185007099062204,0.1153671145439148,-0.0121127013117074,-0.3198118507862091,0.1261618584394455,-0.0607046298682689,0.0,0.0,0.5235185623168945,0.2305132150650024
0.0183599479496479,0.1081408113241195,-0.0115728881210088,-0.3209584653377533,0.1236692145466804,-0.0498530641198158,0.0,0.0,0.4610731601715088,0.2623881101608276
0.018256664276123,0.101096972823143,-0.0085775377228856,-0.3129153847694397,0.1219272911548614,-0.0348384901881217,0.0,0.0,0.5329091548919678,-0.3765180110931396
0.0182060245424509,0.0940281003713607,-0.0040672444738447,-0.3140880763530731,0.120934396982193,-0.0198579598218202,0.0,0.0,0.8412232398986816,0.3250565528869629
0.0180150978267192,0.0876114666461944,-0.0182207394391298,-0.2851140201091766,0.1200646981596946,-0.0173936430364847,0.0,0.0,0.6512014865875244,0.6030139923095703
0.0177787784487009,0.0817495211958885,-0.0217849723994731,-0.260382741689682,0.1182245761156082,-0.0368025191128253,0.0,0.0,0.4697140455245971,0.2863104343414306
0.0175461769104003,0.0761977061629295,-0.0220806431025266,-0.2466541826725006,0.1170524731278419,-0.0234418362379074,0.0,0.0,0.5662746429443359,0.4519325494766235
0.0173346512019634,0.0705303028225898,-0.020573504269123,-0.2518408596515655,0.1164795905351638,-0.0114577403292059,0.0,0.0,0.6754894256591797,0.0537143945693969
0.01697120629251,0.0650296285748481,-0.0356845185160636,-0.2444249242544174,0.1158183887600898,-0.0132240951061248,0.0,0.0,0.7566382884979248,0.7925405502319336
0.0166210178285837,0.0603397712111473,-0.0331096462905406,-0.2082930505275726,0.113924965262413,-0.0378684476017952,0.0,0.0,0.1723566055297851,0.7121624946594238
0.0162209514528512,0.0556645728647708,-0.0368165932595729,-0.2075455486774444,0.1107495129108429,-0.0635087937116622,0.0,0.0,0.3504059314727783,0.8536579608917236
0.0156579967588186,0.0513653121888637,-0.0514216721057891,-0.190724179148674,0.1059107407927513,-0.0967755764722824,0.0,0.0,0.0341788530349731,0.8476917743682861
0.0151355741545557,0.0471496693789958,-0.0458337292075157,-0.1869196593761444,0.0995496734976768,-0.1272215098142624,0.0,0.0,0.3362282514572143,0.783500075340271
0.0145211219787597,0.0432546697556972,-0.0535528473556041,-0.1726082861423492,0.0917261987924575,-0.1564692705869674,0.0,0.0,0.1310534477233886,0.8900463581085205
0.0138182640075683,0.0395397059619426,-0.0607511214911937,-0.1645493805408477,0.0822724178433418,-0.1890757381916046,0.0,0.0,0.2760014533996582,0.815584659576416
0.0130804060027003,0.0358101464807987,-0.0627400875091552,-0.1651847064495086,0.0713376849889755,-0.2186949700117111,0.0,0.0,0.0683115720748901,0.8080911636352539
0.0122443195432424,0.0320690013468265,-0.0710595622658729,-0.1657193303108215,0.0589217729866504,-0.248318150639534,0.0,0.0,0.3872518539428711,0.6178219318389893
0.011245441623032,0.0283858627080917,-0.0859605073928833,-0.1632039099931717,0.0451653115451335,-0.2751296162605285,0.0,0.0,0.2379056215286255,0.5753918886184692
0.0103072170168161,0.02493117749691,-0.0790786296129226,-0.1531646847724914,0.0305958073586225,-0.2913900911808014,0.0,0.0,-0.1102815270423889,-0.0925698280334472
0.0093205450102686,0.0208856202661991,-0.0840793624520301,-0.179567813873291,0.0161934364587068,-0.2880472540855407,0.0,0.0,0.3853676319122314,-0.2057006359100341
0.0083963396027684,0.0172114949673414,-0.0785708278417587,-0.1632018387317657,0.002521242480725,-0.2734437882900238,0.0,0.0,0.2962527275085449,-0.1211632490158081
0.0074033737182617,0.0138593772426247,-0.0855271592736244,-0.1490146368741989,-0.0110660856589674,-0.271746814250946,0.0,0.0,0.0283558368682861,0.0808885097503662
0.0064556123688817,0.0107122519984841,-0.0816064924001693,-0.1400210112333297,-0.0240744110196828,-0.2601664662361145,0.0,0.0,0.3694994449615478,0.0502209663391113
0.0055326460860669,0.0076917265541851,-0.0795937776565551,-0.1344954222440719,-0.0366217568516731,-0.2509468197822571,0.0,0.0,-0.0065798163414001,0.043290376663208
0.0045593259856104,0.0040795062668621,-0.0847990363836288,-0.1608930081129074,-0.049000434577465,-0.2475735396146774,0.0,0.0,0.3377070426940918,0.1157703399658203
0.0037048340309411,0.0015562629560008,-0.092551365494728,-0.1119393110275268,-0.041941549628973,0.1412278413772583,1.0,0.0,0.7928280830383301,0.8528656959533691
0.0031461715698242,-0.0001921081566251,-0.0792381688952446,-0.0772284418344497,-0.0187918581068515,0.4630702137947082,1.0,0.0,0.2513748407363891,0.8375519514083862
0.0026219368446618,-0.0014418386854231,-0.0846819430589675,-0.0554595738649368,0.0131225083023309,0.6383601427078247,1.0,1.0,0.4246037006378174,0.9844770431518556
0.0019609450828284,-0.0021768712904304,-0.0824214071035385,-0.0330713465809822,0.0285436697304248,0.3075292706489563,1.0,1.0,0.263393759727478,0.9993116855621338
0.0012413978110998,-0.00232217554003,-0.0699808448553085,-0.0064304154366254,0.0265675690025091,-0.0395586155354976,0.0,1.0,-0.5709662437438965,0.3970577716827392
0.0006125450017862,-0.0021025561727583,-0.061135858297348,0.0097841834649443,0.0248302295804023,-0.0347712337970733,1.0,1.0,-0.8545759320259094,0.9676791429519652
0.0001601219119038,-0.0015738749643787,-0.041170697659254,0.0235571563243865,0.0208007916808128,-0.080601081252098,1.0,1.0,-0.9681057929992676,0.9822565317153932
-0.0001524925173725,-0.0008406305569224,-0.025596510618925,0.0326592735946178,0.0152166541665792,-0.1116795539855957,1.0,1.0,-0.764867901802063,0.92049241065979
-0.0003729820309672,-4.186868682154454e-05,-0.0159330107271671,0.0355506427586078,0.0091705694794654,-0.120930515229702,1.0,1.0,-0.8890100717544556,-0.1338933110237121
-0.0005444526905193,0.0002314305311301,-0.0149910105392336,0.0121607473120093,0.0070413332432508,-0.042584590613842,1.0,1.0,-0.9755430817604064,0.4876823425292969
