x_pos,y_pos,x_vel,y_vel,angle,ang_vel,leg_1,leg_2,main_booster,lat_booster
-0.0015049934154376,1.403204321861267,-0.1515419334173202,-0.3429250121116638,0.0009346547885797,0.0183752868324518,0.0,0.0,-0.30086350440979,0.928623914718628
-0.0029111863113939,1.3950870037078855,-0.1386944353580474,-0.3607666194438934,-0.0009732304606586,-0.0381607189774513,0.0,0.0,0.1549710035324096,0.1411452293395996
-0.0042033195495605,1.3869725465774536,-0.1269005686044693,-0.3606418967247009,-0.003254992654547,-0.0456393547356128,0.0,0.0,-0.2134420871734619,0.3433799743652344
-0.0054740905761718,1.378438115119934,-0.1239407286047935,-0.3793238997459411,-0.0063607450574636,-0.0621209852397441,0.0,0.0,0.3061771392822265,-0.3086479902267456
-0.0066175460815429,1.3702560663223269,-0.1108750328421592,-0.3636692464351654,-0.0098018236458301,-0.0688277259469032,0.0,0.0,-0.3908193111419678,0.4828922748565674
-0.0077383993193507,1.3616538047790527,-0.1077757328748703,-0.3823513090610504,-0.0140673974528908,-0.0853190496563911,0.0,0.0,-0.1694037318229675,0.2139332294464111
-0.0088359834626317,1.3526320457458496,-0.1046132817864418,-0.4010254740715027,-0.019157163798809,-0.1018043980002403,0.0,0.0,-0.3712005019187927,-0.6126223206520081
-0.0099459644407033,1.343193531036377,-0.105941817164421,-0.4195655286312103,-0.0241584777832031,-0.1000353842973709,0.0,0.0,-0.3260892033576965,-0.5280224084854126
-0.0110737802460789,1.3333425521850586,-0.1079794764518737,-0.4379027485847473,-0.0289175603538751,-0.0951902195811271,0.0,0.0,-0.1896149516105651,0.0853158235549926
-0.0121767995879054,1.3230721950531006,-0.1046604737639427,-0.4565808475017547,-0.0345017239451408,-0.1116933077573776,0.0,0.0,-0.41830575466156,-0.5924897789955139
-0.0132945058867335,1.312384843826294,-0.1063105091452598,-0.4751258790493011,-0.039903674274683,-0.1080486550927162,0.0,0.0,-0.4549881219863891,-0.5835385322570801
-0.0144269941374659,1.3012795448303225,-0.1079973429441452,-0.4937234818935394,-0.04510935023427,-0.1041229814291,0.0,0.0,0.4096192121505737,-0.6068630814552307
-0.0154328346252441,1.290647029876709,-0.0959777608513832,-0.4726956784725189,-0.0496699027717113,-0.0912193655967712,0.0,0.0,-0.1196103692054748,-0.3764345049858093
-0.0164122581481933,1.2795952558517456,-0.0925029665231704,-0.4913824498653412,-0.0550551526248455,-0.1077149361371994,0.0,0.0,-0.3158247470855713,-0.4382809400558471
-0.0173649787902832,1.268124222755432,-0.0889928340911865,-0.5100603699684143,-0.0612635016441345,-0.1241784840822219,0.0,0.0,-0.0942282080650329,-0.9219773411750792
-0.018350314348936,1.2562289237976074,-0.0929495692253112,-0.5289180278778076,-0.0667989924550056,-0.1107197552919387,0.0,0.0,-0.2191977500915527,-0.8803276419639587
-0.0193612091243267,1.243930101394653,-0.0960482656955719,-0.5468446612358093,-0.0718056336045265,-0.1001419648528099,0.0,0.0,-0.1438688039779663,-0.7877160906791687
-0.0203923229128122,1.231210708618164,-0.0984344333410263,-0.5655389428138733,-0.0764399915933609,-0.0926956087350845,0.0,0.0,-0.1406581401824951,-0.9682738780975342
-0.0214591026306152,1.2180886268615725,-0.1028016358613967,-0.5834062099456787,-0.080277495086193,-0.0767570883035659,0.0,0.0,-0.464434266090393,-0.944758951663971
-0.0225821491330862,1.204557180404663,-0.1097577065229415,-0.6015406250953674,-0.0828041657805442,-0.0505380220711231,0.0,0.0,-0.2502495050430298,-0.8828237652778625
-0.0237314216792583,1.1906195878982544,-0.1129535436630249,-0.6195557117462158,-0.0847630575299263,-0.039181463420391,0.0,0.0,0.1340258121490478,-0.7683495283126831
-0.0248783119022846,1.176718831062317,-0.1134264469146728,-0.6178767681121826,-0.0860031992197036,-0.024805037304759,0.0,0.0,-0.3215436935424804,-0.8225467205047607
-0.0260474197566509,1.1624042987823486,-0.1161366254091262,-0.6362450122833252,-0.0867745801806449,-0.0154290618374943,0.0,0.0,0.0360692739486694,-0.2137792110443115
-0.0271273609250783,1.147957444190979,-0.1065912395715713,-0.6421632170677185,-0.088156372308731,-0.02763850428164,0.0,0.0,-0.0462310314178466,-0.7680521607398987
-0.0282528884708881,1.1331032514572144,-0.1122616305947303,-0.6602001786231995,-0.0884577855467796,-0.0060287532396614,0.0,0.0,-0.1645379662513733,-0.6190155744552612
-0.0294113159179687,1.1178200244903564,-0.1162610501050949,-0.6792351603507996,-0.0880358517169952,0.0084387408569455,0.0,0.0,-0.4581190347671509,-0.7626663446426392
-0.0306000709533691,1.1021301746368408,-0.1200080141425132,-0.6972621083259583,-0.0869091004133224,0.0225352458655834,0.0,0.0,-0.1454505920410156,0.2793408632278442
-0.0317595489323139,1.0860209465026855,-0.1162784248590469,-0.7159410119056702,-0.086585983633995,0.0064621120691299,0.0,0.0,0.2331966161727905,-0.5141907930374146
-0.0329859741032123,1.0703799724578855,-0.1229535564780235,-0.6951375603675842,-0.0862659215927124,0.0064010554924607,0.0,0.0,-0.7860468626022339,-0.191446304321289
-0.0341828353703022,1.0543196201324463,-0.119210198521614,-0.713816225528717,-0.0867425426840782,-0.009532218798995,0.0,0.0,0.5468292236328125,-0.5354201793670654
-0.0353046432137489,1.0390338897705078,-0.1120256036520004,-0.6793805956840515,-0.0868951678276062,-0.0030526530463248,0.0,0.0,0.2886427640914917,-0.628079891204834
-0.0364837646484375,1.0238511562347412,-0.1181035637855529,-0.6747776865959167,-0.0867047682404518,0.0038082015234977,0.0,0.0,-0.7894764542579651,-0.3068016767501831
-0.03763322904706,1.008249044418335,-0.1143468469381332,-0.6934562921524048,-0.0872977152466774,-0.0118590947240591,0.0,0.0,-0.6830999851226807,-0.3635685443878174
-0.0387529358267784,0.9922279715538024,-0.1105875223875045,-0.7121347784996033,-0.0886687189340591,-0.0274200327694416,0.0,0.0,-0.0872946977615356,-0.6411524415016174
-0.0398919098079204,0.9757955074310304,-0.1129887327551841,-0.7303887009620667,-0.0895684584975242,-0.0179948527365922,0.0,0.0,0.1283575296401977,-0.7948652505874634
-0.0410027503967285,0.9597278833389282,-0.1110139489173889,-0.7141187787055969,-0.0896385386586189,-0.001401690300554,0.0,0.0,-0.4855596423149109,-0.576662540435791
-0.04213123396039,0.9432445168495178,-0.113221064209938,-0.7325714230537415,-0.0892691984772682,0.0073868469335138,0.0,0.0,-0.3806788921356201,-0.7378440499305725
-0.0432838425040245,0.9263547658920288,-0.1162622794508934,-0.7505905628204346,-0.0882718488574028,0.0199468005448579,0.0,0.0,0.3331292867660522,-0.1584488153457641
-0.0443779006600379,0.9100659489631652,-0.1095213517546653,-0.7239407300949097,-0.0881641060113906,0.0021549698431044,0.0,0.0,-0.5836162567138672,-0.8821593523025513
-0.0455080047249794,0.8933678865432739,-0.114073671400547,-0.7420791387557983,-0.0871143639087677,0.0209952127188444,0.0,0.0,-0.2052893638610839,-0.161360502243042
-0.0466079711914062,0.8762503862380981,-0.1103198677301406,-0.7607574462890625,-0.0867881700396537,0.006523651536554,0.0,0.0,-0.2213599681854248,0.4697856903076172
-0.0476776137948036,0.8587134480476379,-0.1065702587366104,-0.7794354557991028,-0.0871746465563774,-0.0077294679358601,0.0,0.0,-0.1442044973373413,-0.403241217136383
-0.0487168319523334,0.8407573699951172,-0.1028257608413696,-0.7981135249137878,-0.0882618576288223,-0.0217442661523818,0.0,0.0,0.8957940340042114,-0.7151919603347778
-0.0496057495474815,0.8232781291007996,-0.0888377726078033,-0.7768644690513611,-0.0883201286196708,-0.0011652956018224,0.0,0.0,0.5393190383911133,-0.3226337432861328
-0.0504776947200298,0.8057942390441895,-0.0862805992364883,-0.7771092057228088,-0.0892272219061851,-0.0181419104337692,0.0,0.0,0.7064971923828125,-0.4567521810531616
-0.0512410178780555,0.7884005308151245,-0.07497538626194,-0.7731377482414246,-0.0905731245875358,-0.0269182510673999,0.0,0.0,0.1023358106613159,-0.6302434206008911
-0.05195102840662,0.7710299491882324,-0.0703209564089775,-0.7720664739608765,-0.0912448987364769,-0.0134354066103696,0.0,0.0,0.2122023105621338,-0.7716129422187805
-0.0527281761169433,0.7541831135749817,-0.0778715535998344,-0.7487335205078125,-0.0910944864153862,0.0030083216261118,0.0,0.0,-0.2329729795455932,-0.7588546276092529
-0.0535470955073833,0.736933708190918,-0.0832946747541427,-0.7665567994117737,-0.0897008851170539,0.0278719626367092,0.0,0.0,0.1207122802734375,-0.2475330233573913
-0.0543184280395507,0.719782292842865,-0.0778840780258178,-0.7622431516647339,-0.0889572277665138,0.0148729234933853,0.0,0.0,0.3078697919845581,-0.5690597891807556
-0.0549396499991416,0.7028759717941284,-0.0637063011527061,-0.751295268535614,-0.0873856469988823,0.0314316339790821,0.0,0.0,0.2169725894927978,0.1668564081192016
-0.0555245392024517,0.6863665580749512,-0.0593420676887035,-0.7336981296539307,-0.0865473598241806,0.0167657490819692,0.0,0.0,-0.1129340529441833,-0.4788166880607605
-0.0560783371329307,0.6694377660751343,-0.0557042732834816,-0.7523748278617859,-0.0862205848097801,0.0065355487167835,0.0,0.0,-0.014827013015747,-0.5177197456359863
-0.0566411018371582,0.6520993709564209,-0.057150799781084,-0.7705461382865906,-0.0853505432605743,0.0174006689339876,0.0,0.0,0.240469217300415,-0.4936910271644592
-0.0570297241210937,0.634874165058136,-0.0398021414875984,-0.7655118107795715,-0.0844182521104812,0.0186459627002477,0.0,0.0,0.5044554471969604,-0.6649894714355469
-0.0574981682002544,0.6178862452507019,-0.0485047362744808,-0.7549192905426025,-0.0827790200710296,0.0327843986451625,0.0,0.0,0.4223735332489013,-0.2439484000205993
-0.057797621935606,0.601494550704956,-0.0315798446536064,-0.7284336090087891,-0.0811578407883644,0.0324235297739505,0.0,0.0,-0.0398012399673461,-0.106264054775238
-0.0580652244389057,0.5846830010414124,-0.0280422382056713,-0.7471091747283936,-0.0798955410718917,0.0252460800111293,0.0,0.0,0.572861909866333,-0.0545827150344848
-0.0581675544381141,0.5686152577400208,-0.0115124145522713,-0.7140567898750305,-0.0786278322339057,0.0253542028367519,0.0,0.0,-0.2598023414611816,-0.543988823890686
-0.0582860000431537,0.552138090133667,-0.0140669886022806,-0.7322026491165161,-0.0764255747199058,0.0440453216433525,0.0,0.0,0.3364667892456054,-0.3307124376296997
-0.058308221399784,0.53568434715271,-0.0043847532942891,-0.7311662435531616,-0.0742813572287559,0.0428845770657062,0.0,0.0,0.2485748529434204,-0.4613097906112671
-0.0583344474434852,0.519612193107605,-0.0042236428707838,-0.7142414450645447,-0.072698563337326,0.031655665487051,0.0,0.0,0.0690876245498657,-0.6774716377258301
-0.0582670196890831,0.5036149621009827,0.0038613658398389,-0.7108496427536011,-0.0698455572128295,0.0570601299405097,0.0,0.0,-0.0910245180130004,-0.4814596772193908
-0.0581671707332134,0.4871978759765625,0.0072242827154695,-0.7295238971710205,-0.0671237483620643,0.0544363781809806,0.0,0.0,0.0216172933578491,0.328863263130188
-0.058013629168272,0.470731258392334,0.012674736790359,-0.7317309975624084,-0.0644700601696968,0.0530735552310943,0.0,0.0,0.6555163860321045,-0.6525095701217651
-0.0579753890633583,0.454749584197998,0.0001894394081318,-0.7101450562477112,-0.0608738213777542,0.0719248503446579,0.0,0.0,0.5647227764129639,-0.3249815702438354
-0.057835005223751,0.4395596385002136,0.0103065222501754,-0.6749629378318787,-0.0571922734379768,0.0736313611268997,0.0,0.0,0.487045407295227,-0.040543258190155
-0.0575735084712505,0.4243375062942505,0.0220494288951158,-0.6763857007026672,-0.0531370379030704,0.0811045840382576,0.0,0.0,0.555860161781311,-0.4509165287017822
-0.0572114959359169,0.4098976254463196,0.0319069996476173,-0.6416256427764893,-0.0488919429481029,0.0849023088812828,0.0,0.0,0.3056342601776123,0.1619497537612915
-0.0568731315433979,0.3956036567687988,0.0297714732587337,-0.6351597905158997,-0.0448791682720184,0.0802554860711097,0.0,0.0,0.2808327674865722,0.2355083227157592
-0.0565501227974891,0.3816810846328735,0.0284154657274484,-0.6186696290969849,-0.0410452596843242,0.0766782164573669,0.0,0.0,0.7700901031494141,0.1754922866821289
-0.0561347976326942,0.3683358430862427,0.0373063124716281,-0.5930141806602478,-0.0368706621229648,0.0834921151399612,0.0,0.0,0.0949496030807495,0.0598182678222656
-0.0557522773742675,0.3554142415523529,0.0341984294354915,-0.5741991400718689,-0.0328661501407623,0.0800903961062431,0.0,0.0,0.5731561183929443,0.7049130201339722
-0.0551875121891498,0.3428903818130493,0.0534235127270221,-0.5565528869628906,-0.0298510883003473,0.0603013522922992,0.0,0.0,-0.1184326410293579,0.6089493036270142
-0.0545459762215614,0.3299395442008972,0.061961431056261,-0.5755507946014404,-0.0276858489960432,0.0433047525584697,0.0,0.0,0.414595365524292,-0.2400445938110351
-0.0538073554635047,0.3169834017753601,0.0710591524839401,-0.5757775902748108,-0.0249246414750814,0.0552241913974285,0.0,0.0,0.4702010154724121,-0.1954379677772522
-0.0530586242675781,0.3040612339973449,0.0718464478850364,-0.5742753744125366,-0.021935861557722,0.0597755424678325,0.0,0.0,0.542516827583313,0.0004428625106811
-0.0522710792720317,0.2918296456336975,0.0753729790449142,-0.5435783267021179,-0.0185960605740547,0.0667958408594131,0.0,0.0,0.203385591506958,0.0658012628555297
-0.0513842590153217,0.2800675630569458,0.0846081599593162,-0.522714376449585,-0.0145715232938528,0.0804905742406845,0.0,0.0,-0.171535313129425,0.2772748470306396
-0.0504678711295127,0.2678854465484619,0.0871059074997901,-0.5413881540298462,-0.0101057086139917,0.089316576719284,0.0,0.0,0.5632561445236206,-0.1024837493896484
-0.0496419891715049,0.2557554244995117,0.078175239264965,-0.5390909314155579,-0.0057399938814342,0.0873142182826995,0.0,0.0,0.6696631908416748,0.1802793741226196
-0.0487422943115234,0.2444033920764923,0.0848615691065788,-0.5045219659805298,-0.0006961944163776,0.1008758544921875,0.0,0.0,0.2857905626296997,0.0566260814666748
-0.0478934273123741,0.2333036214113235,0.0796333849430084,-0.4933338463306427,0.0044941497035324,0.1038066744804382,0.0,0.0,0.3734973669052124,0.2796434164047241
-0.0470654480159282,0.2226289361715316,0.0772071704268455,-0.4744558036327362,0.0100054424256086,0.1102259755134582,0.0,0.0,0.2881126403808594,0.4106224775314331
-0.0462259277701377,0.2123522907495498,0.0778540819883346,-0.4567930400371551,0.0160244833678007,0.1203808933496475,0.0,0.0,-0.0492182970046997,0.6681625843048096
-0.045300293713808,0.2016575634479522,0.0874355360865593,-0.4753832519054413,0.0210909638553857,0.1013295650482177,0.0,0.0,0.3335456848144531,0.4318783283233642
-0.0443364158272743,0.1909582018852234,0.0905690640211105,-0.4756180942058563,0.0268311947584152,0.1148046031594276,0.0,0.0,0.4374958276748657,0.1978609561920166
-0.0432772636413574,0.1803680509328842,0.0991155356168747,-0.4708102941513061,0.0335455052554607,0.1342863142490387,0.0,0.0,0.7847603559494019,-0.3257278203964233
-0.0420567505061626,0.1702916026115417,0.1138840094208717,-0.4480471909046173,0.0416101068258285,0.1612924635410308,0.0,0.0,0.4500540494918823,-0.5136258006095886
-0.0407372489571571,0.1603170037269592,0.1217847242951393,-0.4436312019824981,0.0516549572348594,0.2008966952562332,0.0,0.0,0.3930606842041015,-0.4274930953979492
-0.0394338592886924,0.1508725434541702,0.1195502430200576,-0.4201568365097046,0.0623184144496917,0.2132693827152252,0.0,0.0,-0.1227275133132934,-0.3526713848114013
-0.0381101593375206,0.1410101056098938,0.1209336072206497,-0.4388426542282104,0.0736340433359146,0.2263125479221344,0.0,0.0,0.6278890371322632,0.010602593421936
-0.0366930961608886,0.131726935505867,0.1290410906076431,-0.4132566750049591,0.0861801728606224,0.2509226202964782,0.0,0.0,0.5817391872406006,0.1089913845062255
-0.0351882949471473,0.1225062236189842,0.1366892009973526,-0.4106615483760834,0.099845640361309,0.2733093202114105,0.0,0.0,0.8188996315002441,0.4420945644378662
-0.0337797179818153,0.1136969178915023,0.1266749948263168,-0.3925321698188782,0.113925352692604,0.281594455242157,0.0,0.0,0.6066288948059082,0.5460164546966553
-0.0323201194405555,0.1057503521442413,0.1319781243801117,-0.3543044626712799,0.1278308182954788,0.2781094312667846,0.0,0.0,0.0985302925109863,0.0155636072158813
-0.0309089664369821,0.0979475602507591,0.1265277564525604,-0.348103791475296,0.1423627585172653,0.2906387746334076,0.0,0.0,0.1216330528259277,0.8331284523010254
-0.0295930858701467,0.0905311405658721,0.1180504709482193,-0.3309679329395294,0.1558840870857238,0.2704263627529144,0.0,0.0,0.2600026130676269,0.5672931671142578
-0.0282307621091604,0.083517275750637,0.1229974627494812,-0.3131663501262665,0.1691237539052963,0.2647932171821594,0.0,0.0,0.4044424295425415,0.6867749691009521
-0.0269604679197073,0.077036052942276,0.1145655661821365,-0.2895225584506988,0.181614801287651,0.2498208582401275,0.0,0.0,0.2016190290451049,0.7389781475067139
-0.0257880203425884,0.0709443688392639,0.1056503430008888,-0.2722052931785583,0.1932698488235473,0.2331009805202484,0.0,0.0,0.0438605546951293,0.4967918395996094
-0.0246814731508493,0.0648949444293975,0.0984258353710174,-0.2705078721046448,0.2055819183588028,0.246241420507431,0.0,0.0,0.5346167087554932,0.5933096408843994
-0.0237493515014648,0.0592285506427288,0.0817369148135185,-0.2534812986850738,0.2171651721000671,0.2316652089357376,0.0,0.0,0.4141774177551269,0.8601357936859131
-0.0229817386716604,0.0537752248346805,0.066450610756874,-0.2439195960760116,0.2275945246219635,0.2085871249437332,0.0,0.0,0.5877163410186768,0.5756312608718872
-0.0222125053405761,0.0489704236388206,0.0667920038104057,-0.2151443213224411,0.2378714084625244,0.2055375576019287,0.0,0.0,0.0823252201080322,0.678804874420166
-0.0213970188051462,0.0441307164728641,0.0720003098249435,-0.216667041182518,0.2475772500038147,0.1941169202327728,0.0,0.0,0.2474452257156372,0.7488231658935547
-0.0205415729433298,0.0397851094603538,0.0766282528638839,-0.1946664452552795,0.256658524274826,0.1816253364086151,0.0,0.0,0.0434610843658447,0.3342773914337158
-0.0198207851499319,0.0357286073267459,0.0625249221920967,-0.1819902956485748,0.266427218914032,0.1953738331794738,0.0,0.0,0.0522867441177368,0.2988957166671753
-0.0191526412963867,0.0320795886218547,0.0561282336711883,-0.1641633808612823,0.2773735523223877,0.2189265042543411,0.0,0.0,-0.2358171939849853,0.411306619644165
-0.0184826850891113,0.028014788404107,0.0556110516190528,-0.1828633844852447,0.2890797853469848,0.2341244667768478,0.0,1.0,0.9777767658233644,0.9838970899581908
-0.0180737487971782,0.0259581431746482,0.0477751046419143,-0.0906982719898223,0.2804019153118133,-0.1759015619754791,0.0,1.0,0.6306886672973633,0.5288689136505127
-0.0178826339542865,0.025269279256463,0.0426596291363239,-0.0263147596269845,0.2561967968940735,-0.484233945608139,0.0,1.0,-0.3385388851165771,-0.0356386303901672
-0.0177268031984567,0.0244993790984153,0.0463868454098701,-0.0291729047894477,0.224791020154953,-0.6282299757003784,0.0,1.0,-0.2203576564788818,0.0532279014587402
-0.0175424572080373,0.0232886653393507,0.0479956045746803,-0.0495810620486736,0.1949490308761596,-0.596839964389801,0.0,1.0,0.0593311786651611,0.023308515548706
-0.0175043102353811,0.0221313089132308,0.0339299514889717,-0.0477528013288974,0.1647282093763351,-0.6044169664382935,0.0,0.0,-0.9812365174293518,0.2504384517669678
-0.017465878278017,0.0205672606825828,0.0333369188010692,-0.0665115490555763,0.1352718472480774,-0.5891276597976685,0.0,0.0,-0.9503211975097656,-0.3594710826873779
-0.0174277313053607,0.0185955855995416,0.0326521731913089,-0.0852650627493858,0.1065820977091789,-0.5737953186035156,0.0,0.0,-0.774996817111969,-0.3761016130447387
-0.0173906330019235,0.0162154287099838,0.0318792387843132,-0.1040133461356163,0.0786608904600143,-0.5584242343902588,0.0,0.0,-0.284375786781311,-0.5521417260169983
-0.0173913948237895,0.0134238572791218,0.0264278016984462,-0.1228882297873497,0.0524310134351253,-0.5245978236198425,0.0,0.0,0.4122003316879272,-0.8026307225227356
-0.0174699779599905,0.0112583497539162,0.0162622090429067,-0.0955726206302642,0.0286011267453432,-0.4765978455543518,0.0,0.0,-0.2939224243164062,-0.807293713092804
-0.0176079757511615,0.0086683724075555,0.0080970004200935,-0.1148307397961616,0.0069809108972549,-0.4324043393135071,0.0,0.0,0.270706295967102,-0.7592602372169495
