x_pos,y_pos,x_vel,y_vel,angle,ang_vel,leg_1,leg_2,main_booster,lat_booster
-0.0015728950966149,1.403228998184204,-0.1592888236045837,-0.3418242335319519,0.0018010054482147,0.0355292186141014,0.0,0.0,-0.4097042083740234,0.858673095703125
-0.0031226158607751,1.3951618671417236,-0.1548879444599151,-0.3585450351238251,0.001709570758976,-0.0018280546646565,0.0,0.0,-0.4096759557723999,0.7501404285430908
-0.004651260562241,1.3866933584213257,-0.1509239226579666,-0.3763741552829742,-0.0001955585757968,-0.0381064526736736,0.0,0.0,0.4432768821716308,0.5307630300521851
-0.0063014030456542,1.378482460975647,-0.1617375910282135,-0.3649294972419739,-0.0034438513685017,-0.0649717301130294,0.0,0.0,-0.2431800365447998,0.579038143157959
-0.0079480167478322,1.3698779344558716,-0.1599691063165664,-0.3824445605278015,-0.0080827428027987,-0.09278604388237,0.0,0.0,-0.1649694442749023,0.3274985551834106
-0.009646606631577,1.360878348350525,-0.1651721000671386,-0.4000168442726135,-0.0127211529761552,-0.0927769914269447,0.0,0.0,0.2030503749847412,0.6132900714874268
-0.0113622667267918,1.3521138429641724,-0.1656104028224945,-0.3895963430404663,-0.0186062213033437,-0.1177122741937637,0.0,0.0,-0.0729268789291381,0.254206895828247
-0.0131304739043116,1.3429542779922483,-0.1708699762821197,-0.4071777164936065,-0.0244890246540308,-0.1176669374108314,0.0,0.0,-0.2748170495033264,0.7757959365844727
-0.0148914335295557,1.3334062099456787,-0.1686263978481292,-0.4244994819164276,-0.0318751819431781,-0.1477367579936981,0.0,0.0,-0.2630953788757324,0.707099199295044
-0.0166496280580759,1.32346510887146,-0.166927769780159,-0.442029595375061,-0.0406565032899379,-0.1756428480148315,0.0,0.0,-0.2832831144332886,0.6318998336791992
-0.0184035301208496,1.313127040863037,-0.1650804430246353,-0.4597835838794708,-0.0508654043078422,-0.2041970044374466,0.0,0.0,0.1974931955337524,0.5664136409759521
-0.0200897213071584,1.302959680557251,-0.1572937965393066,-0.4523026049137115,-0.0620822608470916,-0.2243577241897583,0.0,0.0,-0.0874524116516113,0.7824273109436035
-0.0217534061521291,1.292395830154419,-0.1531542986631393,-0.4701032638549804,-0.0751813277602195,-0.2620050311088562,0.0,0.0,0.2129623889923095,0.4565075635910034
-0.0233992580324411,1.2818231582641602,-0.1516290158033371,-0.4705970883369446,-0.0880348235368728,-0.2570931017398834,0.0,0.0,-0.051104724407196,-0.1820006370544433
-0.0250971801578998,1.2708572149276731,-0.156857430934906,-0.4881882667541504,-0.1008828654885292,-0.2569843530654907,0.0,0.0,-0.5181661248207092,-0.0108181834220886
-0.0268469806760549,1.2594980001449585,-0.1620566844940185,-0.5057757496833801,-0.1137245148420333,-0.2568564116954803,0.0,0.0,-0.1309115886688232,0.7030928134918213
-0.0285797119140625,1.2477422952651978,-0.1586600840091705,-0.5236502289772034,-0.1282763183116912,-0.2910628914833069,0.0,0.0,0.1450178623199463,-0.599575400352478
-0.0302684791386127,1.235963225364685,-0.1556713283061981,-0.5247136354446411,-0.1414470970630645,-0.2634394466876983,0.0,0.0,0.1417402029037475,-0.7211167812347412
-0.0319095626473426,1.224616765975952,-0.1524658799171447,-0.5054314136505127,-0.1530871987342834,-0.2328232079744339,0.0,0.0,-0.1830973625183105,-0.3171851634979248
-0.0336006172001361,1.212876558303833,-0.1574934124946594,-0.5230242013931274,-0.1647208780050277,-0.2326941490173339,0.0,0.0,-0.2482262849807739,-0.6859154105186462
-0.0353826507925987,1.20075786113739,-0.1676936596632003,-0.5398033857345581,-0.1752627342939376,-0.2108559161424636,0.0,0.0,0.3992259502410888,-0.2906281948089599
-0.0371382720768451,1.188796043395996,-0.165132001042366,-0.5328996777534485,-0.185752123594284,-0.2098061591386795,0.0,0.0,0.0403975248336792,-0.3648574352264404
-0.0387983322143554,1.1769230365753174,-0.1559769809246063,-0.5289844870567322,-0.195854440331459,-0.2020644396543502,0.0,0.0,-0.5822824835777283,-0.6179684996604919
-0.0405489914119243,1.164661169052124,-0.166142851114273,-0.5461680889129639,-0.2048584371805191,-0.180095300078392,0.0,0.0,-0.1149793267250061,-0.7083113789558411
-0.0424136146903038,1.15202796459198,-0.1793040931224823,-0.5624861121177673,-0.2120953649282455,-0.1447517573833465,0.0,0.0,0.923060178756714,-0.6413794755935669
-0.0443814285099506,1.1402573585510254,-0.190441608428955,-0.5240603685379028,-0.2185067236423492,-0.1282268464565277,0.0,0.0,0.6743165254592896,-0.7161095142364502
-0.0462852492928504,1.129191279411316,-0.1854772865772247,-0.4925606548786163,-0.223459705710411,-0.0990599989891052,0.0,0.0,0.6209502220153809,0.6467396020889282
-0.0481386184692382,1.118950366973877,-0.1788674890995025,-0.456142783164978,-0.2300166338682174,-0.1311389356851577,0.0,0.0,-0.0726735591888427,-0.5320665836334229
-0.0500842109322547,1.1083364486694336,-0.189382717013359,-0.4725506901741028,-0.2352615296840667,-0.1048980206251144,0.0,0.0,-0.4983744621276855,-0.0950181484222412
-0.0520717613399028,1.0973273515701294,-0.1935957372188568,-0.4901248514652252,-0.2405033856630325,-0.1048371419310569,0.0,0.0,0.6199468374252319,-0.223258376121521
-0.0538846030831337,1.0871260166168213,-0.1762226521968841,-0.4542274177074432,-0.2456578761339187,-0.1030897349119186,0.0,0.0,-0.6393324136734009,0.10319185256958
-0.055737305432558,1.0765297412872314,-0.1802071779966354,-0.4718015491962433,-0.2508103847503662,-0.1030495762825012,0.0,0.0,-0.0871840715408325,0.0543669462203979
-0.0576284416019916,1.06553852558136,-0.1840711832046508,-0.4893756806850433,-0.2559613883495331,-0.1030196771025657,0.0,0.0,0.4733209609985351,-0.536291241645813
-0.0595767013728618,1.0546534061431885,-0.1906894743442535,-0.4845069348812103,-0.2601794302463531,-0.0843603834509849,0.0,0.0,0.175041913986206,-0.1859079599380493
-0.0614350326359272,1.044015407562256,-0.1817575991153717,-0.4735307693481445,-0.2643435299396515,-0.0832822099328041,0.0,0.0,0.4285764694213867,-0.1186641454696655
-0.0631420165300369,1.0339229106903076,-0.166701003909111,-0.4492802321910858,-0.2684350609779358,-0.0818304941058158,0.0,0.0,-0.1386358737945556,-0.0562864542007446
-0.0648824721574783,1.0234352350234983,-0.1700455695390701,-0.4668536186218261,-0.2725271880626678,-0.0818434357643127,0.0,0.0,-0.0482739806175231,-0.4613049626350403
-0.0666549652814865,1.0125524997711182,-0.1732522994279861,-0.4844270348548889,-0.2766205370426178,-0.0818668827414512,0.0,0.0,0.1374572515487671,-0.0929400920867919
-0.0683256164193153,1.0021227598190308,-0.1629576086997985,-0.4643268287181854,-0.2808409631252289,-0.0844079703092575,0.0,0.0,0.450590968132019,-0.3046563863754272
-0.0698536857962608,0.9920568466186525,-0.1488142311573028,-0.448150485754013,-0.284948855638504,-0.0821572691202163,0.0,0.0,-0.233640968799591,-0.3804440498352051
-0.0714095085859298,0.981595814228058,-0.1515924632549286,-0.4657239615917206,-0.289059430360794,-0.0822112187743187,0.0,0.0,0.0429027080535888,-0.6498956680297852
-0.0728621482849121,0.9711973071098328,-0.1426332741975784,-0.4626795649528503,-0.2917647063732147,-0.0541056580841541,0.0,0.0,-0.9772413969039916,-0.4478429555892944
-0.0743395835161209,0.9604035019874572,-0.1451158821582794,-0.4802522659301758,-0.2944736182689667,-0.0541784688830375,0.0,0.0,-0.7621410489082336,0.2025947570800781
-0.075840376317501,0.9492144584655762,-0.1474488973617553,-0.4978249669075012,-0.2971866130828857,-0.0542601160705089,0.0,0.0,-0.797166645526886,-0.450585126876831
-0.0773630142211914,0.9376301765441896,-0.1496314108371734,-0.5153976678848267,-0.2999041080474853,-0.0543501786887645,0.0,0.0,0.2785583734512329,-0.6894850134849548
-0.0788450241088867,0.9260210394859314,-0.1469677090644836,-0.5162203311920166,-0.3011735677719116,-0.0253891590982675,0.0,0.0,0.3622568845748901,-0.4413660764694214
-0.0801883712410926,0.914521872997284,-0.1333374381065368,-0.511281430721283,-0.3022156357765198,-0.0208413954824209,0.0,0.0,-0.0369130969047546,-0.9239821434020996
-0.0816295593976974,0.9026753306388856,-0.1452700346708297,-0.5262710452079773,-0.3010217845439911,0.0238769669085741,0.0,0.0,0.0367133617401123,-0.9160133600234984
-0.0831018462777137,0.8912259936332703,-0.1502088457345962,-0.508248507976532,-0.297936201095581,0.0617116205394268,0.0,0.0,0.61165452003479,-0.5792714357376099
-0.084507942199707,0.8801211714744568,-0.1446791589260101,-0.4927210807800293,-0.2937344908714294,0.0840343832969665,0.0,0.0,-0.5586094260215759,-0.3954846858978271
-0.085926815867424,0.8686211705207825,-0.1459592878818512,-0.5102946758270264,-0.2895392179489136,0.0839057490229606,0.0,0.0,-0.58599853515625,-0.7282587289810181
-0.0874163657426834,0.8567578196525574,-0.1545969098806381,-0.526152491569519,-0.2837249636650085,0.1162849515676498,0.0,0.0,-0.3453935384750366,-0.6518101096153259
-0.0889567360281944,0.8445135951042175,-0.1607400476932525,-0.5428934097290039,-0.2768382430076599,0.1377338469028473,0.0,0.0,-0.4349452257156372,-0.7892831563949585
-0.0905635803937912,0.8319073915481567,-0.1689552664756775,-0.5587368607521057,-0.2683596014976501,0.1695722639560699,0.0,0.0,-0.0071160793304443,0.1289447546005249
-0.0921774879097938,0.8189067244529724,-0.1696600019931793,-0.5763148069381714,-0.2598881125450134,0.169429525732994,0.0,0.0,-0.9205689430236816,0.6983261108398438
-0.0937525779008865,0.8054905533790588,-0.1646388471126556,-0.5950263142585754,-0.2526154220104217,0.1454538404941558,0.0,0.0,-0.3049659729003906,0.2015663385391235
-0.0953319519758224,0.7916797995567322,-0.1650695353746414,-0.6126028299331665,-0.2453500032424926,0.1453082859516143,0.0,0.0,-0.5976817011833191,0.3454295396804809
-0.0969142913818359,0.7774742841720581,-0.1653684228658676,-0.630179226398468,-0.2380919009447097,0.1451620161533355,0.0,0.0,-0.4308359622955322,-0.1713126897811889
-0.0984982475638389,0.762874186038971,-0.1655391752719879,-0.6477556824684143,-0.230841115117073,0.1450156569480896,0.0,0.0,-0.3871567249298095,-0.6466532945632935
-0.100137710571289,0.747904896736145,-0.1725435554981231,-0.6639842987060547,-0.2221245467662811,0.1743313819169998,0.0,0.0,0.7350659370422363,0.2511129379272461
-0.1016382202506065,0.7330923676490784,-0.1589035093784332,-0.6570256948471069,-0.2131665647029876,0.1791597157716751,0.0,0.0,-0.344548225402832,0.7710704803466797
-0.1030864715576171,0.7178732752799988,-0.1524200439453125,-0.6753306984901428,-0.2055059224367141,0.1532124429941177,0.0,0.0,-0.4056370258331299,0.0023045539855957
-0.1045317649841308,0.7022595405578613,-0.1521205604076385,-0.6929075717926025,-0.1978523582220077,0.1530713587999344,0.0,0.0,0.1210508346557617,0.6883950233459473
-0.1058199852705001,0.6868425011634827,-0.1350644528865814,-0.684384286403656,-0.1915680766105651,0.1256852000951767,0.0,0.0,-0.537147045135498,0.4198650121688843
-0.1071030646562576,0.6710304617881775,-0.1345581412315368,-0.7019596695899963,-0.1852905601263046,0.1255505084991455,0.0,0.0,0.6570079326629639,0.1409571170806884
-0.1083929985761642,0.6557318568229675,-0.1346656084060669,-0.6792405843734741,-0.1795939356088638,0.1139324903488159,0.0,0.0,-0.2545194625854492,0.4658006429672241
-0.1096759811043739,0.6400383114814758,-0.1339745223522186,-0.6968153715133667,-0.1739036291837692,0.1138062477111816,0.0,0.0,-0.2169610857963562,0.2536089420318603
-0.110951229929924,0.6239497661590576,-0.1331997811794281,-0.7143901586532593,-0.1682194024324417,0.1136848777532577,0.0,0.0,0.5722625255584717,0.3265349864959717
-0.1120565384626388,0.6086613535881042,-0.116325557231903,-0.6788426637649536,-0.1624220013618469,0.1159478574991226,0.0,0.0,-0.289983868598938,0.041577935218811
-0.1131526976823806,0.5929779410362244,-0.1154017597436904,-0.696417510509491,-0.1566300988197326,0.1158380359411239,0.0,0.0,0.3537471294403076,0.5208612680435181
-0.1141919121146202,0.5777331590652466,-0.1084871664643287,-0.6770713925361633,-0.1520737111568451,0.091127336025238,0.0,0.0,0.3447771072387695,0.009279727935791
-0.1151192635297775,0.5628387331962585,-0.097404696047306,-0.6615046858787537,-0.1474063545465469,0.0933472216129303,0.0,0.0,-0.513043999671936,0.4581012725830078
-0.116035558283329,0.5475492477416992,-0.0963050723075866,-0.6790785193443298,-0.1427434235811233,0.0932585150003433,0.0,0.0,0.7339625358581543,0.7475471496582031
-0.116712287068367,0.5327337980270386,-0.0710156038403511,-0.6581457257270813,-0.1394047141075134,0.0667741075158119,0.0,0.0,0.3733186721801758,0.0578289031982421
-0.117359735071659,0.5180119872093201,-0.0679596439003944,-0.6540089845657349,-0.13619926571846,0.0641088187694549,0.0,0.0,0.6842612028121948,0.2540855407714844
-0.1178812980651855,0.5033732652664185,-0.0556984059512615,-0.6502922773361206,-0.132676362991333,0.0704586803913116,0.0,0.0,0.5109622478485107,-0.1547179818153381
-0.1183780655264854,0.4888065755367279,-0.0530830435454845,-0.64710932970047,-0.1292898058891296,0.0677311941981315,0.0,0.0,0.8098838329315186,0.5969319343566895
-0.118712805211544,0.4751352369785309,-0.035645592957735,-0.6074270009994507,-0.127121090888977,0.0433741137385368,0.0,0.0,-0.0497984886169433,-0.0024032592773437
-0.1190347671508789,0.4610686004161834,-0.0343813262879848,-0.6249994039535522,-0.1249540075659751,0.0433413609862327,0.0,0.0,0.8175586462020874,-0.7700886726379395
-0.1194254904985427,0.4479891359806061,-0.0425186827778816,-0.5810220241546631,-0.1215315386652946,0.0684493631124496,0.0,0.0,-0.0076861977577209,0.902411699295044
-0.1197488754987716,0.434495061635971,-0.0343488305807113,-0.5995745062828064,-0.1195280700922012,0.0400693491101264,0.0,0.0,0.7731025218963623,-0.8529465198516846
-0.1199774742126464,0.421880304813385,-0.0266711972653865,-0.560356080532074,-0.1157326102256774,0.0759090781211853,0.0,0.0,-0.545709490776062,0.9113616943359376
-0.1201341599225997,0.4088597893714905,-0.0179684087634086,-0.5785121321678162,-0.113449178636074,0.0456688627600669,0.0,0.0,0.7266625165939331,-0.390840470790863
-0.1202554702758789,0.3965094685554504,-0.0141748236492276,-0.5487499833106995,-0.1114293560385704,0.0403962507843971,0.0,0.0,0.1297560930252075,0.0919036865234375
-0.1203202232718467,0.3844780027866363,-0.0084698982536792,-0.5345842242240906,-0.1094452291727066,0.0396824553608894,0.0,0.0,-0.0347294211387634,0.1433879137039184
-0.1203737258911132,0.3720512390136719,-0.0073533640243113,-0.5521565675735474,-0.1074582859873771,0.0397389158606529,0.0,0.0,0.6295771598815918,0.5890806913375854
-0.1203094497323036,0.3597152829170227,0.0055524678900837,-0.5482007265090942,-0.1065831035375595,0.0175033025443553,0.0,0.0,0.2869688272476196,-0.1822746992111206
-0.1201297789812088,0.3474402725696563,0.0167429111897945,-0.5454699993133545,-0.1053693369030952,0.0242754910141229,0.0,0.0,0.7932024002075195,-0.3292279839515686
-0.1197166442871093,0.3356692492961883,0.0393361188471317,-0.5230182409286499,-0.1034117639064788,0.0391517765820026,0.0,0.0,0.769228458404541,-0.6435858011245728
-0.1191420555114746,0.324111133813858,0.0537911169230937,-0.5134443044662476,-0.0997732058167457,0.0727709978818893,0.0,0.0,0.5105499029159546,-0.434612512588501
-0.1184963211417198,0.3131838142871856,0.0609196908771991,-0.485420286655426,-0.0961517468094825,0.0724291652441024,0.0,0.0,0.069608449935913,-0.1780895590782165
-0.1177766770124435,0.3025915920734405,0.0682206228375434,-0.470527321100235,-0.0924298390746116,0.0744381323456764,0.0,0.0,0.0578448772430419,0.1664823293685913
-0.1169321089982986,0.2922312021255493,0.080316737294197,-0.4602152705192566,-0.088330365717411,0.0819893628358841,0.0,0.0,-0.1327846050262451,0.0643858909606933
-0.1160826683044433,0.2814755439758301,0.0807935446500778,-0.4777886271476745,-0.0842211917042732,0.0821835100650787,0.0,0.0,0.2436219453811645,0.5253700017929077
-0.1151989921927452,0.2708964049816131,0.0853608399629592,-0.4700199961662292,-0.0812400951981544,0.0596217103302478,0.0,0.0,0.2916102409362793,-0.6220647692680359
-0.1142337769269943,0.2609349489212036,0.0921101197600364,-0.4424984753131866,-0.0768741220235824,0.087319329380989,0.0,0.0,-0.6669201254844666,0.2736703157424927
-0.1132673248648643,0.2505783438682556,0.0922179594635963,-0.4600719809532165,-0.0724953413009643,0.0875757411122322,0.0,0.0,0.0321724414825439,-0.1745043396949768
-0.1123426407575607,0.2405786365270614,0.0883985832333564,-0.4442418813705444,-0.0684622451663017,0.080661803483963,0.0,0.0,-0.3062134385108948,-0.0286841988563537
-0.1114194840192794,0.2301837503910064,0.0882228761911392,-0.4618151485919952,-0.0644140839576721,0.080963060259819,0.0,0.0,0.055982232093811,0.1455357074737548
-0.1105027198791503,0.2201147377490997,0.0877282246947288,-0.4473451972007751,-0.0605080090463161,0.0781215354800224,0.0,0.0,0.0789060592651367,0.2721176147460937
-0.1096149459481239,0.2103876173496246,0.08505879342556,-0.4321711957454681,-0.056834440678358,0.073471300303936,0.0,0.0,0.1199530363082885,-0.1049515604972839
-0.1087312698364257,0.2007723003625869,0.0847183838486671,-0.4272152781486511,-0.0532202310860157,0.0722842067480087,0.0,0.0,0.337216854095459,0.4792076349258423
-0.1079239845275878,0.1914983540773391,0.0774943530559539,-0.4120639264583587,-0.0500229224562644,0.0639464259147644,0.0,0.0,-0.163000226020813,-0.149626612663269
-0.1071265190839767,0.1818291693925857,0.0764873325824737,-0.4296367466449737,-0.0468044094741344,0.064370222389698,0.0,0.0,0.5948500633239746,0.4766390323638916
-0.1062061339616775,0.1727969944477081,0.0882782191038131,-0.401317685842514,-0.0430904477834701,0.0742793604731559,0.0,0.0,-0.1307322382926941,0.2278594970703125
-0.1052992790937423,0.1633695662021637,0.0868943408131599,-0.4188908040523529,-0.0393526554107666,0.0747558176517486,0.0,0.0,0.4265056848526001,-0.4259715676307678
-0.1042569130659103,0.1545270085334777,0.0998357087373733,-0.3928956687450409,-0.0350103862583637,0.0868455618619918,0.0,0.0,-0.2227801084518432,-0.3260398507118225
-0.1032321006059646,0.1452892571687698,0.0980531126260757,-0.4104692041873932,-0.0306415781378746,0.0873764231801033,0.0,0.0,0.3815233707427978,0.8041787147521973
-0.1020069122314453,0.1367278695106506,0.1195144653320312,-0.3804485201835632,-0.0276704840362072,0.0594218485057354,0.0,0.0,-0.4741840362548828,-0.9112663865089417
-0.1008663177490234,0.1277739405632019,0.1094155311584472,-0.3978719711303711,-0.0230872724205255,0.0916642770171165,0.0,0.0,0.7824110984802246,-0.260257363319397
-0.0997369736433029,0.1197461932897567,0.1082953959703445,-0.3567262291908264,-0.0185092892497777,0.0915594547986984,0.0,0.0,-0.1783057451248169,-0.7812890410423279
-0.0986891761422157,0.1113318502902984,0.0986952111124992,-0.3739083111286163,-0.012501522898674,0.1201554760336875,0.0,0.0,0.9080915451049804,0.613710880279541
-0.0975149124860763,0.1033109053969383,0.1122788414359092,-0.3564527630805969,-0.0074136070907115,0.101758137345314,0.0,0.0,0.4450221061706543,-0.6317475438117981
-0.0965340584516525,0.0957091674208641,0.0918591395020484,-0.337839126586914,-0.0012741337995976,0.1227895393967628,0.0,0.0,0.6980565786361694,0.4814155101776123
-0.0957172363996505,0.0885062515735626,0.0760471224784851,-0.3201323449611664,0.0042915265075862,0.1113132014870643,0.0,0.0,0.3362741470336914,0.8981249332427979
-0.0948861092329025,0.0815920233726501,0.079257994890213,-0.3073137402534485,0.0080923400819301,0.0760164633393287,0.0,0.0,0.4814763069152832,0.9249398708343506
-0.093996524810791,0.0749995782971382,0.0869095474481582,-0.2930105328559875,0.0101215606555342,0.0405842177569866,0.0,0.0,0.3963233232498169,0.7836911678314209
-0.0929635018110275,0.0684633553028106,0.1026031747460365,-0.2905058562755584,0.0108058797195553,0.0136863440275192,0.0,0.0,0.3770812749862671,0.496502161026001
-0.0918972939252853,0.0623878352344036,0.1055086851119995,-0.2700285017490387,0.0119081242009997,0.0220447294414043,0.0,0.0,0.4322755336761474,0.7546283006668091
-0.0907996147871017,0.0569747053086757,0.1100945249199867,-0.2405840009450912,0.011590857990086,-0.0063452222384512,0.0,0.0,-0.1475089192390442,0.8407025337219238
