x_pos,y_pos,x_vel,y_vel,angle,ang_vel,leg_1,leg_2,main_booster,lat_booster
-0.0015406608581542,1.4032679796218872,-0.1558349430561065,-0.3400906920433044,0.001582040451467,0.0311939530074596,0.0,0.0,0.0845399721247728,0.5590570720227338
-0.0030176162254065,1.3957343101501465,-0.1480066478252411,-0.3348277509212494,0.001888211001642,0.0061242077499628,0.0,0.0,0.1809380703638758,0.4312402723134816
-0.0044174194335937,1.3882770538330078,-0.1405538022518158,-0.3314316570758819,0.0024555311538279,0.0113475657999515,0.0,0.0,-0.8336584766039916,-0.3638531323599033
-0.005835342220962,1.3804633617401123,-0.1421624422073364,-0.3472770154476166,0.0028271353803575,0.0074327117763459,0.0,0.0,-0.1101607748688491,0.8609353691128365
-0.0071893692947924,1.3722963333129885,-0.1334923356771469,-0.36297607421875,0.0009385456214658,-0.0377753749489784,0.0,0.0,0.214567843264348,-0.4085408381022104
-0.0084614753723144,1.3643720149993896,-0.1255876719951629,-0.3521928191184997,-0.000657346798107,-0.0319208651781082,0.0,0.0,0.6677647802101163,0.687857153722807
-0.0097225187346339,1.3569655418395996,-0.1228711381554603,-0.3291769623756408,-0.0038617874961346,-0.0640949830412864,0.0,0.0,0.0323694881753182,-0.2207338954869432
-0.0109076499938964,1.349808692932129,-0.1155375838279724,-0.3180945515632629,-0.0068058320321142,-0.0588862411677837,0.0,0.0,-0.7032270093999708,0.2878232533015756
-0.0121119497343897,1.342295527458191,-0.1172748804092407,-0.3339367508888244,-0.0099332332611083,-0.0625535398721695,0.0,0.0,0.7234535994903928,0.807879631806087
-0.0132654188200831,1.3355668783187866,-0.1103827506303787,-0.2990898191928863,-0.0148423835635185,-0.0981921553611755,0.0,0.0,0.910825173620598,0.5179548586758635
-0.0142818447202444,1.3295103311538696,-0.0957924500107765,-0.2692448794841766,-0.0206274464726448,-0.1157119050621986,0.0,0.0,-0.2287191242822248,-0.3018515088717622
-0.0153180118650197,1.3230979442596436,-0.0975855737924575,-0.2850919067859649,-0.0265856198966503,-0.1191743835806846,0.0,0.0,0.9761719280461802,-0.4500739411100928
-0.0161957740783691,1.3175780773162842,-0.0823332518339157,-0.2454355359077453,-0.0319766215980052,-0.1078298315405845,0.0,0.0,-0.8754725836315385,-0.2594477423494448
-0.017093563452363,1.311702013015747,-0.0841622799634933,-0.2612886130809784,-0.0375338420271873,-0.1111546978354454,0.0,0.0,0.3010588092190509,0.7865586378865267
-0.0177992824465036,1.306441068649292,-0.0633734613656997,-0.2340204119682312,-0.0446537695825099,-0.1424116194248199,0.0,0.0,-0.5663355200951865,0.3154281278402862
-0.0185250286012887,1.3008241653442385,-0.0652243047952652,-0.2498734295368194,-0.0519304275512695,-0.1455465257167816,0.0,0.0,0.997771210639702,-0.4622805159579851
-0.0190507881343364,1.2963882684707642,-0.0458617880940437,-0.1973966509103775,-0.0585774257779121,-0.1329517811536789,0.0,0.0,0.6778493352588226,0.712913306323157
-0.0193608291447162,1.2921414375305176,-0.0230563096702098,-0.1890770643949508,-0.0664471015334129,-0.157407745718956,0.0,0.0,-0.1755102323875736,-0.4379927672419792
-0.019690990447998,1.287539005279541,-0.0249318201094865,-0.2049223780632019,-0.0744589492678642,-0.1602513492107391,0.0,0.0,0.8675737471814071,0.0445613281184085
-0.0200846679508686,1.2835485935211182,-0.0307145416736602,-0.177802562713623,-0.0830341875553131,-0.1715207546949386,0.0,0.0,0.6154869335625264,0.2047301033818691
-0.0203130729496479,1.2802860736846924,-0.0146519616246223,-0.1454709470272064,-0.0911585539579391,-0.1625017523765564,0.0,0.0,-0.6624582031746686,-0.6304173566397895
-0.0206105224788188,1.2766709327697754,-0.0226653777062892,-0.1611096560955047,-0.0981795638799667,-0.1404327452182769,0.0,0.0,-0.7827256811327428,-0.3226589044699757
-0.0209279060363769,1.2727004289627075,-0.0245529506355524,-0.1769521683454513,-0.1053204089403152,-0.1428299844264984,0.0,0.0,-0.8661418244870176,-0.3117445043757136
-0.0212652198970317,1.2683743238449097,-0.0264379233121871,-0.1927989870309829,-0.1125740483403205,-0.1450855433940887,0.0,0.0,0.3413863811070179,-0.9552382523135164
-0.0217708591371774,1.264509201049805,-0.0449942573904991,-0.1722133606672287,-0.1181123629212379,-0.1107763051986694,0.0,0.0,0.3618999382619705,0.7062473370519917
-0.0223064422607421,1.2611489295959473,-0.0462642833590507,-0.149938017129898,-0.1253734081983566,-0.1452206671237945,0.0,0.0,0.1910199117019753,-0.9651745295160712
-0.0228683464229106,1.2582321166992188,-0.0507375821471214,-0.1301051378250122,-0.1307969838380813,-0.1084715873003006,0.0,0.0,0.1149270504587334,0.3529882948621226
-0.0234645847231149,1.2558051347732544,-0.0536793358623981,-0.108404092490673,-0.1367139667272567,-0.1183395609259605,0.0,0.0,-0.3797198198126947,0.5609239666224777
-0.024045180529356,1.2530198097229004,-0.0511750169098377,-0.1244387850165367,-0.1435844600200653,-0.137409508228302,0.0,0.0,0.9646769649392776,-0.8219322365855886
-0.0246535297483205,1.2507562637329102,-0.0554669275879859,-0.1011288538575172,-0.1489412486553192,-0.1071361452341079,0.0,0.0,0.6134073526278601,-0.9682471468820464
-0.0252121929079294,1.249386429786682,-0.0524058826267719,-0.0612323991954326,-0.1523929983377456,-0.0690350234508514,0.0,0.0,-0.9879546165466307,-0.8814004063606262
-0.0258676521480083,1.2476730346679688,-0.0640327781438827,-0.0762982591986656,-0.1539097130298614,-0.0303343143314123,0.0,0.0,-0.9933078289031982,-0.8793862462043762
-0.0266186706721782,1.2456300258636477,-0.0755447000265121,-0.0907598361372947,-0.1534660160541534,0.0088740894570946,0.0,0.0,-0.9396539926528932,-0.8324085474014282
-0.0274602882564067,1.2432398796081543,-0.0864128619432449,-0.1059994176030159,-0.1512209326028823,0.0449015535414218,0.0,0.0,-0.9903623461723328,-0.36955726146698
-0.0283194538205862,1.2404935359954834,-0.0881424099206924,-0.1218386366963386,-0.1490034610033035,0.0443496629595756,0.0,0.0,-0.9561808109283448,-0.940971314907074
-0.0292664524167776,1.2374138832092283,-0.0987337082624435,-0.1364708989858627,-0.1449759751558303,0.0805499404668808,0.0,0.0,-0.9253978729248048,-0.4415646195411682
-0.0302301403135061,1.233978271484375,-0.1003993898630142,-0.1523108482360839,-0.1409586369991302,0.0803465098142623,0.0,0.0,-0.9123539328575134,-0.2904271483421325
-0.0312101356685161,1.2301863431930542,-0.1020288318395614,-0.1681506633758545,-0.1369428038597107,0.0803168714046478,0.0,0.0,-0.952703297138214,0.238118290901184
-0.032205868512392,1.2260384559631348,-0.1036192327737808,-0.1839903742074966,-0.1329198330640792,0.080459713935852,0.0,0.0,-0.7883784174919128,0.6054530143737793
-0.033167265355587,1.221524953842163,-0.0989215075969696,-0.2003521919250488,-0.1301471441984176,0.0554532408714294,0.0,0.0,-0.9436331391334534,-0.4413003921508789
-0.0341434478759765,1.216655135154724,-0.1004248112440109,-0.2161910384893417,-0.1273504197597503,0.0559345968067646,0.0,0.0,-0.9743343591690063,-0.687070369720459
-0.0351767539978027,1.2114357948303225,-0.1072736606001854,-0.2316390573978424,-0.1234312653541565,0.0783832445740699,0.0,0.0,-0.8122747540473938,0.4506412744522095
-0.0362236984074115,1.205860257148743,-0.1086779460310936,-0.2474784106016159,-0.1194717660546302,0.0791901871562004,0.0,0.0,-0.6873716711997986,0.4535444974899292
-0.0372836105525493,1.1999285221099854,-0.1100279688835144,-0.2633177042007446,-0.1154640763998031,0.0801537483930587,0.0,0.0,-0.8274560570716858,0.4901024103164673
-0.0383559241890907,1.1936403512954712,-0.1113205105066299,-0.2791569530963897,-0.111400619149208,0.0812692120671272,0.0,0.0,-0.8898628950119019,0.7197479009628296
-0.039379596710205,1.186978459358215,-0.1049613207578659,-0.2958904206752777,-0.1088224798440933,0.0515628643333911,0.0,0.0,-0.9712615609169006,0.7271137237548828
-0.0403515808284282,1.179945945739746,-0.0982526168227195,-0.3124803900718689,-0.107773058116436,0.0209880527108907,0.0,0.0,-0.6405483484268188,0.7836954593658447
-0.0412830337882041,1.1725572347640991,-0.0929995402693748,-0.328400194644928,-0.1079149320721626,-0.0028375014662742,0.0,0.0,-0.1322616338729858,0.2631067037582397
-0.0422240272164344,1.1648118495941162,-0.0940292850136756,-0.3442379236221313,-0.1079733669757843,-0.0011688148370012,0.0,0.0,-0.8976694941520691,0.4520630836486816
-0.0431735031306743,1.156710147857666,-0.0949851423501968,-0.3600755631923675,-0.1079422086477279,0.0006233742460608,0.0,0.0,-0.8463001847267151,0.8828641176223755
-0.0440449714660644,1.1482378244400024,-0.0850730463862419,-0.3767033517360687,-0.1099961623549461,-0.0410793125629425,0.0,0.0,-0.9600455164909364,0.2913750410079956
-0.0449233055114746,1.1394089460372925,-0.0858713835477829,-0.3925412595272064,-0.1119490936398506,-0.0390586927533149,0.0,0.0,-0.8279858231544495,0.1783070564270019
-0.0458077415823936,1.1302236318588257,-0.0865861028432846,-0.4083790481090545,-0.1137957572937011,-0.0369331426918506,0.0,0.0,-0.9308336973190308,0.2467529773712158
-0.0466973297297954,1.1206817626953125,-0.0872140675783157,-0.4242167174816131,-0.1155312061309814,-0.0347088724374771,0.0,0.0,-0.7201266288757324,0.5132267475128174
-0.047541044652462,1.110772728919983,-0.0814516693353653,-0.4406282305717468,-0.1184291839599609,-0.057959746569395,0.0,0.0,-0.7805060148239136,-0.4086034297943115
-0.0483880043029785,1.1005072593688965,-0.0818971693515777,-0.4564662277698517,-0.1212069764733314,-0.0555560067296028,0.0,0.0,-0.5024324059486389,-0.8004799485206604
-0.0492895133793354,1.0899022817611694,-0.0888467207551002,-0.4714384973049164,-0.1225089654326438,-0.0260395742952823,0.0,0.0,-0.7455334663391113,-0.7634537220001221
-0.0502382293343544,1.078952431678772,-0.0948732644319534,-0.4866629242897033,-0.1225067675113678,4.365907443570904e-05,0.0,0.0,-0.4416012763977051,-0.1540868282318115
-0.0511871352791786,1.0676459074020386,-0.0950242429971695,-0.5024999976158142,-0.1223730891942977,0.0026733856648206,0.0,0.0,-0.876977801322937,-0.0938782691955566
-0.0521351806819438,1.0559829473495483,-0.095072254538536,-0.5183371305465698,-0.1221047043800354,0.0053675984963774,0.0,0.0,-0.6691790819168091,0.137918472290039
-0.0530812256038188,1.0439631938934326,-0.0950151979923248,-0.5341742038726807,-0.1216986775398254,0.0081203375011682,0.0,0.0,-0.838103711605072,-0.5447912812232971
-0.0540738105773925,1.031599044799805,-0.101092480123043,-0.549375593662262,-0.1198824048042297,0.0363255739212036,0.0,0.0,-0.952941358089447,-0.1365073323249817
-0.0550623908638954,1.0188782215118408,-0.1008200794458389,-0.5652129650115967,-0.1179232001304626,0.0391839332878589,0.0,0.0,-0.7893425226211548,0.1643847227096557
-0.0560456290841102,1.00580096244812,-0.1004378423094749,-0.5810502767562866,-0.1158188134431839,0.0420879013836383,0.0,0.0,-0.8161385655403137,0.794991135597229
-0.0569596290588378,0.9923502802848816,-0.0920460820198059,-0.5977634787559509,-0.115176685154438,0.0128426030278205,0.0,0.0,-0.986452043056488,-0.6731301546096802
-0.057929802685976,0.9785542488098145,-0.0994433090090751,-0.6129662990570068,-0.1127659603953361,0.0482145026326179,0.0,0.0,-0.985550343990326,0.3992370367050171
-0.0588911995291709,0.96440190076828,-0.0987265557050705,-0.6288038492202759,-0.1102043911814689,0.0512311942875385,0.0,0.0,-0.8570817112922668,0.905797004699707
-0.0597627647221088,0.9498687982559204,-0.0878173559904098,-0.6458686590194702,-0.1095480769872665,0.0131264086812734,0.0,0.0,-0.8473098874092102,-0.476689338684082
-0.0606233589351177,0.9349791407585144,-0.0868763029575347,-0.6617057919502258,-0.1087380722165107,0.0162003133445978,0.0,0.0,-0.903832197189331,0.0417356491088867
-0.0614718422293663,0.919732928276062,-0.0858237370848655,-0.6775428652763367,-0.1077731847763061,0.01929796859622,0.0,0.0,-0.9042890667915344,0.5499718189239502
-0.0622703544795513,0.9041264653205872,-0.0800421610474586,-0.693610429763794,-0.1075812056660652,0.0038392655551433,0.0,0.0,-0.43898606300354,-0.4921209812164306
-0.0630545616149902,0.8881633877754211,-0.078769251704216,-0.7094475030899048,-0.1072323992848396,0.006976066622883,0.0,0.0,-0.7966363430023193,-0.2277021408081054
-0.0638234168291091,0.871843695640564,-0.0773881375789642,-0.7252845764160156,-0.1067259609699249,0.0101284440606832,0.0,0.0,-0.5269383788108826,-0.6314573884010315
-0.0646193474531173,0.8551743626594543,-0.0813743770122528,-0.7407306432723999,-0.1049555316567421,0.0354086309671402,0.0,0.0,0.0950613021850586,-0.4372210502624511
-0.0653927773237228,0.8385388255119324,-0.0791840031743049,-0.7392329573631287,-0.1031296625733375,0.0365174636244773,0.0,0.0,0.2209389209747314,-0.2777290940284729
-0.066072940826416,0.8218973875045776,-0.0702510476112365,-0.7394691109657288,-0.1009120568633079,0.0443521440029144,0.0,0.0,-0.0263671278953552,-0.3694560527801513
-0.0667334571480751,0.8048994541168213,-0.0684564262628555,-0.755306601524353,-0.0985348299145698,0.0475444346666336,0.0,0.0,0.4412671327590942,-0.3920781016349792
-0.0673127174377441,0.7885789275169373,-0.0604473762214183,-0.7251921892166138,-0.0960315093398094,0.0500666685402393,0.0,0.0,-0.1355951428413391,-0.5305745005607605
-0.0679062828421592,0.7719124555587769,-0.0629741698503494,-0.7405034899711609,-0.0924493074417114,0.0716439187526702,0.0,0.0,-0.0126368999481201,-0.1594671010971069
-0.0684774369001388,0.7548896670341492,-0.0608958527445793,-0.756341814994812,-0.0887070149183273,0.0748459249734878,0.0,0.0,-0.1753557324409485,0.2686160802841186
-0.0690253227949142,0.7375105023384094,-0.0587288849055767,-0.7721801996231079,-0.0848046168684959,0.0780479311943054,0.0,0.0,0.4428303241729736,0.3512377738952636
-0.0694555267691612,0.7208022475242615,-0.0472807064652442,-0.7423504590988159,-0.0805792361497879,0.0845075994729995,0.0,0.0,-0.1211942434310913,0.3258253335952759
-0.0698606520891189,0.7037378549575806,-0.0449459217488765,-0.75818932056427,-0.0761939734220504,0.0877051055431366,0.0,0.0,0.3027281761169433,0.642109751701355
-0.0701962485909462,0.6871187090873718,-0.0367773100733757,-0.7384660840034485,-0.0730107203125953,0.0636649802327156,0.0,0.0,-0.1118220090866088,0.1724274158477783
-0.0705053359270095,0.6701431274414062,-0.0342876762151718,-0.7543043494224548,-0.069668099284172,0.0668526217341423,0.0,0.0,0.3834421634674072,0.5583467483520508
-0.0706299766898155,0.6535276174545288,-0.0150575842708349,-0.7383558750152588,-0.0671013742685318,0.0513345077633857,0.0,0.0,-0.2630484700202942,0.4399086236953735
-0.070726677775383,0.6365556120872498,-0.0124263633042573,-0.7541940212249756,-0.0643760114908218,0.0545071959495544,0.0,0.0,-0.1877171397209167,-0.121193528175354
-0.0707947760820388,0.6192269325256348,-0.009729285724461,-0.7700322270393372,-0.0614924915134906,0.0576705634593963,0.0,0.0,-0.0117411613464355,-0.2560164928436279
-0.0708337798714637,0.6015421152114868,-0.0069695725105702,-0.7858705520629883,-0.0584513209760189,0.06082334369421,0.0,0.0,0.6124937534332275,0.3697385787963867
-0.0706846266984939,0.5840653777122498,0.0110456636175513,-0.7765960097312927,-0.0546237342059612,0.0765517204999923,0.0,0.0,0.5638877153396606,0.1127426624298095
-0.0704715698957443,0.5672979950904846,0.0172954406589269,-0.7450780272483826,-0.0506645739078521,0.0791831761598587,0.0,0.0,0.1350531578063964,0.234402060508728
-0.0701800361275672,0.5509535074234009,0.0248888358473777,-0.7262874245643616,-0.0464514084160327,0.084263376891613,0.0,0.0,0.3454489707946777,0.0386416912078857
-0.0697305649518966,0.5350595712661743,0.0400490202009677,-0.7062490582466125,-0.0416141711175441,0.0967446938157081,0.0,0.0,-0.1003883481025695,0.1059201955795288
-0.0692493468523025,0.5188096165657043,0.0430759489536285,-0.7220889925956726,-0.0366228558123111,0.0998265221714973,0.0,0.0,0.4395389556884765,0.2548321485519409
-0.0687652602791786,0.5028711557388306,0.043412871658802,-0.7082617282867432,-0.0316901244223117,0.0986544489860534,0.0,0.0,0.2254719734191894,0.2946418523788452
-0.068165399134159,0.4875331223011017,0.0545376539230346,-0.6815850734710693,-0.0263147633522748,0.1075073257088661,0.0,0.0,0.1368240118026733,0.2889300584793091
-0.0675382614135742,0.4724269211292267,0.0571945682168006,-0.6712999939918518,-0.0208623968064785,0.1090472787618637,0.0,0.0,0.2446966171264648,0.5709576606750488
-0.0669229477643966,0.4578704833984375,0.0572085678577423,-0.6469009518623352,-0.0165940783917903,0.0853664353489875,0.0,0.0,-0.5656940340995789,0.2680054903030395
-0.0662737861275672,0.4429578185081482,0.0604349188506603,-0.6627406477928162,-0.0121767567470669,0.0883462578058242,0.0,0.0,-0.0296931862831115,0.2134016752243042
-0.0655906647443771,0.4276891052722931,0.0636941567063331,-0.6785805225372314,-0.0076116775162518,0.091301679611206,0.0,0.0,0.8475854396820068,0.4025402069091797
-0.064959242939949,0.4133213460445404,0.0588063672184944,-0.6385523080825806,-0.0033280730713158,0.0856720507144928,0.0,0.0,0.2091752290725708,0.401645302772522
-0.064310073852539,0.399144172668457,0.0605125501751899,-0.6300912499427795,0.0010164405684918,0.086890235543251,0.0,0.0,0.2606524229049682,0.2077763080596923
-0.0637154579162597,0.3852991163730621,0.0553283765912056,-0.6153438091278076,0.0050928350538015,0.0815282016992569,0.0,0.0,0.3119643926620483,0.4595488309860229
-0.0632073432207107,0.3717209100723266,0.0470993816852569,-0.6034952402114868,0.0087586678564548,0.0733166113495826,0.0,0.0,0.8419778347015381,0.7281556129455566
-0.0624849312007427,0.3589948713779449,0.0695501416921615,-0.5656174421310425,0.0114084659144282,0.0529962666332721,0.0,0.0,-0.1157128810882568,0.7884660959243774
-0.0616581924259662,0.345906913280487,0.0815978571772575,-0.5816971659660339,0.0124697964638471,0.0212263371795415,0.0,0.0,0.6204040050506592,0.570868968963623
-0.0606067664921283,0.3335930109024048,0.1046928018331527,-0.5472867488861084,0.0129174822941422,0.0089536178857088,0.0,0.0,-0.5944961309432983,-0.1964808106422424
-0.05951938778162,0.3209228217601776,0.1081482991576194,-0.5631253123283386,0.0135005051270127,0.0116604845970869,0.0,0.0,0.1685044765472412,-0.5875778794288635
-0.058338738977909,0.3088108897209167,0.1159682720899581,-0.5383270382881165,0.0155750019475817,0.0414899252355098,0.0,0.0,-0.5728817582130432,-0.0844636559486389
-0.0571217536926269,0.2963427007198334,0.1194576248526573,-0.5541659593582153,0.0177809204906225,0.0441184528172016,0.0,0.0,0.0790690183639526,-0.3667954802513122
-0.05588274076581,0.2843178808689117,0.121566854417324,-0.5344646573066711,0.0200944244861602,0.0462697967886924,0.0,0.0,-0.3362630605697632,-0.1584086418151855
-0.0546071045100688,0.2719368040561676,0.1250851899385452,-0.5503036975860596,0.0225350875407457,0.0488130748271942,0.0,0.0,0.338241696357727,-0.2850936651229858
-0.0532381050288677,0.259758710861206,0.1339999586343765,-0.5412974953651428,0.025402607396245,0.0573504343628883,0.0,0.0,0.2441357374191284,-0.4480637311935425
-0.0519363395869731,0.2479190975427627,0.1275852620601654,-0.5262545347213745,0.0279665887355804,0.05127964168787,0.0,0.0,0.4951369762420654,-0.7445361018180847
-0.0507983192801475,0.236411914229393,0.1098083853721618,-0.5115101337432861,0.0319099687039852,0.078867495059967,0.0,0.0,0.4122005701065063,-0.3661192059516907
-0.0496572479605674,0.2252700924873352,0.110082522034645,-0.4952800571918487,0.0358857549726963,0.0795157626271247,0.0,0.0,0.4489450454711914,0.3077993392944336
-0.0484732612967491,0.2144748121500015,0.1141473278403282,-0.4798988997936249,0.0400818474590778,0.0839217901229858,0.0,0.0,-0.0346885323524475,-0.7909914255142212
-0.0473011955618858,0.2033133059740066,0.1116013303399086,-0.4962243437767029,0.045623529702425,0.1108337268233299,0.0,0.0,0.6446952819824219,-0.6478001475334167
-0.0460692420601844,0.1928227990865707,0.1159315109252929,-0.4664878249168396,0.0528032816946506,0.1435948014259338,0.0,0.0,0.0062301158905029,0.1122697591781616
-0.0448109619319438,0.1827136576175689,0.1183875650167465,-0.4495734572410583,0.0601602010428905,0.1471386849880218,0.0,0.0,0.4822084903717041,-0.5482978224754333
