x_pos,y_pos,x_vel,y_vel,angle,ang_vel,leg_1,leg_2,main_booster,lat_booster
-0.0014883041149005,1.403274655342102,-0.1511408537626266,-0.3397950828075409,0.0020572978537529,0.0406041890382766,0.0,0.0,-0.2782783508300781,0.6774752140045166
-0.0028808594215661,1.3952995538711548,-0.1401044875383377,-0.3544491827487945,0.0028999862261116,0.0168564692139625,0.0,0.0,-0.3192614316940307,0.6953572034835815
-0.0041656494140625,1.3869695663452148,-0.1279066801071167,-0.370225727558136,0.0023382764775305,-0.0112350853160023,0.0,0.0,-0.1991368532180786,0.7278778553009033
-0.0053608892485499,1.3782875537872314,-0.1180411204695701,-0.3858705461025238,0.0008795919711701,-0.0291767157614231,0.0,0.0,0.4148032665252685,-0.1992565989494323
-0.0064000128768384,1.3700933456420898,-0.1032141596078872,-0.3641806244850158,0.0001913160231197,-0.0137670738622546,0.0,0.0,-0.3207507729530334,0.4531066417694092
-0.007390690036118,1.3615493774414062,-0.0986049324274063,-0.3797321915626526,-0.0002734937006607,-0.0092969005927443,0.0,0.0,-0.8005593419075012,-0.1007376909255981
-0.0083309169858694,1.3526557683944702,-0.0937609523534774,-0.3952741920948028,-0.0005314662703312,-0.0051600816659629,0.0,0.0,-0.5153945684432983,0.4017282724380493
-0.0092185977846384,1.3434123992919922,-0.0886949151754379,-0.4108181297779083,-0.0006005585310049,-0.0013815781567245,0.0,0.0,-0.2209042310714721,0.7095280885696411
-0.0099969860166311,1.333826780319214,-0.0765489041805267,-0.4260230660438537,-0.0018757666694,-0.0255066603422164,0.0,0.0,-0.8731442093849182,0.2196764945983886
-0.0107190134003758,1.3238914012908936,-0.0710699707269668,-0.4415679574012756,-0.0029971902258694,-0.0224303677678108,0.0,0.0,-0.8422591686248779,-0.0168292522430419
-0.011383056640625,1.3136065006256104,-0.0654043704271316,-0.4571127891540527,-0.0039837965741753,-0.019733864814043,0.0,0.0,0.0205860137939453,-0.7713714241981506
-0.0119961742311716,1.303459644317627,-0.0620051547884941,-0.4509672820568084,-0.0032970507163554,0.0137360412627458,0.0,0.0,-0.7361184358596802,0.121231198310852
-0.0125482557341456,1.292962908744812,-0.0560024157166481,-0.4665161669254303,-0.002512484556064,0.0156928654760122,0.0,0.0,-0.7950403094291687,-0.2885793447494507
-0.0130378725007176,1.2821166515350342,-0.0498436503112316,-0.482059895992279,-0.0016471003182232,0.0173097178339958,0.0,0.0,-0.9255757927894592,-0.809614896774292
-0.0135128023102879,1.2709290981292725,-0.0496764369308948,-0.4972260892391205,0.0005109559861011,0.0431649908423423,0.0,0.0,-0.922451674938202,-0.4576352834701538
-0.0139228822663426,1.2593916654586792,-0.0432394221425056,-0.512771487236023,0.0027128991205245,0.0440427958965301,0.0,0.0,-0.9218543767929076,-0.5595276355743408
-0.0143012050539255,1.2475111484527588,-0.0409497804939746,-0.5280351042747498,0.0057982536964118,0.0617125332355499,0.0,0.0,-0.8631336092948914,-0.7079458832740784
-0.0146553041413426,1.2352745532989502,-0.0396214872598648,-0.5438694357872009,0.0099656274542212,0.0833546668291091,0.0,0.0,-0.8673004508018494,-0.1434290409088134
-0.0149416923522949,1.2226884365081787,-0.032831959426403,-0.5594156384468079,0.014124397188425,0.0831832289695739,0.0,0.0,-0.6485656499862671,-0.2508526444435119
-0.0151593210175633,1.2097527980804443,-0.0259387344121933,-0.5749621987342834,0.0182581879198551,0.082683116197586,0.0,0.0,-0.7497455477714539,0.3890562057495117
-0.0153074264526367,1.196467638015747,-0.018949419260025,-0.5905086994171143,0.0223501566797494,0.0818466022610664,0.0,0.0,-0.8464059829711914,-0.0956662893295288
-0.0153854368254542,1.182832956314087,-0.0118708536028862,-0.6060553193092346,0.0263840500265359,0.080684944987297,0.0,0.0,-0.7952914237976074,0.239173412322998
-0.0153924943879246,1.1688486337661743,-0.0047096898779273,-0.6216018795967102,0.0303439833223819,0.0792056918144226,0.0,0.0,-0.4439554214477539,-0.3720262050628662
-0.0153281213715672,1.1545145511627195,0.002527801785618,-0.6371485590934753,0.03421451151371,0.0774172097444534,0.0,0.0,-0.8055893182754517,0.5215539932250977
-0.0151601787656545,1.139833927154541,0.0137863513082265,-0.6525408029556274,0.0371876955032348,0.0594689175486564,0.0,0.0,-0.856860876083374,0.2415081262588501
-0.0149190900847315,1.1247823238372805,0.021214984357357,-0.6690396070480347,0.0400423668324947,0.0570937022566795,0.0,0.0,-0.9044288992881776,0.0295163393020629
-0.0146049503237009,1.109380841255188,0.0286565367132425,-0.6845828890800476,0.0427649356424808,0.05445147305727,0.0,0.0,-0.6174760460853577,0.1728641986846923
-0.0142172817140817,1.0936297178268433,0.0361513383686542,-0.700126051902771,0.0453423149883747,0.05154749751091,0.0,0.0,0.0343786478042602,0.1903058290481567
-0.0138593669980764,1.0782500505447388,0.0337183251976966,-0.683606743812561,0.047383889555931,0.0408316142857074,0.0,0.0,-0.7543381452560425,-0.3862344026565552
-0.0134274484589695,1.0625205039978027,0.0413046665489673,-0.6991494297981262,0.049255546182394,0.037433136254549,0.0,0.0,-0.6451867818832397,0.0816982984542846
-0.0129209514707326,1.0464413166046145,0.0489297173917293,-0.7146920561790466,0.0509456656873226,0.0338024869561195,0.0,0.0,-0.4622743725776672,-0.063662588596344
-0.012339973822236,1.030012130737305,0.0565890185534954,-0.7302345037460327,0.0524431578814983,0.0299500077962875,0.0,0.0,-0.5291773676872253,-0.3577727079391479
-0.0116840358823537,1.0132331848144531,0.0642782598733902,-0.745776891708374,0.0537374652922153,0.0258859787136316,0.0,0.0,-0.3363839387893677,-0.110771894454956
-0.0109532354399561,0.99610435962677,0.07199327647686,-0.761319100856781,0.0548184961080551,0.0216205921024084,0.0,0.0,-0.1653530597686767,-0.2103704214096069
-0.0101472856476902,0.9786256551742554,0.0797300413250923,-0.7768611311912537,0.0556766986846923,0.0171640645712614,0.0,0.0,-0.0947173237800598,0.5643346309661865
-0.0092203142121434,0.9608051776885986,0.0932331904768943,-0.7920011878013611,0.0551450885832309,-0.0106319244951009,0.0,0.0,-0.2658919095993042,0.0866580009460449
-0.008218097500503,0.9426348209381104,0.1010018214583396,-0.8075430393218994,0.0543730743229389,-0.015440372750163,0.0,0.0,-0.0739353895187377,-0.2185679078102111
-0.0071406364440917,0.9241145849227904,0.1087807416915893,-0.8230849504470825,0.0533525943756103,-0.0204097684472799,0.0,0.0,0.0038872957229614,-0.5791209936141968
-0.0060880659148097,0.9060118794441224,0.1054219231009483,-0.8045560717582703,0.0531919114291667,-0.0032137166708707,0.0,0.0,-0.2624119520187378,0.5109844207763672
-0.0049180029891431,0.8875634074211121,0.1185129731893539,-0.8198807835578918,0.0517033971846103,-0.029770502820611,0.0,0.0,-0.1458033323287964,-0.8553857207298279
-0.0037526129744946,0.8687659502029419,0.1162906140089035,-0.8354474902153015,0.0519477427005767,0.004886801354587,0.0,0.0,-0.2599570155143738,-0.3763738870620727
-0.0025121688377112,0.849618673324585,0.1240748763084411,-0.8509893417358398,0.0519162975251674,-0.0006289213197305,0.0,0.0,-0.5089684128761292,-0.5880125761032104
-0.0012355804210528,0.8301119208335876,0.1269840449094772,-0.8669891357421875,0.0525859706103801,0.0133932009339332,0.0,0.0,-0.0479461550712585,-0.3720892667770386
0.0001157760634669,0.8102552890777588,0.134750097990036,-0.882530927658081,0.0529690198600292,0.0076610571704804,0.0,0.0,-0.1001768708229065,-0.8168085217475891
0.0014731406699866,0.7900335788726807,0.1338901221752166,-0.8988081812858582,0.0547977164387702,0.0365739427506923,0.0,0.0,-0.4540697336196899,0.0690586566925048
0.0029048919677734,0.769461989402771,0.1416242718696594,-0.9143502116203308,0.0563307851552963,0.0306612960994243,0.0,0.0,0.0476875305175781,-0.8117820620536804
0.00437593460083,0.7489590048789978,0.1442081928253173,-0.9113598465919496,0.0591960996389389,0.0573061890900135,0.0,0.0,0.5270528793334961,-0.6359126567840576
0.005711555480957,0.729252278804779,0.1299492865800857,-0.8759981989860535,0.0627782940864563,0.0716439038515091,0.0,0.0,-0.1057800650596618,0.1233823299407959
0.007120800204575,0.7091957926750183,0.1376098692417144,-0.8915407061576843,0.0660545825958252,0.0655256882309913,0.0,0.0,0.9107038974761964,-0.3243957757949829
0.0085398675873875,0.6896676421165466,0.1390303969383239,-0.8680551648139954,0.068909116089344,0.0570907294750213,0.0,0.0,0.6020663976669312,0.0198681354522705
0.010132503695786,0.670632541179657,0.1560400128364563,-0.846159815788269,0.0720963403582573,0.0637446641921997,0.0,0.0,-0.4535336494445801,-0.8553674817085266
0.0117232324555516,0.6512452363967896,0.1542870849370956,-0.8618957996368408,0.0768356621265411,0.0947863608598709,0.0,0.0,0.4594596624374389,-0.612428605556488
0.0134127615019679,0.6320988535881042,0.1630196124315261,-0.851269006729126,0.0827070325613021,0.1174275130033493,0.0,0.0,0.3976614475250244,-0.6951977610588074
0.0150657650083303,0.6136114597320557,0.158293604850769,-0.8220580220222473,0.0896515697240829,0.138890653848648,0.0,0.0,0.333204984664917,-0.1338149905204773
0.0168743133544921,0.5953788161277771,0.1736052483320236,-0.810793936252594,0.0968367829918861,0.1437044441699981,0.0,0.0,0.1050829887390136,-0.2784929275512695
0.018659209832549,0.5772578716278076,0.1718608438968658,-0.8058180212974548,0.1034106016159057,0.1314763277769088,0.0,0.0,0.4918932914733886,-0.2775760293006897
0.0205240249633789,0.5598742961883545,0.1797908991575241,-0.7730819582939148,0.1100615188479423,0.1330182552337646,0.0,0.0,0.1525068283081054,0.6908202171325684
0.0225687976926565,0.5428721308708191,0.1993531882762909,-0.756036639213562,0.1151475235819816,0.1017200946807861,0.0,0.0,-0.1868758201599121,-0.7461053133010864
0.0246301647275686,0.5255189538002014,0.200030118227005,-0.7717365622520447,0.1212201118469238,0.1214519292116165,0.0,0.0,0.158412218093872,-0.0182703137397766
0.0266399383544921,0.5086266398429871,0.1954300105571746,-0.7512282729148865,0.1267325282096862,0.1102484315633773,0.0,0.0,0.1525816917419433,-0.5577637553215027
0.0286799427121877,0.4917633533477783,0.1975957006216049,-0.7500395178794861,0.1331199258565902,0.1277479827404022,0.0,0.0,0.6022324562072754,0.2965874671936035
0.0305999759584665,0.4755422174930572,0.1863455474376678,-0.7214542627334595,0.1387477666139602,0.1125566959381103,0.0,0.0,0.3508716821670532,-0.2178046703338623
0.0326271057128906,0.4596204161643982,0.1969136893749237,-0.7081883549690247,0.1445353031158447,0.1157508492469787,0.0,0.0,0.1460691690444946,0.1882692575454712
0.0346740707755088,0.4439833462238312,0.1991293728351593,-0.695530116558075,0.1500935703516006,0.1111652478575706,0.0,0.0,0.3444311618804931,0.0097720623016357
0.036742590367794,0.4284816086292267,0.2015596181154251,-0.6895095109939575,0.1553792655467987,0.1057138592004776,0.0,0.0,0.2667698860168457,-0.4757827520370483
0.0387103073298931,0.4132794141769409,0.1922231912612915,-0.6761372685432434,0.1599270701408386,0.0909560248255729,0.0,0.0,-0.0539183616638183,-0.3092559576034546
0.0407402031123638,0.3977270424365997,0.1987380236387252,-0.6916781067848206,0.1641795933246612,0.0850508734583854,0.0,0.0,0.7941310405731201,-0.5906099677085876
0.042828369885683,0.3822996914386749,0.2034215629100799,-0.6862668991088867,0.1695786714553833,0.1079812422394752,0.0,0.0,0.841785192489624,-0.3552919626235962
0.0448457710444927,0.3679369986057281,0.1965004354715347,-0.6389496922492981,0.1748297661542892,0.1050216183066368,0.0,0.0,0.4554948806762695,-0.2556719779968261
0.0467681884765625,0.3538186550140381,0.1876614093780517,-0.6280297636985779,0.1794144064188003,0.0916929692029953,0.0,0.0,0.392833948135376,0.283703088760376
0.048570442944765,0.3401719331741333,0.1762957125902176,-0.6070023775100708,0.1833627521991729,0.0789669677615165,0.0,0.0,0.631328821182251,0.22194504737854
0.0503475181758403,0.3270896077156067,0.1738997995853424,-0.5819094181060791,0.1871784329414367,0.0763135701417923,0.0,0.0,0.1587601900100708,-0.0513688325881958
0.0519811622798442,0.3145048916339874,0.1602545976638794,-0.559718668460846,0.1903082728385925,0.0625968053936958,0.0,0.0,0.1571764945983886,-0.2129095792770385
0.0536434166133403,0.3021802604198456,0.1631308645009994,-0.5481618642807007,0.1934138536453247,0.0621116384863853,0.0,0.0,0.339560866355896,-0.2128386497497558
0.0552710518240928,0.2899642586708069,0.1600575000047683,-0.5432897210121155,0.1961364895105362,0.0544527359306812,0.0,0.0,0.5553202629089355,-0.5400452613830566
0.0569174773991107,0.277850329875946,0.1609288901090622,-0.5388935804367065,0.1998709738254547,0.0746898353099823,0.0,0.0,0.5691350698471069,-0.729517936706543
0.0584626197814941,0.2658261060714721,0.1496509760618209,-0.535074770450592,0.2047703564167022,0.0979877784848213,0.0,0.0,0.5353176593780518,0.2615871429443359
0.0598995201289653,0.254531979560852,0.1391002386808395,-0.5026019215583801,0.2093962132930755,0.0925172716379165,0.0,0.0,0.7681794166564941,0.3802140951156616
0.061286449432373,0.2441955357789993,0.1339561492204666,-0.4600774347782135,0.2141875773668289,0.0958272069692611,0.0,0.0,0.7184817790985107,0.7392635345458984
0.0624704360961914,0.2347402125597,0.1156168207526207,-0.420643150806427,0.2169991582632064,0.0562316104769706,0.0,0.0,0.8898202180862427,0.582190990447998
0.063509464263916,0.2254476100206375,0.1029179096221923,-0.4131505191326141,0.2179940491914749,0.0198977142572402,0.0,0.0,0.9956703186035156,0.7306084632873535
0.0644922256469726,0.2172452062368393,0.0988296568393707,-0.3644688725471496,0.2174307703971862,-0.0112655591219663,0.0,0.0,0.9811989068984984,-0.6027511954307556
0.0651951804757118,0.2096459716558456,0.070207692682743,-0.3377558887004852,0.2175213098526001,0.0018107909709215,0.0,0.0,0.99497389793396,0.2591720819473266
0.0656974762678146,0.2028738558292389,0.0506277494132518,-0.3009237349033355,0.2171117216348648,-0.0081917447969317,0.0,0.0,0.9823644161224364,-0.6513530611991882
0.0659921616315841,0.1969621926546096,0.028810491785407,-0.2628399431705475,0.2177843004465103,0.0134515864774584,0.0,0.0,0.9933123588562012,0.3321059942245483
0.0662754029035568,0.1917624324560165,0.0273536033928394,-0.2312439382076263,0.2187654823064804,0.0196235589683055,0.0,0.0,0.5382850170135498,-0.5125372409820557
0.06650972366333,0.1866687387228012,0.0215422511100769,-0.2266650646924972,0.220673993229866,0.0381703078746795,0.0,0.0,0.7405295372009277,-0.6866819262504578
0.0667367950081825,0.1818580031394958,0.0193778984248638,-0.2143127769231796,0.2240465581417083,0.0674512833356857,0.0,0.0,0.893021821975708,0.5079185962677002
0.0670642852783203,0.1777268201112747,0.0300530157983303,-0.1840194165706634,0.2267724573612213,0.0545177683234214,0.0,0.0,0.8461946249008179,-0.3217960596084595
0.0674755126237869,0.1739423424005508,0.0378675162792205,-0.1687057465314865,0.2300739735364914,0.066030278801918,0.0,0.0,0.7038527727127075,-0.9251359105110168
0.0676611885428428,0.170918807387352,0.0136137474328279,-0.135158970952034,0.2350888550281524,0.1002979725599289,0.0,0.0,-0.3227590322494507,-0.4975966811180115
0.0678746253252029,0.1675455123186111,0.016535822302103,-0.1507015973329544,0.239975705742836,0.0977371782064437,0.0,0.0,0.2710199356079101,0.0021792650222778
0.0680855736136436,0.1646043211221695,0.0159671436995267,-0.1315647363662719,0.2451861500740051,0.1042089611291885,0.0,0.0,-0.4952436089515686,-0.6649826169013977
0.0682800263166427,0.1612907499074936,0.0133372787386178,-0.148299440741539,0.251409500837326,0.1244670376181602,0.0,0.0,0.2727805376052856,0.1090438365936279
0.0683609023690223,0.158182606101036,0.0022716843523085,-0.1391514390707016,0.2573429346084595,0.1186683773994445,0.0,0.0,0.0326231718063354,0.0550237894058227
0.0683773979544639,0.1555272191762924,-0.0043068621307611,-0.1190727651119232,0.2634267807006836,0.1216767877340316,0.0,0.0,-0.4826148748397827,0.1763374805450439
0.0684141144156456,0.1525223553180694,-0.0021975149866193,-0.1346169412136078,0.269424706697464,0.1199591606855392,0.0,0.0,-0.3080464601516723,0.4950603246688843
0.0684693306684494,0.1491678804159164,-0.0002448862069286,-0.1501612067222595,0.2753450572490692,0.1184067875146865,0.0,0.0,-0.2033538818359375,-0.3646993041038513
0.068541906774044,0.1454640030860901,0.0015537654981017,-0.165705531835556,0.2811959087848663,0.1170176416635513,0.0,0.0,-0.07379150390625,-0.4092327356338501
0.0686302185058593,0.1414105743169784,0.003201488405466,-0.1812499612569809,0.2869853377342224,0.1157893687486648,0.0,0.0,-0.6664710640907288,0.2371399402618408
0.0687329322099685,0.1370076090097427,0.0047016250900924,-0.1967944651842117,0.2927213311195373,0.1147192493081092,0.0,0.0,-0.3224853277206421,0.1450573205947876
0.0688486099243164,0.1322551518678665,0.0060577988624572,-0.2123390734195709,0.2984115481376648,0.1138041988015174,0.0,0.0,-0.3600867986679077,0.5788588523864746
0.0690110176801681,0.127169981598854,0.0116947852075099,-0.2269502133131027,0.3031136393547058,0.0940419882535934,0.0,0.0,-0.0343517065048217,0.3205070495605469
0.0691840201616287,0.1217351779341697,0.0127745773643255,-0.2424943149089813,0.3077849745750427,0.0934265628457069,0.0,0.0,-0.0550450682640075,0.6532056331634521
0.0694228187203407,0.1159819439053535,0.0209183953702449,-0.256333440542221,0.3108641505241394,0.0615833513438701,0.0,0.0,-0.3346439599990845,0.7663233280181885
0.06973447650671,0.1099030598998069,0.0298624597489833,-0.2704494893550873,0.3122130930423736,0.0269786603748798,0.0,0.0,0.5609265565872192,0.7268478870391846
0.0700284019112587,0.1046046614646911,0.0292667150497436,-0.2355124056339264,0.3123417496681213,0.002572875469923,0.0,0.0,-0.2482261061668396,0.5580062866210938
0.0703672394156456,0.0989803150296211,0.0348289012908935,-0.2497662007808685,0.311367928981781,-0.0194765757769346,0.0,0.0,0.4149644374847412,0.5407180786132812
0.0706518143415451,0.0941376760601997,0.0301659740507602,-0.2148638814687729,0.309592455625534,-0.0355095341801643,0.0,0.0,-0.3724901676177978,0.8241628408432007
0.0710095390677452,0.0889789685606956,0.0393142588436603,-0.2285303026437759,0.305933803319931,-0.0731729492545127,0.0,0.0,0.6022119522094727,0.954315185546875
0.0711937919259071,0.0846427977085113,0.0238373335450887,-0.1915858834981918,0.3003272414207458,-0.1121313124895095,0.0,0.0,-0.0451762676239013,0.9027204513549804
0.0714527145028114,0.0799998641014099,0.0332783348858356,-0.2048472315073013,0.2927106618881225,-0.152331605553627,0.0,0.0,0.3080859184265136,0.983222723007202
0.071753978729248,0.0755905956029892,0.039401926100254,-0.194132775068283,0.2831533849239349,-0.1911454647779464,0.0,0.0,0.3357515335083008,0.8123329877853394
0.0718690901994705,0.0715343803167343,0.0225294344127178,-0.1781822293996811,0.2718531787395477,-0.2260043323040008,0.0,0.0,-0.0825201272964477,-0.107698917388916
0.0719835311174392,0.0671301931142807,0.0224453248083591,-0.1937363594770431,0.260587215423584,-0.2253191471099853,0.0,0.0,0.4277763366699219,0.8464157581329346
0.0720150917768478,0.0631016567349433,0.0158662218600511,-0.1768416464328766,0.2476224601268768,-0.2592953741550445,0.0,0.0,0.257152795791626,0.6347135305404663
0.0720148086547851,0.0593414865434169,0.0139170316979289,-0.1648314893245697,0.2334547191858291,-0.2833549380302429,0.0,0.0,-0.1825723648071289,-0.0102618336677551
0.0720117539167404,0.0552343465387821,0.0136341275647282,-0.1803918033838272,0.219332605600357,-0.2824419736862182,0.0,0.0,0.5210130214691162,-0.0283222794532775
0.0719560608267784,0.0517310947179794,0.0079492200165987,-0.1537494212388992,0.2056742459535598,-0.2731672525405884,0.0,0.0,-0.048069417476654,0.0854928493499755
0.0718965530395507,0.0478806607425212,0.0075616636313498,-0.1693086475133896,0.192067265510559,-0.2721395790576935,0.0,0.0,0.4323362112045288,-0.3477851152420044
0.071835421025753,0.0440970286726951,0.0071334717795252,-0.1664986908435821,0.1787693053483963,-0.2659594714641571,0.0,0.0,0.5118741989135742,-0.7038431763648987
0.0717120170593261,0.0408125035464763,-0.0007274163654074,-0.1446221768856048,0.1671228259801864,-0.2329295575618744,0.0,0.0,0.1797831058502197,-0.2100976705551147
