x_pos,y_pos,x_vel,y_vel,angle,ang_vel,leg_1,leg_2,main_booster,lat_booster
-0.001539897872135,1.403364896774292,-0.1560727804899215,-0.3357864618301391,0.0018529052613303,0.0365576259791851,0.0,0.0,-0.5045746756935185,0.9272879807848232
-0.0030211447738111,1.395569086074829,-0.1480409353971481,-0.3464831709861755,0.0017694531707093,-0.0016684054862707,0.0,0.0,0.9451315087864044,-0.9064729070776134
-0.0044252397492527,1.3882204294204712,-0.142640084028244,-0.3266162574291229,0.0039708986878395,0.0440329946577549,0.0,0.0,0.3793201355813731,0.6878047548168029
-0.0059145926497876,1.381234884262085,-0.1497386991977691,-0.310463935136795,0.0047658584080636,0.0159009713679552,0.0,0.0,-0.8930779748773636,0.961718388099601
-0.0073431013152003,1.3739935159683228,-0.1415192484855651,-0.321831613779068,0.0034489771351218,-0.0263401363044977,0.0,0.0,-0.683606538318368,-0.7265739262164678
-0.00885009765625,1.3664915561676023,-0.1507285833358764,-0.3334245085716247,0.0034711107145994,0.0004425796214491,0.0,0.0,-0.8737858096118041,0.84130378817931
-0.0103312488645315,1.3587303161621094,-0.1467742770910263,-0.3449421226978302,0.0021466827020049,-0.0264906529337167,0.0,0.0,-0.3913788618394676,-0.6501622176514417
-0.0118919368833303,1.350711226463318,-0.1560010462999344,-0.3564009070396423,0.0020795713644474,-0.0013425815850496,0.0,0.0,0.3963188076396275,-0.8034490991692379
-0.0135730747133493,1.343502163887024,-0.1699612140655517,-0.320411741733551,0.0039027002640068,0.0364661738276481,0.0,0.0,-0.4980983498233498,-0.6904650919499691
-0.015356158837676,1.3360373973846436,-0.1818794310092926,-0.3317833244800567,0.0074396696873009,0.0707461237907409,0.0,0.0,-0.1802308970321411,-0.924108999745788
-0.017251968383789,1.3283133506774902,-0.1951201260089874,-0.3433260917663574,0.0129178175702691,0.109572984278202,0.0,0.0,0.329670606464173,0.7352521952149181
-0.0190848354250192,1.3209686279296875,-0.1878500878810882,-0.3264745473861694,0.0174350813031196,0.0903532654047012,0.0,0.0,-0.1321952224941422,0.997682061640328
-0.0208779331296682,1.3133721351623535,-0.1818721294403076,-0.3376522660255432,0.0199713297188282,0.0507296212017536,0.0,0.0,0.0030425197720718,0.5476050114882128
-0.0226434711366891,1.3058372735977173,-0.178554356098175,-0.3349088728427887,0.0219448674470186,0.0394743159413337,0.0,0.0,-0.4220373700458375,0.897109915042434
-0.0243826862424612,1.2980551719665527,-0.1741665303707122,-0.3458760976791382,0.0221937205642461,0.0049775410443544,0.0,0.0,-0.5048188714969826,0.8515863541927208
-0.0261052139103412,1.290006160736084,-0.1709886342287063,-0.3577093780040741,0.0209419578313827,-0.0250372625887393,0.0,0.0,-0.6666111366618119,-0.870872042355018
-0.0279459953308105,1.2817063331604004,-0.1846848428249359,-0.3688888549804687,0.0215393435209989,0.0119485966861248,0.0,0.0,0.4597252061065595,-0.6063514049688203
-0.0297717098146677,1.2736414670944214,-0.1852491497993469,-0.3584839999675751,0.0241815261542797,0.0528484806418418,0.0,0.0,0.8906074859462585,0.5455408597094851
-0.0315277092158794,1.2667055130004885,-0.178090438246727,-0.308302491903305,0.026639848947525,0.0491711683571338,0.0,0.0,-0.5336747928882468,-0.7493360788203799
-0.03342180326581,1.2595072984695437,-0.1941796839237213,-0.320015400648117,0.0313592292368412,0.094396099448204,0.0,0.0,-0.7606468862795008,0.6676502558520586
-0.0353247635066509,1.2520579099655151,-0.19403637945652,-0.3311653137207031,0.0350594148039817,0.0740105509757995,0.0,0.0,0.9466211388961316,-0.5710102729189533
-0.037350557744503,1.245126247406006,-0.2081221342086792,-0.30821293592453,0.0405437611043453,0.1096968650817871,0.0,0.0,0.6274688892531222,-0.907651637313056
-0.0394022949039936,1.2387425899505615,-0.2133722305297851,-0.2839508652687073,0.0486581586301326,0.1623021513223648,0.0,0.0,-0.3600950721312141,-0.9680777209134602
-0.0415986068546772,1.232085347175598,-0.2301767766475677,-0.2962524592876434,0.0591097921133041,0.2090510576963424,0.0,0.0,0.2190626128792223,0.7364681500234664
-0.0439616218209266,1.2258782386779783,-0.2458867728710174,-0.276278018951416,0.0686016902327537,0.1898551732301712,0.0,0.0,-0.435346192585391,0.7387375507334403
-0.0463592521846294,1.2194002866744995,-0.2488874495029449,-0.2883533835411072,0.0776387229561805,0.1807403117418289,0.0,0.0,0.4200670277410454,0.9001192702850466
-0.0488113388419151,1.2136125564575195,-0.2531997561454773,-0.2576665580272674,0.0855566412210464,0.1583585143089294,0.0,0.0,-0.1415228652690396,0.5965322898169958
-0.0513083450496196,1.2075778245925903,-0.257446676492691,-0.2686724960803985,0.0932236537337303,0.1533404290676117,0.0,0.0,-0.5532900929454434,-0.9263146560236056
-0.0539772994816303,1.2012808322906494,-0.2775723934173584,-0.2805731892585754,0.1038253679871559,0.2120341062545776,0.0,0.0,0.4986054745051085,-0.7477342092590036
-0.0568550117313861,1.1953716278076172,-0.3006141185760498,-0.2635779976844787,0.1165826991200447,0.2551462650299072,0.0,0.0,0.382649969826085,0.8299654177116904
-0.0598173141479492,0.0,-0.3081197142601013,-0.227029487490654,0.1284081786870956,0.2365095317363739,0.0,0.0,-0.959547221660614,0.9955673217773438
-0.0627961158752441,1.1849498748779297,-0.3087300360202789,-0.2381042391061782,0.1392198204994201,0.2162325829267501,0.0,0.0,-0.9256871342658995,0.9961663484573364
-0.0657940879464149,1.1793808937072754,-0.309635192155838,-0.2484550476074218,0.1490305066108703,0.1962136328220367,0.0,0.0,-0.825514018535614,0.9844162464141846
-0.0688085556030273,1.1735618114471436,-0.3102452754974365,-0.2595342695713043,0.1578135043382644,0.1756599843502044,0.0,0.0,-0.9683735370635986,0.9919819831848145
-0.0718305557966232,1.1675066947937012,-0.309681236743927,-0.2699337899684906,0.1652901023626327,0.1495321840047836,0.0,0.0,-0.957838535308838,0.9928219318389891
-0.0748611465096473,1.161221265792847,-0.3092082738876343,-0.2800423800945282,0.1714531332254409,0.1232605129480362,0.0,0.0,-0.9452483057975768,0.994309425354004
-0.0779047980904579,1.1546928882598877,-0.3093644976615906,-0.2907392084598541,0.176457867026329,0.100094698369503,0.0,0.0,-0.9727864861488342,0.9976606369018556
-0.0809553116559982,1.1479363441467283,-0.3086524605751037,-0.3007176220417022,0.1800800859928131,0.0724440068006515,0.0,0.0,-0.5410187244415283,0.9933695793151855
-0.0840235725045204,1.1409529447555542,-0.3093271255493164,-0.3106805384159088,0.1825862377882003,0.0501233860850334,0.0,0.0,-0.9537651538848876,0.9543619155883788
-0.0871033668518066,1.1337345838546753,-0.3092416524887085,-0.3209724724292755,0.1838442981243133,0.0251616034656763,0.0,0.0,-0.8799136877059937,0.9282339811325072
-0.0902143493294715,1.1262826919555664,-0.3115767240524292,-0.331252247095108,0.1843257397413253,0.0096287345513701,0.0,0.0,-0.9389089941978456,0.9871187210083008
-0.0933223739266395,1.1185969114303589,-0.3096692264080047,-0.3414525091648102,0.1831861734390258,-0.0227917544543743,0.0,0.0,-0.8914781808853149,0.947368621826172
-0.0964336395263671,1.1106669902801514,-0.3085639476776123,-0.3521294891834259,0.1806131899356842,-0.0514596328139305,0.0,0.0,-0.8122281432151794,0.980736255645752
-0.0995461493730545,1.1025017499923706,-0.3071732521057129,-0.3624049723148346,0.1765199303627014,-0.0818648785352706,0.0,0.0,-0.885570228099823,0.9870367050170898
-0.1026761978864669,1.0940868854522705,-0.3078600466251373,-0.3733940720558166,0.171361044049263,-0.1031776443123817,0.0,0.0,-0.7683224678039551,0.9567387104034424
-0.1058156937360763,1.085425853729248,-0.3075197339057922,-0.3842063546180725,0.1649193316698074,-0.1288341581821441,0.0,0.0,-0.9077234864234924,0.9837570190429688
-0.1089612022042274,1.0765235424041748,-0.3067165911197662,-0.39481320977211,0.1570878773927688,-0.1566295325756073,0.0,0.0,-0.9052640199661256,0.9806637763977052
-0.1121367439627647,1.0673892498016355,-0.3088909387588501,-0.4050742089748382,0.1484329402446746,-0.1730987429618835,0.0,0.0,-0.930795967578888,0.9970072507858276
-0.1153438538312912,1.0580204725265503,-0.311249703168869,-0.4154763519763946,0.1389992982149124,-0.1886728256940841,0.0,0.0,-0.8222079873085022,0.9822072982788086
-0.118567943572998,1.048407793045044,-0.311827540397644,-0.4262825548648834,0.1284554302692413,-0.2108775824308395,0.0,0.0,-0.887105405330658,0.9239218235015868
-0.1217940300703048,1.03855562210083,-0.3104975819587707,-0.4368753135204315,0.1164109036326408,-0.2408904731273651,0.0,0.0,-0.8817422389984131,0.9863407611846924
-0.1250423491001129,1.0284661054611206,-0.3117018938064575,-0.4474529325962066,0.1033688634634018,-0.2608406245708465,0.0,0.0,-0.5567697286605835,0.9385585784912108
-0.1282949447631836,1.0181288719177246,-0.3106768727302551,-0.4584817886352539,0.0889041572809219,-0.289294421672821,0.0,0.0,-0.8591417074203491,0.9932475090026855
-0.1315614730119705,1.0075557231903076,-0.3108283877372741,-0.4690467119216919,0.0732346698641777,-0.3133901059627533,0.0,0.0,-0.8340513110160828,0.983618974685669
-0.1348230391740799,0.996734619140625,-0.3086420893669128,-0.4801762998104095,0.0559117496013641,-0.3464585244655609,0.0,0.0,-0.9230754375457764,0.9988363981246948
-0.1381100714206695,0.9856597781181335,-0.3102845847606659,-0.4916259348392486,0.0377072244882583,-0.3640907704830169,0.0,0.0,-0.9337212443351746,0.9929957389831544
-0.1413987129926681,0.9743449687957764,-0.3089127242565155,-0.5024983882904053,0.018008392304182,-0.3939768075942993,0.0,0.0,-0.8970593214035034,0.9939476251602172
-0.1446827948093414,0.9627830386161804,-0.3067903518676758,-0.5137412548065186,-0.0033289568964391,-0.4267467856407165,0.0,0.0,-0.9369494318962096,0.9355428218841552
-0.1479755342006683,0.9509774446487428,-0.3063525259494781,-0.5249083042144775,-0.02596534229815,-0.452727735042572,0.0,0.0,-0.8962697386741638,0.6880853176116943
-0.1513127386569976,0.9389228224754332,-0.3103857934474945,-0.5363203287124634,-0.0490040704607963,-0.4607749581336975,0.0,0.0,-0.9214125871658324,0.7450792789459229
-0.1546779572963714,0.9266045093536376,-0.3124013543128967,-0.5484451055526733,-0.0728597268462181,-0.4771136343479156,0.0,0.0,-0.9490752816200256,0.9534049034118652
-0.1580719053745269,0.9140316247940063,-0.3145209848880768,-0.5601856708526611,-0.0975036025047302,-0.4928775727748871,0.0,0.0,-0.858262300491333,0.7102992534637451
-0.1614902466535568,0.9011950492858888,-0.3160865604877472,-0.5723954439163208,-0.1230615749955177,-0.5111594200134277,0.0,0.0,-0.8830298185348511,0.9447991847991944
-0.1649226248264312,0.8880937099456787,-0.3164121210575104,-0.5847119688987732,-0.1497861593961715,-0.5344921350479126,0.0,0.0,-0.6322396397590637,0.2921038866043091
-0.1684461534023285,0.8747403025627136,-0.3264237940311432,-0.5962957739830017,-0.175718069076538,-0.5186386704444885,0.0,0.0,-0.4614627361297607,0.5902773141860962
-0.1720241606235504,0.8611251711845398,-0.3318412005901336,-0.6084023118019104,-0.2017978280782699,-0.5215954184532166,0.0,0.0,-0.2355214953422546,0.1833657026290893
-0.1756930351257324,0.8472568988800049,-0.3418430387973785,-0.6199794411659241,-0.2270861864089965,-0.5057677626609802,0.0,0.0,-0.6528884768486023,0.2463850975036621
-0.1794526129961013,0.8331347703933716,-0.3518368601799011,-0.6315513849258423,-0.2515841126441955,-0.4899585843086242,0.0,0.0,-0.2940651774406433,0.1683599948883056
-0.1833028793334961,0.818757951259613,-0.3618209064006805,-0.643118143081665,-0.2752926051616668,-0.4741703569889068,0.0,0.0,-0.1272440552711486,0.2548534870147705
-0.1872435510158538,0.8041258454322815,-0.3717932403087616,-0.6546801328659058,-0.2982128858566284,-0.4584058225154876,0.0,0.0,0.45431649684906,0.0468611717224121
-0.1911768019199371,0.7901278734207153,-0.371601790189743,-0.6267461776733398,-0.3207201361656189,-0.450145810842514,0.0,0.0,0.617890477180481,0.0293468236923217
-0.1949796676635742,0.7767266631126404,-0.3596055805683136,-0.6003458499908447,-0.3423026502132416,-0.4316502213478088,0.0,0.0,0.5121753215789795,0.1226512193679809
-0.1987243592739105,0.7642195820808411,-0.3541691899299621,-0.560837984085083,-0.3636466562747955,-0.4268809258937835,0.0,0.0,0.6001288890838623,-0.3255213499069214
-0.2022936344146728,0.7522008419036865,-0.3378414213657379,-0.5391457676887512,-0.3838793933391571,-0.4046556353569031,0.0,0.0,0.0267173051834106,-0.4520336389541626
-0.2058813571929931,0.7402734160423279,-0.3404738903045654,-0.5351656079292297,-0.403428852558136,-0.3909892737865448,0.0,0.0,0.2419726848602295,0.0202445983886718
-0.209416002035141,0.7283935546875,-0.3362581133842468,-0.5329962968826294,-0.4219637215137481,-0.3706971704959869,0.0,0.0,0.2715306282043457,-0.3447936177253723
-0.2129556685686111,0.7166264653205872,-0.3375046849250793,-0.5280097126960754,-0.4398351013660431,-0.3574278652667999,0.0,0.0,0.6170036792755127,-0.6184463500976562
-0.2163046300411224,0.7056943774223328,-0.3204376399517059,-0.490496277809143,-0.4556563794612884,-0.3164255023002624,0.0,0.0,0.5640556812286377,-0.6026511192321777
-0.2193702161312103,0.6955231428146362,-0.2942215800285339,-0.4561435878276825,-0.4692553579807281,-0.2719801068305969,0.0,0.0,0.571890115737915,0.0143463611602783
-0.2222688198089599,0.6862027645111084,-0.2778570055961609,-0.4183570444583893,-0.4825800061225891,-0.2664932012557983,0.0,0.0,0.7074135541915894,-0.5666601657867432
-0.2252657860517501,0.6772001385688782,-0.2891927063465118,-0.4038304984569549,-0.4943195581436157,-0.2347909659147262,0.0,0.0,0.7297208309173584,-0.5904361009597778
-0.2279581576585769,0.6690325140953064,-0.2606824040412903,-0.3661099970340729,-0.5039330124855042,-0.1922685801982879,0.0,0.0,0.9612610340118408,-0.45705646276474
-0.2305146753787994,0.6615861058235168,-0.2473260909318924,-0.3340461850166321,-0.5133439898490906,-0.188219279050827,0.0,0.0,0.9149789810180664,-0.7755154967308044
-0.2328855544328689,0.6550007462501526,-0.2307849377393722,-0.2950667142868042,-0.5204986929893494,-0.1430945098400116,0.0,0.0,0.997267723083496,0.3536665439605713
-0.2349366247653961,0.6492623686790466,-0.1994244307279586,-0.2572242021560669,-0.5269689559936523,-0.1294054538011551,0.0,0.0,0.998687744140625,-0.3155814409255981
-0.2366300076246261,0.6440927982330322,-0.1647595167160034,-0.2315450012683868,-0.5322041511535645,-0.1047044023871421,0.0,0.0,0.9954323768615724,-0.8004670143127441
-0.2382303178310394,0.6392103433609009,-0.1576418876647949,-0.2179385721683502,-0.5349435210227966,-0.0547869391739368,0.0,0.0,0.9773380756378174,-0.5313994288444519
-0.2396072894334793,0.6346238255500793,-0.1372313201427459,-0.2040299773216247,-0.5354823470115662,-0.0107764983549714,0.0,0.0,0.9497405290603638,-0.067604660987854
-0.2405767440795898,0.6305092573165894,-0.0978130251169204,-0.1825247555971145,-0.5344855785369873,0.0199359059333801,0.0,0.0,0.8650636672973633,-0.8541140556335449
-0.2413150817155838,0.6266182661056519,-0.0771807730197906,-0.1716145575046539,-0.5306495428085327,0.0767208039760589,0.0,0.0,0.7871527671813965,-0.8272775411605835
-0.241785243153572,0.6235738396644592,-0.0525375232100486,-0.1331626772880554,-0.5243384838104248,0.1262212097644806,0.0,0.0,0.0433548688888549,-0.8776994943618774
-0.2421351969242096,0.6209276914596558,-0.0428080596029758,-0.1146261021494865,-0.5154470205307007,0.17782923579216,0.0,0.0,-0.4241796731948852,-0.8485624194145203
-0.2426110804080963,0.6180599331855774,-0.0573363788425922,-0.1238139122724533,-0.504419207572937,0.2205561697483062,0.0,0.0,-0.1789749264717102,-0.4637402296066284
-0.2431670129299163,0.6149296760559082,-0.0660229176282882,-0.1353288441896438,-0.4926923513412475,0.2345368564128875,0.0,0.0,0.1467517614364624,-0.2736890912055969
-0.2436665594577789,0.6120303273200989,-0.0609176941215992,-0.1249885708093643,-0.4804438352584839,0.2449700534343719,0.0,0.0,0.027974247932434,-0.3151583075523376
-0.2439483702182769,0.6095467209815979,-0.040058359503746,-0.1063176393508911,-0.467270940542221,0.2634578645229339,0.0,0.0,-0.2325848937034607,-0.6052479147911072
-0.2443496733903885,0.6068350076675415,-0.0538896918296813,-0.1159709244966507,-0.45211061835289,0.3032069504261017,0.0,0.0,-0.4609037637710571,0.4669089317321777
-0.2448246479034423,0.6038627624511719,-0.0619609951972961,-0.1274984180927276,-0.4362911880016327,0.3163889050483703,0.0,0.0,-0.0770566463470459,0.6442103385925293
-0.2453181743621826,0.60059654712677,-0.0631070286035537,-0.1409628689289093,-0.4213561117649078,0.2987016141414642,0.0,0.0,-0.1271283626556396,0.4507110118865967
-0.2458816468715667,0.5970702767372131,-0.0707783624529838,-0.1524925380945205,-0.405787855386734,0.3113648593425751,0.0,0.0,0.0490514039993286,0.4344387054443359
-0.2463733255863189,0.5939704775810242,-0.0640555173158645,-0.133584588766098,-0.3898442685604095,0.3188716471195221,0.0,0.0,0.231094479560852,0.189405083656311
-0.2468064725399017,0.5911368727684021,-0.0587894208729267,-0.1217904984951019,-0.3733842372894287,0.3292005658149719,0.0,0.0,-0.1064167618751525,0.7223383188247681
-0.2472598552703857,0.5880197882652283,-0.0603224113583564,-0.1347056925296783,-0.3575376570224762,0.316931813955307,0.0,0.0,-0.359872043132782,0.1408102512359619
-0.2477734535932541,0.5846436619758606,-0.0669775679707527,-0.1462431252002716,-0.3411253988742828,0.3282451033592224,0.0,0.0,0.0837560892105102,0.269106388092041
-0.2481212168931961,0.5816407799720764,-0.0513152591884136,-0.1296455413103103,-0.3238467872142792,0.3455721735954284,0.0,0.0,-0.2054704427719116,0.6643179655075073
-0.2484699785709381,0.5783467292785645,-0.0505669191479682,-0.1429773867130279,-0.3075464069843292,0.3260078132152557,0.0,0.0,-0.2352915406227111,0.6221390962600708
-0.2488108575344085,0.5747712850570679,-0.0488333702087402,-0.1558633893728256,-0.2923144996166229,0.3046382069587707,0.0,0.0,-0.2578691840171814,0.1208409070968627
-0.2491995841264724,0.5709375739097595,-0.0541347935795784,-0.167404904961586,-0.2766092717647552,0.3141043186187744,0.0,0.0,-0.4918994903564453,0.1589715480804443
-0.2496323138475418,0.5668459534645081,-0.0590429231524467,-0.1789489090442657,-0.26045823097229,0.3230209946632385,0.0,0.0,-0.0300061702728271,0.8167665004730225
-0.2500351071357727,0.5624685287475586,-0.054700631648302,-0.1920617520809173,-0.2457526922225952,0.2941107451915741,0.0,0.0,-0.7283692359924316,0.7314448356628418
-0.2504176497459411,0.5578190684318542,-0.0516733042895793,-0.2044543176889419,-0.2321149855852127,0.2727542519569397,0.0,0.0,-0.8504740595817566,0.4620285034179687
-0.2508322298526764,0.5529115796089172,-0.0552697293460369,-0.2159970253705978,-0.2181243896484375,0.2798118889331817,0.0,0.0,-0.8901894092559814,0.7898666858673096
-0.2512060105800628,0.5477191209793091,-0.0497621931135654,-0.2289958894252777,-0.2056214064359665,0.2500595450401306,0.0,0.0,-0.3547080159187317,0.9463403224945068
-0.2515444755554199,0.5422515273094177,-0.0450344793498516,-0.2414873540401458,-0.1943511515855789,0.2254050523042678,0.0,0.0,-0.375343918800354,0.8719831705093384
-0.2518486082553863,0.5365074276924133,-0.040496177971363,-0.2540055513381958,-0.184215560555458,0.202711820602417,0.0,0.0,-0.1718361377716064,0.9843466281890868
-0.2520928382873535,0.5304831862449646,-0.0328340455889701,-0.2667212188243866,-0.1757786870002746,0.1687373667955398,0.0,0.0,-0.8057655096054077,0.0978356599807739
-0.2523459792137146,0.524199903011322,-0.0339030027389526,-0.2782590687274933,-0.1671759486198425,0.1720548719167709,0.0,0.0,-0.2803435325622558,0.5758681297302246
-0.2525491714477539,0.5176388025283813,-0.0276314672082662,-0.2908002436161041,-0.1598552763462066,0.1464135497808456,0.0,0.0,-0.2723650336265564,-0.117543876171112
-0.2527512907981872,0.5108187794685364,-0.0276252888143062,-0.3023379147052765,-0.152451604604721,0.1480737328529358,0.0,0.0,-0.3497681617736816,0.8185718059539795
-0.2528800964355469,0.5037320256233215,-0.0186307784169912,-0.3143881857395172,-0.1467089504003524,0.1148532852530479,0.0,0.0,-0.2803190946578979,0.4137477874755859
