x_pos,y_pos,x_vel,y_vel,angle,ang_vel,leg_1,leg_2,main_booster,lat_booster
-0.0014697074657306,1.403411030769348,-0.1488861888647079,-0.3337354660034179,0.0017098715761676,0.0337247960269451,0.0,0.0,-0.5603238432816755,0.7585190125797718
-0.002819251967594,1.395708084106445,-0.1349596083164215,-0.3423476219177246,0.0017202167073264,0.00020762506756,0.0,0.0,0.015774767470281,-0.9504923628991488
-0.0040881158784031,1.3881570100784302,-0.1287422627210617,-0.33560311794281,0.003560792421922,0.0368148870766162,0.0,0.0,-0.0262674831677269,0.8811562428789441
-0.0052427290938794,1.3803900480270386,-0.1158854961395263,-0.3452065587043762,0.0039712092839181,0.0082092937082052,0.0,0.0,-0.6004648248173443,-0.7792182014440943
-0.0063858032226562,1.3724117279052734,-0.1159184202551841,-0.3545975983142853,0.0055646239779889,0.0318714566528797,0.0,0.0,-0.6297113285918758,-0.8346011296908147
-0.007518577389419,1.3642184734344482,-0.1161489263176918,-0.3641598522663116,0.0084018437191843,0.0567498095333576,0.0,0.0,0.6407518698465544,0.9757196645859724
-0.0085426326841115,1.3566726446151731,-0.1032429486513137,-0.3353733718395233,0.0092395292595028,0.01675496250391,0.0,0.0,-0.3872455052424717,-0.981095448082448
-0.0095613477751612,1.3489153385162354,-0.1041685715317726,-0.3447833657264709,0.0115064978599548,0.0453436188399791,0.0,0.0,0.2002172983974111,0.6349254147039938
-0.0104825971648097,1.3418642282485962,-0.0930932909250259,-0.3133923709392547,0.0124631514772772,0.0191348306834697,0.0,0.0,0.4781227983020717,0.8062518376052401
-0.0112838745117187,1.3355804681777954,-0.0794449895620346,-0.2792732119560241,0.011786344461143,-0.0135374618694186,0.0,0.0,-0.818393529449841,0.8181802814727455
-0.0119452476501464,1.329085111618042,-0.0635316297411918,-0.2886642515659332,0.0092207202687859,-0.0513171963393688,0.0,0.0,-0.4218125247704589,0.7036145491057336
-0.0124771120026707,1.322376012802124,-0.048992596566677,-0.2981625497341156,0.0050605577416718,-0.0832109600305557,0.0,0.0,-0.4986743855476636,-0.7776971783634639
-0.0129890441894531,1.3154573440551758,-0.0481704883277416,-0.3074927031993866,0.0020716374274343,-0.0597835853695869,0.0,0.0,-0.5728909812341483,-0.7910929046960482
-0.0134873390197753,1.30831778049469,-0.0481714755296707,-0.3173158764839172,0.0004322265740483,-0.0327909402549266,0.0,0.0,0.3270791470491272,-0.8129081051991834
-0.0138522144407033,1.301966428756714,-0.0365697890520095,-0.2822796404361725,0.0005214894772507,0.0017852231394499,0.0,0.0,-0.1591764999485474,-0.5550816378458494
-0.0141825675964355,1.2953948974609375,-0.0340020693838596,-0.2920638918876648,0.0014699485618621,0.0189711898565292,0.0,0.0,0.0931968856629759,-0.8592790633478313
-0.0144040109589695,1.2894694805145264,-0.0248362869024276,-0.2633625566959381,0.0041197389364242,0.0530005395412445,0.0,0.0,0.5399926016792602,0.8974351938251055
-0.0143351554870605,1.2838480472564695,0.0058446871116757,-0.2498457431793213,0.0051456759683787,0.0205205269157886,0.0,0.0,0.0956564754395328,-0.5182767545730377
-0.0141669269651174,1.2788169384002686,0.014644980430603,-0.22361820936203,0.0072928336448967,0.0429473705589771,0.0,0.0,0.6221408374315363,-0.865909230558163
-0.0140871051698923,1.2744035720825195,0.0042599085718393,-0.1961646080017089,0.0109736295416951,0.0736225843429565,0.0,0.0,-0.7463424026226548,0.7762656251434137
-0.0138600347563624,1.2697839736938477,0.0209220591932535,-0.2053342908620834,0.0127391377463936,0.0353134460747242,0.0,0.0,-0.3762372451052969,-0.9936926913017018
-0.0136364940553903,1.2649439573287964,0.0186575781553983,-0.2151487916707992,0.0163948610424995,0.0731207877397537,0.0,0.0,-0.35434929584229,-0.7653571946277125
-0.0133867263793945,1.2598885297775269,0.0201330054551363,-0.2247475534677505,0.0211945455521345,0.0960022583603859,0.0,0.0,0.3826596469480521,-0.8044333278152744
-0.0130658149719238,1.2550028562545776,0.0255761500447988,-0.2172407060861587,0.0276306699961423,0.1287343204021453,0.0,0.0,0.2189165048406194,0.9593671807813892
-0.0127305034548044,1.2506169080734253,0.0290508773177862,-0.1950212270021438,0.0320717543363571,0.0888294577598571,0.0,0.0,0.1802814989264738,-0.7409517493351041
-0.0125126838684082,1.2467459440231323,0.0159656684845685,-0.1721800118684768,0.0378113947808742,0.1147927641868591,0.0,0.0,0.9070556896587264,0.8690553387585254
-0.0121778491884469,0.0,0.0294677130877971,-0.1253325790166854,0.0417800396680831,0.0793730542063713,0.0,0.0,0.8065558776827069,-0.7482817944940858
-0.0120200160890817,1.2422444820404053,0.0106516014784574,-0.0749935209751129,0.0468470081686973,0.1013395190238952,0.0,0.0,-0.8002979394422716,0.7130565278689536
-0.0117424009367823,1.2403563261032104,0.0238146763294935,-0.0840440988540649,0.0507501997053623,0.0780636668205261,0.0,0.0,-0.977970503906452,-0.638921691713322
-0.0114408489316701,1.2382488250732422,0.0249314215034246,-0.0938573405146598,0.055917777121067,0.1033515706658363,0.0,0.0,0.4790752898438668,-0.8132615743186118
-0.0111511228606104,1.2370686531066897,0.0221339743584394,-0.0527165941894054,0.0626770704984664,0.1351858079433441,0.0,0.0,-0.7975663542747498,0.9997527599334716
-0.0107159614562988,1.235676407814026,0.0384947210550308,-0.0621011778712272,0.0676522701978683,0.0995038002729415,0.0,0.0,-0.8520417213439941,0.999935746192932
-0.0101363183930516,1.2340871095657349,0.0547278895974159,-0.0707835853099823,0.0708545595407486,0.0640457794070243,0.0,0.0,-0.7012964487075806,0.9989616870880128
-0.0094087598845362,1.232283115386963,0.071360670030117,-0.0802511349320411,0.072227619588375,0.0274611748754978,0.0,0.0,-0.5738032460212708,0.9991202354431152
-0.0085233692079782,1.230276346206665,0.0892707630991935,-0.0891517102718353,0.0715035125613212,-0.0144820557907223,0.0,0.0,-0.6570912599563599,0.9937989711761476
-0.0074803354218602,1.2280724048614502,0.1071460247039794,-0.09782025963068,0.068685159087181,-0.0563670210540294,0.0,0.0,-0.8809581398963928,-0.4567164778709411
-0.0063601494766771,1.225655198097229,0.1149268001317977,-0.1073038950562477,0.0658128559589386,-0.05744618922472,0.0,0.0,-0.762164831161499,0.3456608057022095
-0.0051625249907374,1.223024606704712,0.1227167099714279,-0.1167875751852989,0.0628862604498863,-0.058532066643238,0.0,0.0,-0.7889905571937561,0.5928480625152588
-0.0038440704811364,1.2201913595199585,0.1359781920909881,-0.1257486045360565,0.0588004663586616,-0.0817159563302993,0.0,0.0,-0.1959517002105713,-0.3101357817649841
-0.0024480819702148,1.2171450853347778,0.143781378865242,-0.135232999920845,0.0546597018837928,-0.0828152447938919,0.0,0.0,-0.7216780781745911,-0.7999204993247986
-0.0010493278969079,1.2138861417770386,0.1422273218631744,-0.1447589099407196,0.0523364134132862,-0.0464656054973602,0.0,0.0,-0.4854389429092407,0.0045474767684936
0.0004270553472451,1.2104138135910034,0.1500369906425476,-0.1542424112558365,0.0499574840068817,-0.0475782938301563,0.0,0.0,-0.5839087963104248,-0.6436815857887268
0.0019384383922442,1.206717848777771,0.1525174528360366,-0.1642203330993652,0.0485980398952961,-0.0271886698901653,0.0,0.0,0.1112829446792602,0.0495308637619018
0.0035768509842455,1.2033460140228271,0.1649588346481323,-0.1498206406831741,0.0474912226200103,-0.0221363250166177,0.0,0.0,-0.3708053827285766,-0.3707081079483032
0.0052927969954907,1.199760913848877,0.1727658957242965,-0.1593038290739059,0.0463277995586395,-0.0232684146612882,0.0,0.0,-0.0699412822723388,0.4049547910690307
0.0070860860869288,1.1959624290466309,0.1805687248706817,-0.1687870025634765,0.0451074503362178,-0.0244067944586277,0.0,0.0,-0.1933337450027465,-0.2897822856903076
0.0089568141847848,1.1919505596160889,0.1883655935525894,-0.1782701909542083,0.0438298881053924,-0.0255513936281204,0.0,0.0,-0.2630265951156616,-0.5624120235443115
0.0108519550412893,1.1877278089523315,0.1895169764757156,-0.1876788139343261,0.0438215471804142,-0.00016677165695,0.0,0.0,-0.5077532529830933,-0.7481533288955688
0.0127517702057957,1.1832934617996216,0.1882207989692688,-0.1971334367990493,0.0455706939101219,0.0349825844168663,0.0,0.0,-0.4970408678054809,0.700560450553894
0.0147823337465524,1.178647518157959,0.2026999294757843,-0.2065026313066482,0.0459171459078788,0.0069290301762521,0.0,0.0,-0.3196625709533691,0.4766031503677368
0.0168898589909076,1.1737878322601318,0.2104543894529342,-0.2159857004880905,0.0462052077054977,0.0057611749507486,0.0,0.0,-0.555643618106842,-0.480143666267395
0.0190740581601858,1.168715000152588,0.2181932479143142,-0.2254687696695327,0.0464345999062061,0.0045879930257797,0.0,0.0,-0.6074546575546265,-0.4229066967964172
0.0213349349796772,1.1634286642074585,0.2259143590927124,-0.2349518239498138,0.0466050989925861,0.0034099493641406,0.0,0.0,-0.7128404974937439,-0.637057363986969
0.0236218459904193,1.1579313278198242,0.2273122072219848,-0.2443693429231643,0.0479762144386768,0.0274221040308475,0.0,0.0,-0.1982510089874267,-0.3256975412368774
0.0259851459413766,1.152220606803894,0.2349907159805297,-0.2538525462150574,0.04928794875741,0.0262347068637609,0.0,0.0,-0.7784076929092407,-0.4932585954666137
0.0284242630004882,1.146296501159668,0.2426441460847854,-0.2633357346057892,0.0505401082336902,0.0250430963933467,0.0,0.0,-0.3581818342208862,-0.4093140959739685
0.0309390071779489,1.140159010887146,0.250269740819931,-0.272818922996521,0.0517324991524219,0.023847859352827,0.0,0.0,-0.5702638626098633,0.1330558061599731
0.0335290916264057,1.133808135986328,0.2578645348548889,-0.2823020815849304,0.0528649576008319,0.0226494316011667,0.0,0.0,0.024563193321228,-0.8156978487968445
0.0361567512154579,1.128016233444214,0.2600258886814117,-0.2575150728225708,0.0555718205869197,0.0541374795138835,0.0,0.0,-0.6535590887069702,-0.0873194932937622
0.0388590805232524,1.1220110654830933,0.2675495743751526,-0.2669987082481384,0.0582185164093971,0.0529339388012886,0.0,0.0,-0.1071029901504516,-0.651321530342102
0.0415886864066123,1.1157829761505127,0.2691467404365539,-0.2769627571105957,0.0619922541081905,0.075474627315998,0.0,0.0,-0.3081231713294983,-0.4249788522720337
0.0443921089172363,1.1093415021896362,0.2765848934650421,-0.2864469289779663,0.0657056719064712,0.0742682665586471,0.0,0.0,-0.0084553360939025,-0.8521086573600769
0.0472153648734092,1.1026794910430908,0.277272492647171,-0.2963209748268127,0.0707076638936996,0.1000399589538574,0.0,0.0,-0.3501388430595398,-0.7632098197937012
0.0500534065067768,1.095799446105957,0.2773397862911224,-0.3060987591743469,0.0771092250943183,0.1280310004949569,0.0,0.0,-0.2641726732254028,-0.7175288796424866
0.0529080405831337,1.0886949300765991,0.2776336073875427,-0.3161816000938415,0.0848624780774116,0.1550650894641876,0.0,0.0,-0.3477818965911865,-0.9214494228363036
0.0557465553283691,1.081367254257202,0.2738547921180725,-0.326269656419754,0.094768576323986,0.1981216669082641,0.0,0.0,-0.8543744683265686,-0.8036956191062927
0.0585942268371582,1.0738284587860107,0.2732812464237213,-0.3358314633369446,0.1061562225222587,0.2277531325817108,0.0,0.0,-0.479601502418518,-0.9067862033843994
0.0614509582519531,1.0660573244094849,0.2726960480213165,-0.3463531732559204,0.1190501973032951,0.2578796744346618,0.0,0.0,-0.5564537048339844,-0.2043102383613586
0.0643767341971397,1.058074951171875,0.2796873450279236,-0.3558497130870819,0.1318846642971038,0.2566889226436615,0.0,0.0,-0.4981950521469116,-0.3606168031692505
0.0673707947134971,1.0498812198638916,0.2865903973579407,-0.3653460741043091,0.1446599513292312,0.2555055916309356,0.0,0.0,-0.4194676280021667,-0.8648221492767334
0.0703538879752159,1.0414632558822632,0.2835688591003418,-0.3756346404552459,0.1593674123287201,0.294149249792099,0.0,0.0,-0.3606836795806885,-0.615086555480957
0.0733572021126747,1.032824993133545,0.2845383286476135,-0.3856975734233856,0.1751842498779297,0.3163366019725799,0.0,0.0,-0.1836050748825073,-0.5157307386398315
0.0763760581612587,1.0239694118499756,0.2849422693252563,-0.3956705331802368,0.1921946108341217,0.3402073085308075,0.0,0.0,-0.0497145652770996,-0.454135537147522
0.0794585198163986,1.0149041414260864,0.2914144098758697,-0.4051767289638519,0.2091478258371353,0.3390644490718841,0.0,0.0,-0.0527558922767639,-0.5642544627189636
0.082557775080204,1.0056103467941284,0.292026549577713,-0.4156934916973114,0.2272462695837021,0.3619688153266907,0.0,0.0,-0.1827684044837951,0.0144135951995849
0.0857176780700683,0.9961072206497192,0.2982262969017029,-0.4252025783061981,0.2452891170978546,0.3608570694923401,0.0,0.0,-0.0629642009735107,-0.7322905659675598
0.088879108428955,0.9863658547401428,0.2969637513160705,-0.4362658262252807,0.2648400664329529,0.3910187780857086,0.0,0.0,0.091164231300354,0.1700878143310547
0.0919553786516189,0.977172076702118,0.2886276543140411,-0.4121635854244232,0.2843117117881775,0.3894334733486175,0.0,0.0,0.118526816368103,0.8095366954803467
0.09505195915699,0.9686254858970642,0.2923967242240906,-0.3833196759223938,0.3021118342876434,0.3560022115707397,0.0,0.0,-0.088315725326538,0.6711397171020508
0.0982419028878212,0.9598945379257202,0.3029562532901764,-0.391464501619339,0.318742424249649,0.3326120376586914,0.0,0.0,0.4573023319244385,0.5694167613983154
0.1013185530900955,0.9513267874717712,0.2931178212165832,-0.3840644657611847,0.3338894844055176,0.3029417693614959,0.0,0.0,0.30526864528656,-0.1430271863937378
0.10427026450634,0.943449079990387,0.2806072831153869,-0.3535643219947815,0.3491356670856476,0.304923415184021,0.0,0.0,0.4375306367874145,0.4977928400039673
0.1070151329040527,0.9360210299491882,0.2604326009750366,-0.3336113095283508,0.3639271855354309,0.2958304286003113,0.0,0.0,0.2005527019500732,0.9247663021087646
0.1096528992056846,0.9290897250175476,0.2516689896583557,-0.3111810386180877,0.3767569065093994,0.256594181060791,0.0,0.0,0.3775544166564941,0.903733730316162
0.1121727973222732,0.9227972030639648,0.241741806268692,-0.2824145257472992,0.3876667022705078,0.2181957066059112,0.0,0.0,0.5680990219116211,0.8848419189453125
0.1146740913391113,0.9171512722969056,0.2415371686220169,-0.2532911598682403,0.3968268632888794,0.1832031905651092,0.0,0.0,0.6487083435058594,0.7413346767425537
0.1171595603227615,0.9118074774742126,0.2414154708385467,-0.2395215928554535,0.4044732749462127,0.1529279947280883,0.0,0.0,0.2037169933319091,0.8667309284210205
0.1196993812918663,0.9067355990409852,0.248535469174385,-0.2269897311925888,0.4103321433067322,0.1171775013208389,0.0,0.0,0.6074162721633911,0.7519876956939697
0.1222468391060829,0.902344048023224,0.2505260705947876,-0.1964154839515686,0.4148783981800079,0.0909250229597091,0.0,0.0,0.7448418140411377,0.3574182987213135
0.1247884780168533,0.898399829864502,0.2493434846401214,-0.1767155677080154,0.4200717508792877,0.1038672924041748,0.0,0.0,0.7818740606307983,0.3903558254241943
0.1270175874233245,0.8953485488891602,0.2181764543056488,-0.1370364874601364,0.4252051413059234,0.1026674732565879,0.0,0.0,0.8830187320709229,0.8601067066192627
0.1290050446987152,0.8933369517326355,0.1956262737512588,-0.0903539806604385,0.428583949804306,0.0675767883658409,0.0,0.0,0.940882921218872,0.7453517913818359
0.1308794915676117,0.892318606376648,0.1854580044746399,-0.045863714069128,0.4307380020618438,0.0430810377001762,0.0,0.0,0.964266300201416,0.7716720104217529
0.1327796876430511,0.8917278051376343,0.1892675757408142,-0.026489321142435,0.4315588176250458,0.0164164118468761,0.0,0.0,0.9698742628097534,0.7288919687271118
0.1344254463911056,0.8917424082756042,0.1653802841901779,0.0008906356524676,0.4306859672069549,-0.0174570269882679,0.0,0.0,0.9625904560089112,0.8606011867523193
0.135805994272232,0.8930607438087463,0.1403462290763855,0.0592958554625511,0.4282020330429077,-0.0496788173913955,0.0,0.0,0.9050695896148682,0.8625144958496094
0.1369490623474121,0.8950849175453186,0.1183261647820472,0.0911744832992553,0.4238525629043579,-0.0869894623756408,0.0,0.0,0.1985225677490234,0.8076558113098145
0.1378124207258224,0.897666871547699,0.0919984132051467,0.1164458692073822,0.4177291393280029,-0.1224684715270996,0.0,0.0,-0.6711856722831726,0.3942662477493286
0.1386678665876388,0.9000357985496521,0.0912306830286979,0.1069601401686668,0.4115931689739227,-0.1227191835641861,0.0,0.0,-0.3148612976074219,0.4445598125457763
0.139511302113533,0.9021918177604676,0.0900540724396705,0.0974742993712425,0.4054471850395202,-0.1229194179177284,0.0,0.0,-0.7750110626220703,0.3432605266571045
0.1403386145830154,0.9041349291801452,0.0884730666875839,0.0879883468151092,0.3992937207221985,-0.1230693086981773,0.0,0.0,-0.7021071910858154,0.6153597831726074
0.1411891877651214,0.9058902859687804,0.0919497311115264,0.0799380987882614,0.3919178247451782,-0.1475176513195037,0.0,0.0,-0.7594245076179504,0.8622149229049683
0.142066091299057,0.907465159893036,0.0959464609622955,0.0722457692027092,0.3831025063991546,-0.1763066202402115,0.0,0.0,-0.8647075891494751,0.537796139717102
0.1429448127746582,0.9088444113731384,0.0969501733779907,0.0637056976556778,0.3734567165374756,-0.1929153501987457,0.0,0.0,-0.9435651898384094,0.7576854228973389
0.1438560485839843,0.9100539088249208,0.1019748076796531,0.0565544702112674,0.3619735836982727,-0.2296624630689621,0.0,0.0,-0.946078896522522,0.3002018928527832
0.144732192158699,0.911051869392395,0.0985109731554985,0.0470607206225395,0.3504951894283294,-0.2295679599046707,0.0,0.0,-0.9873299598693848,0.4018131494522095
0.1455698907375335,0.9118380546569824,0.094707503914833,0.0375668816268444,0.3390237987041473,-0.2294279336929321,0.0,0.0,-0.8461904525756836,-0.5178669691085815
0.1463252007961273,0.9123954176902772,0.0854474753141403,0.0270694252103567,0.3286568522453308,-0.207338660955429,0.0,0.0,-0.99271821975708,0.6989587545394897
0.1470982581377029,0.9127816557884216,0.0889679417014122,0.0197675582021474,0.3165255188941955,-0.2426267862319946,0.0,0.0,-0.942232072353363,-0.4582111239433288
0.1478238105773925,0.9129564166069032,0.0842399969696998,0.0102722235023975,0.3044075667858124,-0.2423595488071441,0.0,0.0,-0.954442262649536,-0.1667652726173401
0.1484990119934082,0.9129197001457214,0.0792362466454505,0.0007768312352709,0.2923048734664917,-0.2420532405376434,0.0,0.0,-0.9934796690940856,-0.6002385020256042
0.1490796059370041,0.912657916545868,0.0687373355031013,-0.0095237744972109,0.2813109755516052,-0.2198777198791504,0.0,0.0,-0.9871408343315125,-0.4275562763214111
0.1496048867702484,0.9121845364570618,0.0632302910089492,-0.0190172214061021,0.2703360021114349,-0.2194997519254684,0.0,0.0,-0.9990654587745668,-0.262146532535553
0.150072768330574,0.911499321460724,0.057496178895235,-0.0285106860101223,0.2593815922737121,-0.2190884798765182,0.0,0.0,-0.9971524477005004,-0.2672560214996338
0.150481030344963,0.9106022715568542,0.0515505000948905,-0.0380041599273681,0.2484493255615234,-0.2186456620693206,0.0,0.0,-0.9951736927032472,-0.3622677326202392
0.1508277952671051,0.9094937443733216,0.0454081818461418,-0.047497633844614,0.2375406920909881,-0.2181731015443802,0.0,0.0,-0.9950167536735536,-0.4584522247314453
0.1511113196611404,0.9081733822822572,0.0390835367143154,-0.0569911040365695,0.2266570776700973,-0.2176723778247833,0.0,0.0,-0.9921941757202148,-0.8712893128395081
0.1512786895036697,0.906615138053894,0.0261044763028621,-0.0678445845842361,0.2171810865402221,-0.1895195543766021,0.0,0.0,-0.999391794204712,-0.6371721625328064
0.1513381004333496,0.9048338532447816,0.0142343938350677,-0.0779745131731033,0.2088054716587066,-0.167511910200119,0.0,0.0,-0.9999722242355348,-0.2311115860939026
0.1513297110795974,0.9028401374816896,0.0074403556063771,-0.0874640569090843,0.2004585713148117,-0.1669376194477081,0.0,0.0,-0.9997662305831908,-0.5380555391311646
0.1512158364057541,0.9006167054176331,-0.0040902099572122,-0.0978487879037857,0.1931125968694687,-0.1469198018312454,0.0,0.0,-0.9998362064361572,0.2086871862411499
0.1510316878557205,0.8981806635856628,-0.0111383078619837,-0.107337012887001,0.1857974231243133,-0.1463033556938171,0.0,0.0,-0.997551441192627,0.4357216358184814
