x_pos,y_pos,x_vel,y_vel,angle,ang_vel,leg_1,leg_2,main_booster,lat_booster
-0.0015370368491858,1.4030182361602783,-0.1560766398906707,-0.3511963486671448,0.002131808316335,0.0420790910720825,0.0,0.0,-0.3487102389335632,0.9043004512786864
-0.003009891603142,1.3945289850234983,-0.147780492901802,-0.3772966265678406,0.0026207512710243,0.0097806872799992,0.0,0.0,-0.2900260090827942,0.804100513458252
-0.004417800810188,1.385427474975586,-0.1396878063678741,-0.4045086503028869,0.0015217275358736,-0.0219826623797416,0.0,0.0,0.0242913961410522,0.7831189632415771
-0.0058625219389796,1.3761818408966064,-0.1420976817607879,-0.4109215438365936,-0.0008193464600481,-0.0468257889151573,0.0,0.0,0.5068111419677734,0.6570295095443726
-0.0071374895051121,1.367223620414734,-0.1244627982378006,-0.3981406986713409,-0.0038179378025233,-0.0599775612354278,0.0,0.0,0.1316562891006469,-0.1036673784255981
-0.0083274841308593,1.3582168817520142,-0.1167913898825645,-0.4003146290779114,-0.0060101766139268,-0.0438482761383056,0.0,0.0,-0.2026519775390625,0.151801586151123
-0.009527588263154,1.3486037254333496,-0.1181516274809837,-0.4272616803646087,-0.0078457091003656,-0.0367141589522361,0.0,0.0,0.2128031253814697,0.6823043823242188
-0.0105566028505563,1.3390966653823853,-0.1002265810966491,-0.4225547611713409,-0.0104871215298771,-0.052833467721939,0.0,0.0,-0.5738730430603027,-0.3363958597183227
-0.0115942955017089,1.3289830684661863,-0.1014538556337356,-0.4495064318180084,-0.012772262096405,-0.0457068681716918,0.0,0.0,-0.5519477725028992,0.3207206726074219
-0.0126399993896484,1.3182634115219116,-0.1026112809777259,-0.4764502942562103,-0.0147029841318726,-0.0386178828775882,0.0,0.0,0.1617867946624755,-0.0602220892906188
-0.0136261936277151,1.307563066482544,-0.0973082855343818,-0.475586861371994,-0.015993557870388,-0.0258139930665493,0.0,0.0,-0.1258740425109863,-0.0982201695442199
-0.0146188735961914,1.2962563037872314,-0.0983163565397262,-0.502537727355957,-0.0169339515268802,-0.0188095904886722,0.0,0.0,-0.4745618104934692,-0.424690842628479
-0.0156172756105661,1.284343123435974,-0.0992436930537223,-0.5294815897941589,-0.0175265651196241,-0.0118532758206129,0.0,0.0,0.2032915353775024,-0.6978709101676941
-0.0166146270930767,1.272204875946045,-0.1009649261832237,-0.539459228515625,-0.0163122937083244,0.0242874827235937,0.0,0.0,0.3616104125976562,0.3320609331130981
-0.017488669604063,1.2604764699935913,-0.0895440801978111,-0.521239161491394,-0.0142104066908359,0.0420418456196785,0.0,0.0,-0.4287968873977661,0.1523139476776123
-0.0183661468327045,1.2481417655944824,-0.0902162045240402,-0.5481922626495361,-0.0117720067501068,0.0487722940742969,0.0,0.0,-0.3989229798316955,-0.2948318719863891
-0.0192461013793945,1.2352007627487185,-0.0907945409417152,-0.5751358866691589,-0.0090012522414326,0.0554201677441597,0.0,0.0,0.4083054065704345,0.0688786506652832
-0.020003318786621,1.2221310138702393,-0.0794217735528945,-0.5808605551719666,-0.0053339703008532,0.0733521431684494,0.0,0.0,-0.4676937460899353,-0.236487865447998
-0.0207610130310058,1.208455204963684,-0.0798072069883346,-0.6078113317489624,-0.0013452210696414,0.0797823071479797,0.0,0.0,-0.7319896817207336,0.5252227783203125
-0.0214824676513671,1.1941728591918943,-0.0755818337202072,-0.6347724199295044,0.0020566510502249,0.0680435374379158,0.0,0.0,-0.8114438652992249,0.4280585050582886
-0.0222024917602539,1.1792842149734497,-0.0757598504424095,-0.6617196202278137,0.0057693542912602,0.0742606148123741,0.0,0.0,-0.2840487957000732,0.6712226867675781
-0.0228660590946674,1.1637862920761108,-0.0690455958247184,-0.6888099908828735,0.0084264371544122,0.0531466007232666,0.0,0.0,-0.3400245904922485,0.1499035358428955
-0.0235262867063283,1.1476823091506958,-0.069008782505989,-0.7157570123672485,0.011381615884602,0.059108842164278,0.0,0.0,-0.6543796062469482,0.2636958360671997
-0.024182129651308,1.130972146987915,-0.0688653066754341,-0.7427042722702026,0.0146269360557198,0.0649120658636093,0.0,0.0,0.4180700778961181,0.5712929964065552
-0.0249279979616403,1.1144840717315674,-0.0767082720994949,-0.7328295111656189,0.0167219042778015,0.0419033505022525,0.0,0.0,0.548903226852417,-0.1148335337638855
-0.0258148200809955,1.098354697227478,-0.0904452949762344,-0.7168787121772766,0.0184608846902847,0.0347796082496643,0.0,0.0,0.5090059041976929,0.2520234584808349
-0.026702880859375,1.082614541053772,-0.0908586978912353,-0.6995924711227417,0.0204838253557682,0.0404589660465717,0.0,0.0,-0.8173636198043823,0.3215714693069458
-0.0275825504213571,1.0662682056427002,-0.0902740582823753,-0.7265374660491943,0.0227664746344089,0.0456529632210731,0.0,0.0,-0.5952627658843994,0.3240373134613037
-0.0284526832401752,1.0493158102035522,-0.0895830169320106,-0.753482460975647,0.0253003481775522,0.0506776683032512,0.0,0.0,0.8477113246917725,0.6582802534103394
-0.0292993541806936,1.0325734615325928,-0.0860923379659652,-0.7441275119781494,0.0267046429216861,0.0280859656631946,0.0,0.0,0.7509629726409912,0.3174800872802734
-0.0301387794315814,1.016571283340454,-0.0856973007321357,-0.7112414240837097,0.0284341145306825,0.0345895700156688,0.0,0.0,0.4442152976989746,0.7610176801681519
-0.030992317944765,1.000532150268555,-0.0856790468096733,-0.7128530740737915,0.028755722567439,0.0064321658574044,0.0,0.0,-0.7885774970054626,-0.5327715277671814
-0.0318807587027549,0.983889937400818,-0.0906041860580444,-0.7396906614303589,0.0304968059062957,0.0348215475678443,0.0,0.0,0.3512834310531616,0.2603788375854492
-0.0328163132071495,0.9670815467834472,-0.0952777117490768,-0.7470793128013611,0.0322022512555122,0.0341085158288478,0.0,0.0,0.0824520587921142,0.5326660871505737
-0.0336962714791297,0.9502868056297302,-0.0888731181621551,-0.7464541792869568,0.0330645143985748,0.0172454733401536,0.0,0.0,0.3051657676696777,0.2947540283203125
-0.0345661155879497,0.9337822794914246,-0.0881052538752555,-0.7335569262504578,0.0341792665421962,0.0222948119044303,0.0,0.0,-0.6741445660591125,0.2955050468444824
-0.0354195609688758,0.916671633720398,-0.0866474285721778,-0.7605016827583313,0.0354701578617095,0.0258177127689123,0.0,0.0,0.0831451416015625,0.8023151159286499
-0.0361812599003315,0.899713933467865,-0.076048344373703,-0.7536667585372925,0.0353448316454887,-0.0025064314249902,0.0,0.0,-0.1403833627700805,0.1729402542114257
-0.0369253158569335,0.8821501135826111,-0.0744312033057212,-0.7806113362312317,0.0353755205869674,0.0006138253957033,0.0,0.0,0.6869884729385376,0.3366308212280273
-0.0376440063118934,0.8649121522903442,-0.0721845105290412,-0.7661371827125549,0.0356854647397995,0.0061988746747374,0.0,0.0,0.3000466823577881,-0.2481414079666137
-0.0384495742619037,0.8479821681976318,-0.0806100890040397,-0.7524521350860596,0.0357423350214958,0.0011372311273589,0.0,0.0,0.3587646484375,0.106603980064392
-0.0391494743525981,0.8310965895652771,-0.0706501826643943,-0.7504817247390747,0.0363941229879856,0.0130358096212148,0.0,0.0,0.5374999046325684,-0.1780149936676025
-0.0397495254874229,0.8140474557876587,-0.0612077489495277,-0.7577731609344482,0.037579346448183,0.0237045753747224,0.0,0.0,-0.135434091091156,-0.092838704586029
-0.0403290763497352,0.7963920831680298,-0.0592571496963501,-0.7847176194190979,0.0388696156442165,0.0258053783327341,0.0,0.0,0.2261250019073486,0.8188225030899048
-0.0408655181527137,0.7784501910209656,-0.0533710345625877,-0.7974118590354919,0.038597609847784,-0.0054401014931499,0.0,0.0,0.7653152942657471,0.6420445442199707
-0.0412903800606727,0.7604365944862366,-0.041140042245388,-0.8005649447441101,0.037263698875904,-0.0266780499368906,0.0,0.0,0.4171003103256225,0.375646710395813
-0.0416554436087608,0.7423943877220154,-0.035474844276905,-0.8018490672111511,0.0362466759979724,-0.0203404128551483,0.0,0.0,0.2880573272705078,0.6985228061676025
-0.0420647636055946,0.7247257232666016,-0.0384007282555103,-0.7852180600166321,0.0337580144405365,-0.0497732385993003,0.0,0.0,0.7396456003189087,-0.1040350198745727
-0.0426190383732318,0.70768803358078,-0.0523097887635231,-0.7571678757667542,0.030678266659379,-0.0615949928760528,0.0,0.0,-0.107470691204071,-0.3670121431350708
-0.0431504249572753,0.690044105052948,-0.0500724986195564,-0.7841129302978516,0.0276441983878612,-0.0606814250349998,0.0,0.0,0.1643828153610229,-0.2850357294082641
-0.0435687080025672,0.6724017858505249,-0.0392766967415809,-0.7840598225593567,0.0251139868050813,-0.0506038665771484,0.0,0.0,0.1984107494354248,-0.0683488845825195
-0.0440189354121685,0.6549529433250427,-0.0422869846224784,-0.7754572033882141,0.0224175807088613,-0.0539280585944652,0.0,0.0,0.0012183189392089,0.2138499021530151
-0.0443853363394737,0.6373043060302734,-0.0342351272702217,-0.7843509912490845,0.0200456418097019,-0.0474386848509311,0.0,0.0,0.1095380783081054,-0.1084021925926208
-0.0447364822030067,0.6198529601097107,-0.032730646431446,-0.775585949420929,0.0176928378641605,-0.0470560602843761,0.0,0.0,0.4432405233383178,0.6825706958770752
-0.0448735244572162,0.6024369597434998,-0.0102218966931104,-0.7740083932876587,0.0142496721819043,-0.0688633620738983,0.0,0.0,0.4046313762664795,-0.0377450585365295
-0.0450734123587608,0.5850139856338501,-0.0161079633980989,-0.774322509765625,0.0104231145232915,-0.0765309631824493,0.0,0.0,0.4460303783416748,0.5614582300186157
-0.0451225265860557,0.5680385828018188,-9.835485980147496e-05,-0.7544370889663696,0.0056705293245613,-0.0950517207384109,0.0,0.0,0.4095985889434814,-0.3897238969802856
-0.0450325980782508,0.5513213276863098,0.0132720228284597,-0.7429790496826172,0.0014393315650522,-0.0846239551901817,0.0,0.0,0.3852214813232422,-0.1654155254364013
-0.0448564514517784,0.535033643245697,0.0216387845575809,-0.7238977551460266,-0.0025327422190457,-0.0794413462281227,0.0,0.0,0.3034675121307373,-0.4944189786911011
-0.0447141639888286,0.5190700888633728,0.0185821261256933,-0.709503173828125,-0.0068204584531486,-0.0857546404004097,0.0,0.0,0.5364766120910645,-0.4996289014816284
-0.0444969162344932,0.5030167102813721,0.0258850306272506,-0.7135108113288879,-0.0109323551878333,-0.0822377800941467,0.0,0.0,0.7152621746063232,-0.6755638122558594
-0.0444132797420024,0.487455666065216,0.0114848967641592,-0.6916254162788391,-0.0140093667432665,-0.0615405440330505,0.0,0.0,0.3402268886566162,0.1221882104873657
-0.0441985130310058,0.4719157218933105,0.0241832248866558,-0.690693199634552,-0.0166796389967203,-0.0534053556621074,0.0,0.0,0.7260891199111938,-0.581657886505127
-0.0439675338566303,0.4567314386367798,0.0246262792497873,-0.6748777627944946,-0.0181868746876716,-0.030144864693284,0.0,0.0,0.4135733842849731,-0.1569403409957885
-0.0436984077095985,0.441455066204071,0.0284756608307361,-0.6789690256118774,-0.019730694591999,-0.0308763682842254,0.0,0.0,0.544755220413208,-0.2011141180992126
-0.0435088165104389,0.4264046549797058,0.0211359933018684,-0.6689348816871643,-0.0218822732567787,-0.0430316887795925,0.0,0.0,0.6890485286712646,0.2143369913101196
-0.0432528480887413,0.4120595455169678,0.0277538392692804,-0.6375957131385803,-0.0240090563893318,-0.0425358712673187,0.0,0.0,0.3040924072265625,-0.1857287883758545
-0.0429012291133403,0.3974520266056061,0.0371016673743724,-0.6492544412612915,-0.0259167794138193,-0.0381545312702655,0.0,0.0,0.7174755334854126,-0.8251726627349854
-0.0425351150333881,0.3835798501968384,0.0369033142924308,-0.6165428757667542,-0.0262104719877243,-0.0058735352940857,0.0,0.0,0.3952348232269287,-0.5636900663375854
-0.042264174669981,0.3697036802768707,0.0265421979129314,-0.6167101263999939,-0.0256630070507526,0.0109491860494017,0.0,0.0,0.6882352828979492,0.2496199607849121
-0.0420436859130859,0.3562624454498291,0.0220228545367717,-0.5973889827728271,-0.0256395488977432,0.0004690352361649,0.0,0.0,0.8289248943328857,0.0586237907409668
-0.0417459495365619,0.3432468175888061,0.0296866558492183,-0.5784739851951599,-0.0255506392568349,0.0017778833862394,0.0,0.0,0.450563907623291,-0.2747467756271362
-0.0415166839957237,0.330741137266159,0.0234631095081567,-0.5558179020881653,-0.026078762486577,-0.0105624264106154,0.0,0.0,0.7226731777191162,-0.3497831225395202
-0.0411694534122943,0.3185290694236755,0.03499735891819,-0.5427610278129578,-0.0263475310057401,-0.0053751058876514,0.0,0.0,0.5935602188110352,0.142651081085205
-0.040818978101015,0.3062778115272522,0.0355607122182846,-0.5445114374160767,-0.0268625281751155,-0.0102998260408639,0.0,0.0,0.6332458257675171,-0.4346052408218384
-0.0403670296072959,0.2938994467258453,0.0455014482140541,-0.550154983997345,-0.0271626152098178,-0.0060015777125954,0.0,0.0,0.5056420564651489,-0.9156795740127563
-0.0399861335754394,0.2813738286495209,0.0366919077932834,-0.5566677451133728,-0.0257759038358926,0.027733951807022,0.0,0.0,0.8455815315246582,-0.3989648818969726
-0.0395657531917095,0.2695710361003876,0.0407664403319358,-0.5245454907417297,-0.0245276987552642,0.0249644834548234,0.0,0.0,0.4420009851455688,-0.7158607244491577
-0.0390812866389751,0.2582362294197082,0.0457035303115844,-0.50372713804245,-0.0218152031302452,0.0542496666312217,0.0,0.0,-0.0243283510208129,-0.6003832221031189
-0.0386271476745605,0.2463032603263855,0.0413256362080574,-0.5303011536598206,-0.0177779644727706,0.08074451982975,0.0,0.0,0.8199427127838135,0.4246912002563476
-0.0382830612361431,0.2343152910470962,0.0310783144086599,-0.5327650308609009,-0.0144900847226381,0.0657575130462646,0.0,0.0,0.904720664024353,0.1653385162353515
-0.0378532409667968,0.2230869829654693,0.0395216569304466,-0.4990025162696838,-0.01107441727072,0.0683132633566856,0.0,0.0,0.2045291662216186,0.2720277309417724
-0.0374666228890419,0.2118832170963287,0.0356351323425769,-0.4979248642921448,-0.0080845626071095,0.0597969889640808,0.0,0.0,0.7876797914505005,0.0150169134140014
-0.0371072776615619,0.2011741995811462,0.0332660488784313,-0.4759458005428314,-0.0054495222866535,0.0527009889483451,0.0,0.0,0.6596963405609131,0.4409915208816528
-0.0367300026118755,0.1909127086400985,0.0351952090859413,-0.4560558199882507,-0.0029461758676916,0.0500667616724967,0.0,0.0,0.2737482786178589,0.5698838233947754
-0.0362062454223632,0.1807175278663635,0.0509039536118507,-0.4531178176403045,-0.0015005639288574,0.0289124194532632,0.0,0.0,0.7434279918670654,-0.1675313711166381
-0.0356308929622173,0.1704578250646591,0.0560319647192955,-0.4559833109378814,-5.270012024993775e-06,0.0299055632203817,0.0,0.0,0.6793558597564697,-0.8391255140304565
-0.0349909774959087,0.160199835896492,0.0606604516506195,-0.455915629863739,0.0032774636056274,0.0656546875834465,0.0,0.0,0.6074224710464478,-0.8455057144165039
-0.0342340469360351,0.1501694470643997,0.0704662427306175,-0.4458155930042267,0.0084388712421059,0.1032281368970871,0.0,0.0,0.3609700202941894,-0.7310284972190857
-0.0333829894661903,0.1400159001350402,0.0782476514577865,-0.4513227343559265,0.015201648697257,0.1352555453777313,0.0,0.0,0.8559751510620117,-0.7563949227333069
-0.0325852409005165,0.1305266767740249,0.0714572370052337,-0.4218516647815704,0.0234130602329969,0.164228543639183,0.0,0.0,0.4171141386032104,-0.7695969343185425
-0.0318075194954872,0.1214125975966453,0.0678889900445938,-0.4052511751651764,0.0331665575504303,0.1950698643922805,0.0,0.0,0.7134164571762085,0.0348302125930786
-0.0308972354978323,0.1127371862530708,0.0805779173970222,-0.385835587978363,0.0434936918318271,0.2065429389476776,0.0,0.0,0.6219363212585449,-0.4590082168579101
-0.029875373467803,0.1039436906576156,0.0912871286273002,-0.3911705315113067,0.0542638525366783,0.2154029905796051,0.0,0.0,0.8273868560791016,0.4625273942947387
-0.0289155952632427,0.0953844413161277,0.0853719860315322,-0.3808294832706451,0.0647593885660171,0.2099107950925827,0.0,0.0,0.6876895427703857,0.3824018239974975
-0.0278998371213674,0.0875480249524116,0.0905598253011703,-0.3487937152385711,0.0756587907671928,0.2179879248142242,0.0,0.0,0.6110376119613647,0.3699212074279785
-0.0269219391047954,0.0799344852566719,0.0868660286068916,-0.3389643430709839,0.0864671692252159,0.2161673754453659,0.0,0.0,0.7030119895935059,-0.2487350106239318
-0.0261160843074321,0.0729250535368919,0.0702615603804588,-0.3121594190597534,0.0967069789767265,0.2047961950302124,0.0,0.0,0.5695765018463135,0.9355058670043944
-0.0251810066401958,0.0663293898105621,0.0849085673689842,-0.2937199473381042,0.1052290424704551,0.1704412996768951,0.0,0.0,0.2258671522140503,-0.2135935425758361
-0.0243171695619821,0.0599526725709438,0.077939361333847,-0.2840279638767242,0.1136147752404213,0.1677147597074508,0.0,0.0,0.4049168825149536,0.5238742828369141
-0.0235333442687988,0.0539174191653728,0.0711250305175781,-0.2688036859035492,0.120831087231636,0.1443264782428741,0.0,0.0,0.3790676593780517,0.4506834745407104
-0.0227931980043649,0.0478919595479965,0.0667771399021148,-0.2684026956558227,0.1280229538679123,0.1438372731208801,0.0,0.0,0.6276673078536987,0.9160174131393432
-0.0221580509096384,0.0421324335038661,0.0582327134907245,-0.256443053483963,0.1332919001579284,0.1053787693381309,0.0,0.0,0.8272542953491211,0.7294354438781738
-0.0216946601867675,0.0366020761430263,0.0428208373486995,-0.2461114376783371,0.1367957293987274,0.0700764581561088,0.0,0.0,0.9222497940063475,0.9233312606811525
-0.0211115833371877,0.0317564345896244,0.0562873259186744,-0.2155492901802063,0.1388076245784759,0.0402379818260669,0.0,0.0,0.6928948163986206,0.3444526195526123
-0.0204915050417184,0.026879534125328,0.0595755986869335,-0.2169796079397201,0.1412343084812164,0.0485334880650043,0.0,0.0,0.835038423538208,-0.4309924244880676
-0.0198040958493948,0.0226892083883285,0.0654253512620925,-0.1865548640489578,0.1445440053939819,0.0661938339471817,0.0,0.0,0.2842186689376831,0.3324153423309326
-0.0191940311342477,0.0187846273183822,0.057619608938694,-0.173869714140892,0.1479232758283615,0.0675853192806243,0.0,0.0,0.6080842018127441,-0.2846500873565674
-0.0185420997440814,0.0155390119180083,0.0610007457435131,-0.1446734815835952,0.1521110534667968,0.0837553516030311,0.0,1.0,0.8837103843688965,0.917560338973999
-0.0179133415222167,0.0134945251047611,0.0785566046833992,-0.0895849913358688,0.1358067840337753,-0.3269920945167541,0.0,1.0,0.499802827835083,0.0937668085098266
-0.0174813270568847,0.0124503234401345,0.0727878138422966,-0.0439921207726001,0.1063379570841789,-0.5894350409507751,0.0,1.0,0.3154270648956299,-0.6155778169631958
-0.0170880313962698,0.0117192603647708,0.066347412765026,-0.030785234645009,0.0795508623123169,-0.5357422828674316,0.0,1.0,-0.1252464652061462,-0.3282004594802856
-0.016695212572813,0.0103916022926568,0.0663561299443245,-0.057789571583271,0.0527650937438011,-0.5357157588005066,0.0,0.0,-0.6871252059936523,-0.9008584022521972
-0.0163613315671682,0.0084611633792519,0.0581354722380638,-0.0851054564118385,0.028317704796791,-0.4889478683471679,0.0,0.0,0.3105330467224121,-0.8380898237228394
-0.0161942485719919,0.0065342998132109,0.0397035703063011,-0.085361510515213,0.0056176353245973,-0.4540016651153564,0.0,0.0,0.2029933929443359,-0.7242426872253418
-0.0160775184631347,0.004622206557542,0.0330224223434925,-0.0850371494889259,-0.0154533945024013,-0.4214205145835876,0.0,0.0,0.3597563505172729,-0.7411062717437744
-0.015961742028594,0.0027671193238347,0.0311659313738346,-0.0827620103955268,-0.0347910858690738,-0.3867540955543518,0.0,0.0,0.0460081100463867,-0.8754178285598755
-0.0156900398433208,0.0013538813218474,0.0255839489400386,-0.0627818927168846,-0.0332059264183044,0.031731978058815,1.0,0.0,0.1127547025680542,-0.1894998550415039
-0.0152336116880178,0.0006104803178459,0.0272034890949726,-0.0327361188828945,-0.0149654876440763,0.3648433685302734,1.0,0.0,-0.4058685898780823,-0.3799065351486206
-0.0147905349731445,-0.0007566594867967,0.0266677178442478,-0.0606763027608394,0.0024513995740562,0.348337173461914,1.0,0.0,0.1681721210479736,-0.1327580213546753
-0.014442634768784,-0.0015391493216156,0.0285560600459575,-0.0348198674619197,0.0085496176034212,0.1218831986188888,1.0,1.0,-0.1154574155807495,0.1088118553161621
