x_pos,y_pos,x_vel,y_vel,angle,ang_vel,leg_1,leg_2,main_booster,lat_booster
-0.0016319274436682,1.4033125638961792,-0.1655603647232055,-0.3381132483482361,0.0021174801513552,0.0417959839105606,0.0,0.0,0.0543439388275146,0.7072765827178955
-0.0032818794716149,1.3958547115325928,-0.1659825444221496,-0.331461638212204,0.0030972538515925,0.0195976737886667,0.0,0.0,-0.2807985544204712,0.4372910261154175
-0.0050439834594726,1.3880845308303833,-0.1774824410676956,-0.3453514873981476,0.0043525299988687,0.0251081883907318,0.0,0.0,-0.3331567049026489,0.9615778923034668
-0.0068590166047215,1.3799995183944702,-0.1815151572227478,-0.3593336045742035,0.0043582441285252,0.0001144742491305,0.0,0.0,-0.0932398438453674,0.1990896463394165
-0.0087890625,1.3716025352478027,-0.1932928413152694,-0.3731966018676758,0.0046441345475614,0.0057182712480425,0.0,0.0,0.3529053926467895,0.7566512823104858
-0.0106518743559718,1.3635611534118652,-0.1855383813381195,-0.357397586107254,0.0039102295413613,-0.0146793602034449,0.0,0.0,0.0564483404159545,0.5906827449798584
-0.0126029970124363,1.3557616472244265,-0.1934534758329391,-0.3466377556324005,0.0022651387844234,-0.0329050496220588,0.0,0.0,-0.29067063331604,0.6872824430465698
-0.0146048543974757,1.3476526737213137,-0.1970964223146438,-0.3604010939598083,-0.0007926640682853,-0.0611618049442768,0.0,0.0,-0.2491134405136108,0.3789780139923095
-0.0167259220033884,1.3392318487167358,-0.2092963010072708,-0.3742622435092926,-0.0035636785905808,-0.0554249808192253,0.0,0.0,-0.1734857559204101,0.5832345485687256
-0.0189208984375,1.3305025100708008,-0.2158267199993133,-0.3879775702953338,-0.007201172877103,-0.0727569907903671,0.0,0.0,-0.7654569149017334,0.7965013980865479
-0.0211648941040039,1.32146155834198,-0.2191908061504364,-0.4018594622611999,-0.0123528353869915,-0.1030427664518356,0.0,0.0,-0.3404841423034668,0.8660715818405151
-0.0234539993107318,1.3121057748794556,-0.2220549285411834,-0.4158824980258941,-0.0191312953829765,-0.1355815827846527,0.0,0.0,-0.3753781914710998,0.1629476547241211
-0.0258650779724121,1.3024386167526243,-0.2345446646213531,-0.4297485053539276,-0.0256172530353069,-0.1297308355569839,0.0,0.0,-0.6562233567237854,0.909999132156372
-0.0283188819885253,1.2924485206604004,-0.2370786666870117,-0.444162368774414,-0.0338227562606334,-0.1641252934932708,0.0,0.0,-0.2631449699401855,0.9555351734161376
-0.0308023449033498,1.2821528911590576,-0.2379932701587677,-0.4578540623188019,-0.0440712347626686,-0.2049881964921951,0.0,0.0,-0.5298675894737244,0.942509651184082
-0.0333217605948448,1.2715299129486084,-0.2396518886089325,-0.4725409150123596,-0.0562362819910049,-0.243322879076004,0.0,0.0,-0.2974950671195984,0.8956835269927979
-0.0358777046203613,1.2606000900268557,-0.2414152920246124,-0.4863597750663757,-0.0702875331044197,-0.2810506224632263,0.0,0.0,-0.5964316129684448,0.8586418628692627
-0.0384745597839355,1.249345064163208,-0.243678331375122,-0.5010547041893005,-0.0861521363258361,-0.3173211812973022,0.0,0.0,-0.6045234799385071,0.6844244003295898
-0.0411327369511127,1.2377794981002808,-0.2485466748476028,-0.5151033401489258,-0.1032964289188385,-0.3429172337055206,0.0,0.0,-0.5809342265129089,0.5472390651702881
-0.0438780784606933,1.225899577140808,-0.2566573917865753,-0.5293247103691101,-0.1210849955677986,-0.3558034300804138,0.0,0.0,-0.6953873634338379,-0.7528323531150818
-0.0467944145202636,1.213725209236145,-0.2752665877342224,-0.5424973964691162,-0.1373876929283142,-0.3260834813117981,0.0,0.0,-0.121880829334259,0.3990875482559204
-0.0498357787728309,0.0,-0.2881116271018982,-0.5563825368881226,-0.1533910036087036,-0.3200954794883728,0.0,0.0,-0.077408492565155,0.0659952163696289
-0.0530023574829101,1.1884486675262451,-0.3009818196296692,-0.5702667236328125,-0.169093906879425,-0.314086377620697,0.0,0.0,0.1770386695861816,0.0228503942489624
-0.056208036839962,1.1756622791290283,-0.3054562211036682,-0.5700676441192627,-0.184265598654747,-0.3034610450267792,0.0,0.0,-0.3123555183410644,0.7750052213668823
-0.0594931617379188,1.162555694580078,-0.3125655055046081,-0.584577739238739,-0.2003241181373596,-0.3211991190910339,0.0,0.0,0.2994430065155029,-0.3176205158233642
-0.0629093199968338,1.1499669551849363,-0.325467586517334,-0.5617669224739075,-0.2166141122579574,-0.3257995247840881,0.0,0.0,-0.2331776022911071,-0.4870498180389404
-0.0664518326520919,1.1370691061019895,-0.3384582698345184,-0.5756446123123169,-0.2326077371835708,-0.3198724091053009,0.0,0.0,-0.4163786172866821,-0.8534883260726929
-0.0701992958784103,1.123897910118103,-0.3613654971122741,-0.5875521898269653,-0.2462048083543777,-0.271941065788269,0.0,0.0,-0.4847745895385742,-0.2935518026351928
-0.0740735977888107,1.1104164123535156,-0.3743776381015777,-0.6014224886894226,-0.2595086097717285,-0.2660757005214691,0.0,0.0,-0.2226976156234741,-0.186296284198761
-0.0780747383832931,1.0966241359710691,-0.3873984217643738,-0.615291953086853,-0.2725208103656769,-0.2602439224720001,0.0,0.0,-0.7880970239639282,-0.5105299949645996
-0.0822394341230392,1.0825421810150146,-0.4050559401512146,-0.6280320286750793,-0.2842353880405426,-0.2342914342880249,0.0,0.0,-0.5907219648361206,0.4903209209442138
-0.0865312591195106,1.068148851394653,-0.4180876314640045,-0.6418976187705994,-0.2956622242927551,-0.2285370379686355,0.0,0.0,-0.1419383287429809,-0.2251797318458557
-0.0909502059221267,1.053444266319275,-0.4311226904392242,-0.6557624936103821,-0.3068034946918487,-0.2228250950574875,0.0,0.0,-0.210869014263153,0.3278490304946899
-0.0954964607954025,1.0384281873703003,-0.4441593289375305,-0.6696265339851379,-0.3176614940166473,-0.2171596586704254,0.0,0.0,0.2868516445159912,-0.4247977137565613
-0.1000054329633712,1.023790717124939,-0.4407876431941986,-0.652801513671875,-0.3281801342964172,-0.2103726118803024,0.0,0.0,-0.1835721135139465,0.1814949512481689
-0.1046417206525802,1.008841633796692,-0.453822374343872,-0.6666640639305115,-0.3384206891059875,-0.2048109471797943,0.0,0.0,-0.3599341511726379,0.3484634160995483
-0.1094052344560623,0.9935807585716248,-0.4668536782264709,-0.6805260181427002,-0.3483860492706299,-0.199307382106781,0.0,0.0,0.1159143447875976,0.7149949073791504
-0.1140389442443847,0.9786944389343262,-0.4527978301048279,-0.6642176508903503,-0.359512448310852,-0.2225281745195388,0.0,0.0,-0.0352305769920349,0.4283744096755981
-0.1187998801469802,0.9634963870048524,-0.4658185541629791,-0.6780807375907898,-0.3703702688217163,-0.217156246304512,0.0,0.0,0.0151060819625854,0.6937487125396729
-0.1234832778573036,0.948469340801239,-0.4570177495479584,-0.6708371639251709,-0.3823762536048889,-0.240119457244873,0.0,0.0,0.751943826675415,0.5618283748626709
-0.1280555725097656,0.9343277215957642,-0.4448441565036773,-0.6318960785865784,-0.3955923020839691,-0.2643207311630249,0.0,0.0,0.21407151222229,-0.0927123427391052
-0.1325228661298751,0.9203549027442932,-0.4350344538688659,-0.6243183016777039,-0.4081323444843292,-0.2508007884025574,0.0,0.0,-0.4759295582771301,0.3412734270095825
-0.1371169090270996,0.9060706496238708,-0.4480126798152923,-0.6381832957267761,-0.4204205870628357,-0.2457646578550338,0.0,0.0,0.7667872905731201,0.4412199258804321
-0.1415100991725921,0.8921842575073242,-0.428661584854126,-0.6203965544700623,-0.43197101354599,-0.2310080230236053,0.0,0.0,0.5015830993652344,0.3136146068572998
-0.145951360464096,0.8783738017082214,-0.4335958957672119,-0.6170722842216492,-0.4434510171413421,-0.2295992374420166,0.0,0.0,0.9032809734344482,0.5355789661407471
-0.1502670347690582,0.8647055625915527,-0.4204235672950744,-0.6110562086105347,-0.4556604325771332,-0.2441882342100143,0.0,0.0,0.5845253467559814,0.0547065734863281
-0.1544678658246994,0.851264476776123,-0.4094555377960205,-0.6008986234664917,-0.4673698544502258,-0.2341885268688202,0.0,0.0,0.5041599273681641,0.053638219833374
-0.1585440635681152,0.8385974764823914,-0.3968363106250763,-0.5666535496711731,-0.479329913854599,-0.2392010688781738,0.0,0.0,0.980565071105957,-0.6212918162345886
-0.1625023782253265,0.827032208442688,-0.3860814273357391,-0.5174333453178406,-0.4902094304561615,-0.2175906002521515,0.0,0.0,0.2007067203521728,-0.1825828552246093
-0.1664259880781173,0.8156549334526062,-0.3827872276306152,-0.5090939402580261,-0.5009519457817078,-0.2148500680923462,0.0,0.0,0.5569252967834473,0.1693973541259765
-0.170098215341568,0.804576575756073,-0.3584235310554504,-0.4956136643886566,-0.510869026184082,-0.1983398497104644,0.0,0.0,0.4110212326049804,-0.0459771752357482
-0.1736309081315994,0.7940454483032227,-0.3444938063621521,-0.4713572263717651,-0.5208215713500977,-0.1990526169538498,0.0,0.0,0.7061764001846313,-0.6533864736557007
-0.1769996583461761,0.7837436199188232,-0.329753577709198,-0.4606150686740875,-0.5289416313171387,-0.1624006927013397,0.0,0.0,0.850517749786377,-0.5608583688735962
-0.1800749748945236,0.7743208408355713,-0.3016482591629028,-0.4210991561412811,-0.5356791615486145,-0.1347507983446121,0.0,0.0,0.8218939304351807,-0.388043463230133
-0.1828590333461761,0.7651532888412476,-0.273347407579422,-0.4094630479812622,-0.5414925217628479,-0.1162673085927963,0.0,0.0,0.9365630149841307,-0.680310070514679
-0.1856321394443512,0.7565144300460815,-0.2734092473983764,-0.3855203986167907,-0.5459970831871033,-0.0900908932089805,0.0,0.0,0.9770848751068116,-0.4828612804412842
-0.1879375427961349,0.7486979365348816,-0.2272196114063263,-0.3487515449523926,-0.5498375296592712,-0.0768087059259414,0.0,0.0,0.9811303615570068,-0.6368184089660645
-0.1898342072963714,0.74150550365448,-0.1880228519439697,-0.3203350007534027,-0.5517287254333496,-0.0378240495920181,0.0,0.0,0.9737873077392578,-0.5621821284294128
-0.1912922859191894,0.7352215647697449,-0.1455608904361724,-0.2793891131877899,-0.5520253777503967,-0.0059335329569876,0.0,0.0,0.9519169330596924,-0.8535628318786621
-0.1925232857465744,0.7299466729164124,-0.1243628412485122,-0.23392353951931,-0.5505644679069519,0.0292183067649602,0.0,0.0,0.9430243968963624,-0.5862871408462524
-0.193634033203125,0.7248972654342651,-0.1136351600289344,-0.2233707904815673,-0.5475900173187256,0.0594875402748584,0.0,0.0,0.9511456489562988,-0.4117392897605896
-0.1945350617170334,0.7206887006759644,-0.0922822207212448,-0.1861619353294372,-0.5450759530067444,0.0502824857831001,0.0,0.0,0.7299896478652954,-0.7224785685539246
-0.1952033936977386,0.7167952656745911,-0.0706577450037002,-0.1715056598186493,-0.5406676530838013,0.0881664305925369,0.0,0.0,0.5241847038269043,-0.8820321559906006
-0.1957369744777679,0.7133523225784302,-0.0589069053530693,-0.1508132666349411,-0.5342894792556763,0.1275632679462433,0.0,0.0,0.1115462779998779,-0.8306083083152771
-0.1963034570217132,0.7099854350090027,-0.0638106688857078,-0.1468395441770553,-0.5261027216911316,0.1637347191572189,0.0,0.0,-0.0385161638259887,-0.8419588208198547
-0.1970549523830413,0.7063674330711365,-0.0842547491192817,-0.1573058515787124,-0.5157220363616943,0.207613319158554,0.0,0.0,0.0886567831039428,-0.6165346503257751
-0.1976689398288726,0.7032046914100647,-0.0717849060893058,-0.136690005660057,-0.5039781332015991,0.2348782569169998,0.0,0.0,0.422893762588501,-0.7909941077232361
-0.1982630789279937,0.7000418305397034,-0.07144545763731,-0.1362078487873077,-0.4904626011848449,0.2703105807304382,0.0,0.0,-0.0654141306877136,-0.4190208911895752
-0.1989696472883224,0.6965692639350891,-0.0827745199203491,-0.1500823646783828,-0.476941704750061,0.270418107509613,0.0,0.0,-0.1460987329483032,0.1249961853027343
-0.1997870504856109,0.6927871108055115,-0.0939456596970558,-0.1639574021100998,-0.4634265899658203,0.2703022360801697,0.0,0.0,0.2558546066284179,-0.296981930732727
-0.2005461156368255,0.6894327402114868,-0.0878882929682731,-0.1451562047004699,-0.4502511322498321,0.2635089457035064,0.0,0.0,0.4004479646682739,0.0107336044311523
-0.2011598050594329,0.6864640116691589,-0.0735082775354385,-0.1280886679887771,-0.4369826018810272,0.2653715014457702,0.0,0.0,0.3090884685516357,0.1883590221405029
-0.2016885727643966,0.6841598749160767,-0.0646221041679382,-0.0988006517291069,-0.4242240786552429,0.2551707327365875,0.0,0.0,0.0895086526870727,0.1326507329940796
-0.202120304107666,0.682036817073822,-0.0551462471485137,-0.0908062607049942,-0.4112893939018249,0.2586933970451355,0.0,0.0,-0.013569176197052,0.4789125919342041
-0.2026536911725998,0.6796042323112488,-0.065329797565937,-0.1046822592616081,-0.3984124660491943,0.2575383186340332,0.0,0.0,0.2359566688537597,0.1813775300979614
-0.20314522087574,0.6771686673164368,-0.0613672919571399,-0.1048704907298088,-0.3853674829006195,0.2608993947505951,0.0,0.0,0.3353885412216186,0.5128411054611206
-0.2036202400922775,0.6747933030128479,-0.0586448311805725,-0.1026098281145095,-0.3735259473323822,0.2368308752775192,0.0,0.0,0.6219773292541504,-0.2142730951309204
-0.2039131224155426,0.6732000112533569,-0.0403628870844841,-0.067960113286972,-0.361807644367218,0.2343658953905105,0.0,0.0,0.3017804622650146,0.1216098070144653
-0.2040109634399414,0.6721653342247009,-0.0211005695164203,-0.0431762710213661,-0.3498913645744324,0.2383255511522293,0.0,0.0,0.03941011428833,0.1731901168823242
-0.2040874511003494,0.6715818047523499,-0.0185966044664382,-0.0233105681836605,-0.338403582572937,0.2297559231519699,0.0,0.0,-0.1701352000236511,0.066413402557373
-0.204249233007431,0.6706885695457458,-0.0270700361579656,-0.0371852852404117,-0.3270255923271179,0.2275600731372833,0.0,0.0,-0.3063477277755737,-0.0281320214271545
-0.2044930011034011,0.6694855093955994,-0.0351955816149711,-0.0510599575936794,-0.3157650232315063,0.2252114564180374,0.0,0.0,0.1304520368576049,0.1664265394210815
-0.2047587931156158,0.6685664057731628,-0.0370062366127967,-0.0386123321950435,-0.304949939250946,0.2163009345531463,0.0,0.0,0.020816683769226,0.4610458612442016
-0.205005794763565,0.6679518818855286,-0.0348835587501525,-0.0252079721540212,-0.2944235205650329,0.2105281054973602,0.0,0.0,-0.1245042085647583,0.1785249710083007
-0.2053235024213791,0.667027473449707,-0.0418538562953472,-0.0390814766287803,-0.2840359807014465,0.2077509611845016,0.0,0.0,0.0462485551834106,0.4498815536499023
-0.2055515795946121,0.6663004755973816,-0.033024676144123,-0.0303599648177623,-0.2735386192798614,0.2099471539258957,0.0,0.0,-0.2937276363372803,-0.1692882180213928
-0.2058419287204742,0.6652636528015137,-0.0391358621418476,-0.044233538210392,-0.2631933689117431,0.2069051712751388,0.0,0.0,-0.3039665222167969,0.1597981452941894
-0.2061900645494461,0.663916826248169,-0.0447925291955471,-0.058106891810894,-0.2530065476894378,0.2037361562252044,0.0,0.0,-0.6899625658988953,-0.0060588717460632
-0.2065914124250412,0.6622598767280579,-0.0499794520437717,-0.0719800069928169,-0.2429843693971634,0.2004434317350387,0.0,0.0,-0.6011868119239807,0.2999593019485473
-0.2070412635803222,0.66029292345047,-0.0546826794743537,-0.0858528539538383,-0.2331328690052032,0.1970299333333969,0.0,0.0,-0.512737512588501,-0.2494920492172241
-0.2075347006320953,0.6580159664154053,-0.0588897056877613,-0.099725417792797,-0.2234579473733902,0.1934984773397445,0.0,0.0,-0.5586085915565491,0.0358458757400512
-0.208066701889038,0.6554287672042847,-0.0625896379351615,-0.1135976836085319,-0.213965356349945,0.1898517161607742,0.0,0.0,-0.5667769312858582,0.1818571090698242
-0.2086322754621505,0.6525313854217529,-0.0657734051346778,-0.1274696439504623,-0.2046607434749603,0.186092272400856,0.0,0.0,-0.8923050761222839,0.4958339929580688
-0.2092261761426925,0.6493236422538757,-0.068433791399002,-0.1413412988185882,-0.1955496072769165,0.1822226345539093,0.0,0.0,-0.7778679132461548,0.4015722274780273
-0.2098432034254074,0.6458055377006531,-0.0705656334757804,-0.1552126407623291,-0.1866373419761657,0.1782453805208206,0.0,0.0,-0.8659221529960632,-0.0295404195785522
-0.2104780673980713,0.6419772505760193,-0.0721658393740654,-0.1690836101770401,-0.1779291927814483,0.1741630136966705,0.0,0.0,-0.953607439994812,0.5917625427246094
-0.2110814154148101,0.637826144695282,-0.0676751583814621,-0.1836299151182174,-0.1705710142850875,0.1471632570028305,0.0,0.0,-0.8686351776123047,0.6287174224853516
-0.2116527110338211,0.633359968662262,-0.0632639974355697,-0.197807639837265,-0.1644231230020523,0.1229579299688339,0.0,0.0,-0.584949254989624,0.9147953987121582
-0.212143987417221,0.6285670399665833,-0.0529625825583934,-0.2126073986291885,-0.1605885028839111,0.07669248431921,0.0,0.0,-0.5848859548568726,0.6467247009277344
-0.212585836648941,0.6234559416770935,-0.0466198250651359,-0.2268912196159362,-0.15815469622612,0.0486760325729846,0.0,0.0,-0.9596318602561952,-0.4754745364189148
-0.2130196094512939,0.618033766746521,-0.0455874875187873,-0.2407559603452682,-0.1559492647647857,0.0441087558865547,0.0,0.0,-0.9833897352218628,-0.2991575598716736
-0.2134403735399246,0.6123002767562866,-0.0440481416881084,-0.2546206414699554,-0.1539766043424606,0.0394531451165676,0.0,0.0,-0.9845170974731444,0.6606643199920654
-0.2138014733791351,0.6062461137771606,-0.0367777980864048,-0.2689970731735229,-0.1533065438270568,0.0134011227637529,0.0,0.0,-0.9865332841873168,-0.3321747779846191
-0.214139699935913,0.5998807549476624,-0.0342573896050453,-0.2828614413738251,-0.1528776288032531,0.0085782669484615,0.0,0.0,-0.994101583957672,0.664535641670227
-0.2143890857696533,0.5931938290596008,-0.0235558226704597,-0.297340989112854,-0.1542551517486572,-0.0275504700839519,0.0,0.0,-0.9765405654907228,-0.8603798747062683
-0.2146675586700439,0.5862022042274475,-0.027766739949584,-0.3107498288154602,-0.154339462518692,-0.0016863513737916,0.0,0.0,-0.930018663406372,-0.7541930675506592
-0.2149538099765777,0.5789153575897217,-0.0294350292533636,-0.3237742185592651,-0.1535274386405944,0.0162404589354991,0.0,0.0,-0.944638967514038,-0.8881974816322327
-0.2152706682682037,0.5713412761688232,-0.0340925082564353,-0.3363808393478393,-0.1511226445436477,0.0480955429375171,0.0,0.0,-0.876839816570282,0.7578151226043701
-0.2154686450958252,0.5634477734565735,-0.0200767535716295,-0.3507935404777527,-0.1508475840091705,0.0055011915974318,0.0,0.0,-0.7920995950698853,-0.747584342956543
-0.215669110417366,0.5552546977996826,-0.0213693901896476,-0.3640056550502777,-0.1495288163423538,0.0263757165521383,0.0,0.0,-0.9226034879684448,-0.4143308401107788
-0.2158173620700836,0.5467502474784851,-0.0158779826015234,-0.3778703808784485,-0.1484752893447876,0.021070634946227,0.0,0.0,-0.6938689947128296,-0.8904027938842773
-0.2159715145826339,0.5379562377929688,-0.017816312611103,-0.3906062841415405,-0.146084263920784,0.0478204414248466,0.0,0.0,-0.6628751754760742,-0.7345449924468994
-0.2161166667938232,0.528858482837677,-0.0179138351231813,-0.4040192067623138,-0.1426935642957687,0.0678141191601753,0.0,0.0,-0.8337082862854004,-0.8082141876220703
-0.2162753641605377,0.5194672346115112,-0.0209469199180603,-0.4169083535671234,-0.1376314610242843,0.1012421250343322,0.0,0.0,-0.7929551005363464,-0.5008395314216614
-0.2164163142442703,0.5097736716270447,-0.0201174784451723,-0.4302810430526733,-0.1316313743591308,0.1200018152594566,0.0,0.0,-0.8677186965942383,0.6282542943954468
-0.2164414823055267,0.4997592866420746,-0.0070486231707036,-0.4446906745433807,-0.1271194517612457,0.0902380272746086,0.0,0.0,-0.8470590114593506,-0.9603710770606996
-0.2164679020643234,0.4894459247589111,-0.0087337233126163,-0.457863450050354,-0.1210531592369079,0.1213258057832717,0.0,0.0,0.3099181652069092,-0.5443945527076721
-0.2163172662258148,0.4792287349700928,0.0079044243320822,-0.4535354375839233,-0.1139409840106964,0.1422433108091354,0.0,0.0,0.1784126758575439,0.164462924003601
-0.2159660756587982,0.4694156944751739,0.0279167499393224,-0.4356025457382202,-0.106791079044342,0.1429982781410217,0.0,0.0,-0.9881085157394408,0.0144001245498657
-0.2155366390943527,0.4592918157577514,0.036027442663908,-0.4494706094264984,-0.0999266430735588,0.1372888386249542,0.0,0.0,-0.6118674874305725,0.5947879552841187
