x_pos,y_pos,x_vel,y_vel,angle,ang_vel,leg_1,leg_2,main_booster,lat_booster
-0.0015348434681072,1.40321683883667,-0.1557334065437317,-0.3423629403114319,0.0020127051975578,0.0397212170064449,0.0,0.0,-0.8493587418827382,-0.4404124709012844
-0.0030835152138024,1.3951294422149658,-0.1570767760276794,-0.3594481348991394,0.0042077815160155,0.0439061075448989,0.0,0.0,-0.4229354677435164,0.6988110849020305
-0.004580688662827,1.3866292238235474,-0.1504687666893005,-0.3777863383293152,0.0049475622363388,0.0147967291995882,0.0,0.0,-0.550033022053547,0.6726691885140513
-0.0060532568022608,1.3777196407318115,-0.1471568644046783,-0.3959823846817016,0.0048535712994635,-0.0018799627432599,0.0,0.0,0.0505793851070293,0.0983525689405776
-0.0074656484648585,1.3690251111984253,-0.1417706310749054,-0.3864250481128692,0.0053864703513681,0.0106589430943131,0.0,0.0,0.4136003233675784,0.5899342931085467
-0.0087278364226222,1.3606204986572266,-0.1261146813631057,-0.3735356032848358,0.0052816509269177,-0.0020965237636119,0.0,0.0,-0.0178461324279217,-0.917381380513759
-0.0100885387510061,1.3518078327178955,-0.1381136775016784,-0.3916843831539154,0.0072958716191351,0.0402883701026439,0.0,0.0,0.4821273417207004,-0.7914047117681908
-0.011391925625503,1.3434617519378662,-0.1344481110572815,-0.3709668815135956,0.011361563578248,0.0813214629888534,0.0,0.0,-0.9000067536644769,0.3395124509497415
-0.0127225872129201,1.3347080945968628,-0.1374150812625885,-0.3890877664089203,0.015661047771573,0.08599753677845,0.0,0.0,0.1878929651920444,-0.4704095433350245
-0.0140910148620605,1.3263306617736816,-0.1414166539907455,-0.3723847568035126,0.0201925970613956,0.0906391069293022,0.0,0.0,-0.4818414712609538,0.3694916944151084
-0.0154898641631007,1.317546010017395,-0.1447026878595352,-0.3905055820941925,0.0249582417309284,0.0953216403722763,0.0,0.0,-0.5030261505849953,0.1635287375322228
-0.0169206615537405,1.308354139328003,-0.1481362879276275,-0.4086179137229919,0.0299576018005609,0.099996194243431,0.0,0.0,0.1245661556524322,-0.1172651010716691
-0.0183104518800973,1.2994730472564695,-0.1446921080350875,-0.394837349653244,0.0356092974543571,0.1130442172288894,0.0,0.0,-0.0393767057817249,0.388750224908332
-0.0197350494563579,1.2901848554611206,-0.148397758603096,-0.4129588305950165,0.0414931178092956,0.1176869645714759,0.0,0.0,-0.289391713809777,-0.4897179129028431
-0.0211955066770315,1.2804899215698242,-0.1522275656461715,-0.4310730099678039,0.0476087071001529,0.1223229393362999,0.0,0.0,0.6878522028421676,-0.8080588476819702
-0.02264747582376,1.270837903022766,-0.1534709185361862,-0.4292572438716888,0.0557956770062446,0.1637542992830276,0.0,0.0,0.8017206484793717,0.8326127021927439
-0.0239594466984272,1.2622056007385254,-0.1383608281612396,-0.3839444518089294,0.062882661819458,0.1417525708675384,0.0,0.0,-0.7043830851038058,-0.9459060126079872
-0.0253674499690532,1.2531529664993286,-0.1496284306049347,-0.4027290046215057,0.0716353878378868,0.1750703155994415,0.0,0.0,0.1920215926705588,0.4884270124006905
-0.0267872810363769,1.2445683479309082,-0.1513744443655014,-0.3820128440856933,0.0809412077069282,0.1861333549022674,0.0,0.0,0.3652234741146059,-0.1557278746866972
-0.0283526424318552,1.2362685203552246,-0.1658352464437484,-0.3694066405296325,0.0901594385504722,0.1843811571598053,0.0,0.0,0.9010699413436544,-0.3095341231822501
-0.0298920627683401,1.228874921798706,-0.1641253679990768,-0.3292474746704101,0.1002847030758857,0.2025235444307327,0.0,0.0,0.6645724423922652,0.7110210214314234
-0.0314499847590923,0.0,-0.1648025810718536,-0.317431628704071,0.109240785241127,0.1791375577449798,0.0,0.0,0.7817889124865149,-0.7770794731709704
-0.0330244079232215,1.215102195739746,-0.1685286462306976,-0.2961589097976684,0.1202810257673263,0.2208244800567627,0.0,0.0,-0.9017240899098602,-0.7772896289044062
-0.0346964821219444,1.2080340385437012,-0.1798863708972931,-0.3152172863483429,0.1329079419374466,0.2525608241558075,0.0,0.0,-0.4375776444230039,-0.2516799511804788
-0.036414049565792,1.2005605697631836,-0.1846093833446502,-0.3333454132080078,0.1457443833351135,0.2567514777183532,0.0,0.0,0.1568578102421927,-0.4180939931611706
-0.0383478179574012,1.1933704614639282,-0.2059642076492309,-0.3208439946174621,0.158315896987915,0.251429945230484,0.0,0.0,0.0288847686524909,-0.7983712523501529
-0.0404591560363769,1.186436414718628,-0.2254998236894607,-0.3097726702690124,0.1726865321397781,0.2874126136302948,0.0,0.0,-0.7821945845520735,0.4769156560706243
-0.0426173210144043,1.179098129272461,-0.2303436696529388,-0.3279033899307251,0.1872553676366806,0.2913767695426941,0.0,0.0,0.7763286492636827,0.4024288151551372
-0.0451157577335834,1.1725436449050903,-0.2638721764087677,-0.2931431233882904,0.2013679891824722,0.2822524309158325,0.0,0.0,0.5015570530107041,-0.4077087398267902
-0.0477693565189838,1.1662304401397705,-0.2794446647167206,-0.2825700938701629,0.215579405426979,0.2842287421226501,0.0,0.0,-0.09437244257068,-0.1289514470039129
-0.0504712089896202,1.1595127582550049,-0.284408688545227,-0.3007007241249084,0.2299717664718628,0.2878472506999969,0.0,0.0,-0.9246678352355956,0.9494531154632568
-0.0531574264168739,1.1524076461791992,-0.2813250422477722,-0.3178234696388244,0.2428760826587677,0.2580860555171966,0.0,0.0,-0.9333149194717408,0.9937121868133544
-0.0558284744620323,1.1449308395385742,-0.2782326340675354,-0.3341826498508453,0.254208356142044,0.2266454249620437,0.0,0.0,-0.9114174246788024,0.9824979305267334
-0.0584800727665424,1.137066125869751,-0.2746914327144623,-0.3512282371520996,0.2639318406581878,0.1944702416658401,0.0,0.0,-0.8508042097091675,0.9951478242874146
-0.061103917658329,1.1288288831710815,-0.2700036168098449,-0.3674950897693634,0.2717359662055969,0.1560822427272796,0.0,0.0,-0.8927160501480103,0.9796770811080932
-0.06370210647583,1.1202242374420166,-0.2655742764472961,-0.3835053443908691,0.2776308357715606,0.1178978830575943,0.0,0.0,-0.8577718138694763,0.9966812133789062
-0.0662771239876747,1.1112390756607056,-0.2614906430244446,-0.4001097679138183,0.2817312479019165,0.0820081233978271,0.0,0.0,-0.644523561000824,0.9950052499771118
-0.0688236206769943,1.10188889503479,-0.2566671967506408,-0.4159495234489441,0.2838019132614136,0.0414131358265876,0.0,0.0,-0.9125338196754456,0.9930226802825928
-0.071352481842041,1.0921732187271118,-0.2531625926494598,-0.4318710267543793,0.2840923368930816,0.0058086533099412,0.0,0.0,-0.8655575513839722,0.9945342540740968
-0.0738532096147537,1.0820859670639038,-0.248408168554306,-0.4479972422122955,0.2823721468448639,-0.0344034433364868,0.0,0.0,-0.9205843806266784,0.988357424736023
-0.0763447731733322,1.0716263055801392,-0.2459610700607299,-0.4642540216445923,0.2790871858596802,-0.0656990259885788,0.0,0.0,-0.9847798943519592,0.9814298152923584
-0.0787973403930664,1.0607963800430298,-0.2397872507572174,-0.4803048074245453,0.2734879851341247,-0.1119841560721397,0.0,0.0,-0.9806354641914368,0.9914209842681884
-0.0812113732099533,1.0495858192443848,-0.2337387502193451,-0.4968294501304626,0.2656365036964416,-0.157029703259468,0.0,0.0,-0.9834906458854676,0.9921770095825196
-0.0835883170366287,1.0380029678344729,-0.2277825325727462,-0.5130241513252258,0.255506306886673,-0.2026046216487884,0.0,0.0,-0.9696494936943054,0.9963545799255372
-0.0859437957406044,1.0260308980941772,-0.2238073348999023,-0.5300973653793335,0.2435556650161743,-0.239012986421585,0.0,0.0,-0.9715521335601808,0.9735286235809326
-0.0882688537240028,1.0136739015579224,-0.2186925411224365,-0.5469753742218018,0.2295338660478592,-0.280436098575592,0.0,0.0,-0.9654771089553832,0.9311436414718628
-0.090565875172615,1.0009350776672363,-0.2138313055038452,-0.5637781023979187,0.2134732753038406,-0.3212124705314636,0.0,0.0,-0.918351113796234,0.8193409442901611
-0.092864416539669,0.9878178238868712,-0.2126072198152542,-0.5805928707122803,0.1960774362087249,-0.3479165732860565,0.0,0.0,-0.9573597311973572,0.7980626821517944
-0.0951675400137901,0.974318504333496,-0.2117434293031692,-0.5976184606552124,0.1774275153875351,-0.3729986250400543,0.0,0.0,-0.9743859171867372,0.8016502857208252
-0.0974617972970008,0.9604305624961852,-0.2092456817626953,-0.614954948425293,0.1572171747684478,-0.4042068123817444,0.0,0.0,-0.9653728008270264,0.0953702926635742
-0.0998077392578125,0.946140468120575,-0.2143175303936004,-0.6330991983413696,0.1369843482971191,-0.4046569466590881,0.0,0.0,-0.968311369419098,0.189782977104187
-0.1022050827741622,0.9314481019973756,-0.2193694561719894,-0.6512435078620911,0.1167176663875579,-0.4053339958190918,0.0,0.0,-0.971424400806427,-0.3993116617202759
-0.1046537384390831,0.9163537621498108,-0.2243990898132324,-0.6693879961967468,0.0964060425758361,-0.4062324464321136,0.0,0.0,-0.9662097692489624,0.5607733726501465
-0.1071093529462814,0.9008693099021912,-0.2238647043704986,-0.6869445443153381,0.0749131292104721,-0.429858535528183,0.0,0.0,-0.9412065148353576,0.2880415916442871
-0.1096157059073448,0.8849833607673645,-0.2288421690464019,-0.7050934433937073,0.0533542707562446,-0.4311774373054504,0.0,0.0,-0.9534279108047484,0.763556718826294
-0.11212158203125,0.8686971068382263,-0.2274082899093628,-0.7231670022010803,0.0304416771978139,-0.4582517743110657,0.0,0.0,-0.882211446762085,-0.4345875382423401
-0.1146777123212814,0.8520104885101318,-0.2323245257139206,-0.7413214445114136,0.0074437353760004,-0.4599589407444,0.0,0.0,-0.8175533413887024,0.591048002243042
-0.1172263175249099,0.8349266052246094,-0.2299941331148147,-0.7593339085578918,-0.0170934908092021,-0.4907447695732116,0.0,0.0,-0.6334110498428345,-0.6547675132751465
-0.119869515299797,0.8174510598182678,-0.2405262738466262,-0.7771307229995728,-0.0405927896499633,-0.4699861109256744,0.0,0.0,0.0430524349212646,-0.961614191532135
-0.122675135731697,0.8003351092338562,-0.258622258901596,-0.7614545822143555,-0.0622697621583938,-0.433539479970932,0.0,0.0,0.5223008394241333,0.0266573429107666
-0.1254609078168869,0.7833240628242493,-0.256775826215744,-0.7570885419845581,-0.0838479399681091,-0.4315637946128845,0.0,0.0,-0.020262598991394,-0.5808849334716797
-0.1283479630947113,0.7659214735031128,-0.2681849300861358,-0.7747299075126648,-0.1042020097374916,-0.40708127617836,0.0,0.0,0.2776252031326294,-0.1543036103248596
-0.1311462372541427,0.7486986517906189,-0.2596426606178283,-0.7669898271560669,-0.1242480650544166,-0.4009213447570801,0.0,0.0,0.6196315288543701,-0.5417433977127075
-0.1339349746704101,0.7319719791412354,-0.2597551047801971,-0.7451047301292419,-0.1432879120111465,-0.3807973265647888,0.0,0.0,0.5107030868530273,-0.8485886454582214
-0.1367771178483963,0.7153933644294739,-0.2667073011398315,-0.7386115193367004,-0.1607698202133178,-0.3496385812759399,0.0,0.0,0.4589681625366211,-0.4681556224822998
-0.1396897286176681,0.6992107033729553,-0.2731497883796692,-0.7212918996810913,-0.1789096146821975,-0.3627960085868835,0.0,0.0,0.3137502670288086,-0.3348901271820068
-0.1425099372863769,0.6836252808570862,-0.263892114162445,-0.6949816346168518,-0.1971279978752136,-0.3643676340579986,0.0,0.0,0.0164589881896972,-0.5861065983772278
-0.1453305184841156,0.6678915023803711,-0.2650636434555053,-0.7016372084617615,-0.2142632901668548,-0.342705637216568,0.0,0.0,0.6566648483276367,-0.5002628564834595
-0.1480229347944259,0.653018057346344,-0.253221184015274,-0.6634542942047119,-0.2304746210575103,-0.3242265582084656,0.0,0.0,0.0396482944488525,-0.7657959461212158
-0.1508173048496246,0.6382165551185608,-0.2647871971130371,-0.66020268201828,-0.2453490048646927,-0.2974876165390014,0.0,0.0,0.0883644819259643,-0.8274887800216675
-0.1536775529384613,0.6237125992774963,-0.2728703916072845,-0.6468719244003296,-0.2587499022483825,-0.26801797747612,0.0,0.0,-0.1502660512924194,-0.5435224175453186
-0.1566193550825119,0.6088205575942993,-0.2819246053695678,-0.6640833616256714,-0.2712859511375427,-0.250721275806427,0.0,0.0,0.1676701307296753,-0.5292596220970154
-0.1595784127712249,0.5944487452507019,-0.284375250339508,-0.64093017578125,-0.2831187546253204,-0.236655980348587,0.0,0.0,0.8085625171661377,-0.5482094883918762
-0.1623611450195312,0.5805643796920776,-0.2679083347320556,-0.619128942489624,-0.2937889993190765,-0.2134047299623489,0.0,0.0,-0.1094589829444885,-0.8535767197608948
-0.1652536392211914,0.5662990212440491,-0.2804905474185943,-0.635808527469635,-0.3028230965137481,-0.1806821078062057,0.0,0.0,0.438917875289917,0.0280916690826416
-0.1680446565151214,0.552006721496582,-0.2704568803310394,-0.6370376348495483,-0.3117755353450775,-0.1790487468242645,0.0,0.0,0.6813249588012695,-0.4842540025711059
-0.1707991659641266,0.5378167629241943,-0.2664895951747894,-0.6326150894165039,-0.3210716247558594,-0.1859218776226043,0.0,0.0,0.712113618850708,-0.9206833839416504
-0.1734081208705902,0.5244377255439758,-0.2535819709300995,-0.5962632298469543,-0.3286911845207214,-0.1523913443088531,0.0,0.0,0.8864765167236328,-0.1273982524871826
-0.1756670027971267,0.5119310021400452,-0.2187981158494949,-0.5574849247932434,-0.3360879421234131,-0.1479350328445434,0.0,0.0,0.8469114303588867,-0.8452069163322449
-0.1778515875339508,0.5004211068153381,-0.2126096487045288,-0.5129253268241882,-0.3422061800956726,-0.1223649233579635,0.0,0.0,0.9019652605056764,-0.7859790325164795
-0.1801563203334808,0.4891490340232849,-0.2256487607955932,-0.5021393895149231,-0.3472714424133301,-0.101305291056633,0.0,0.0,0.8815271854400635,-0.0910487174987793
-0.1821458786725998,0.4787169694900512,-0.1941350847482681,-0.4648180305957794,-0.3523304164409637,-0.101179614663124,0.0,0.0,0.9405922889709472,-0.3934210538864136
-0.184047132730484,0.4688920676708221,-0.1845988929271698,-0.4380298554897308,-0.3581478595733642,-0.1163493245840072,0.0,0.0,0.4806832075119018,-0.6167551875114441
-0.1858626306056976,0.4595704078674316,-0.176936000585556,-0.4154562056064605,-0.3630176484584808,-0.097396045923233,0.0,0.0,0.7478255033493042,-0.6439532041549683
-0.1875061094760894,0.45091712474823,-0.160758376121521,-0.3855046033859253,-0.3668040037155151,-0.0757269039750099,0.0,0.0,0.864063024520874,-0.476435124874115
-0.1888525933027267,0.4427237212657928,-0.1312985867261886,-0.3650144636631012,-0.3703483343124389,-0.0708873271942138,0.0,0.0,0.8903436660766602,-0.8805157542228699
-0.1901254653930664,0.4346848130226135,-0.1254889219999313,-0.3577480316162109,-0.3722521364688873,-0.0380752906203269,0.0,0.0,0.9484080076217652,-0.5197095274925232
-0.1911849975585937,0.4268586933612823,-0.105290375649929,-0.3480042517185211,-0.3729657232761383,-0.0142718879505991,0.0,0.0,0.9773800373077391,-0.75029057264328
-0.1919003427028656,0.4195086658000946,-0.0725243166089057,-0.3264072239398956,-0.3719154596328735,0.0210051350295543,0.0,0.0,0.9869663715362548,-0.821487545967102
-0.1923610717058181,0.4123449325561523,-0.0488056242465972,-0.317678153514862,-0.3690169155597687,0.0579708032310009,0.0,0.0,0.9410285949707032,-0.6442749500274658
-0.1925811767578125,0.4060454070568084,-0.0257760547101497,-0.2790145576000213,-0.3650256991386413,0.0798244848847389,0.0,0.0,0.6577445268630981,-0.7121998071670532
-0.1925725936889648,0.4004229307174682,-0.0041764164343476,-0.2486171275377273,-0.3597167432308197,0.1061794012784957,0.0,0.0,0.5359339714050293,-0.6494415998458862
-0.1922975480556488,0.3952276706695556,0.0211649090051651,-0.2293267995119094,-0.3530336916446686,0.1336612105369568,0.0,0.0,-0.7632598280906677,-0.7840710878372192
-0.1920942366123199,0.3896454572677612,0.0129119828343391,-0.2462967187166214,-0.3452444672584533,0.1557842791080474,0.0,0.0,-0.5020267367362976,0.0226520299911499
-0.1919116079807281,0.3836574554443359,0.0110422261059284,-0.2644186615943908,-0.3376795351505279,0.1512987315654754,0.0,0.0,-0.5948302745819092,0.2028183937072754
-0.1917486190795898,0.3772637844085693,0.0092800948768854,-0.2825402617454529,-0.3303398787975311,0.1467933803796768,0.0,0.0,-0.4821430444717407,0.288455605506897
-0.1916040480136871,0.3704641461372375,0.0076246662065386,-0.3006614446640014,-0.3232264220714569,0.1422689408063888,0.0,0.0,-0.6450499296188354,-0.5242254734039307
-0.1915232688188552,0.3632869720458984,0.0002159629075322,-0.3172494769096374,-0.3150434792041778,0.1636588126420974,0.0,0.0,0.0684390068054199,0.4120471477508545
-0.1912654936313629,0.3563215434551239,0.0178559534251689,-0.3078742921352386,-0.3068282902240753,0.1643036305904388,0.0,0.0,-0.6317377686500549,-0.1385359168052673
-0.1910231560468673,0.3489503264427185,0.0165120530873537,-0.3259962797164917,-0.2988419830799103,0.1597261726856231,0.0,0.0,-0.1756187677383422,0.4846912622451782
-0.1907953321933746,0.3411733508110046,0.0152690513059496,-0.3441178500652313,-0.2910853624343872,0.1551326811313629,0.0,0.0,-0.1928257942199707,0.5537340641021729
-0.1905412673950195,0.3329706490039825,0.019142422825098,-0.3633266985416412,-0.2846396863460541,0.1289130896329879,0.0,0.0,-0.3209476470947265,0.3149422407150268
-0.1902998983860016,0.3243618309497833,0.018095588311553,-0.3814462721347809,-0.2784251868724823,0.1242898255586624,0.0,0.0,0.146811842918396,-0.0456231832504272
-0.190070629119873,0.3159142434597015,0.0175638701766729,-0.3744377791881561,-0.2729257047176361,0.1099898219108581,0.0,0.0,0.3577953577041626,-0.4059194326400757
-0.1896090507507324,0.3078782558441162,0.0406148806214332,-0.3561323881149292,-0.2672561705112457,0.1133904904127121,0.0,0.0,-0.3488889932632446,-0.2632497549057007
-0.189157485961914,0.2994360327720642,0.0398432090878486,-0.3742508888244629,-0.2618197798728943,0.1087278723716735,0.0,0.0,-0.3207573890686035,-0.1391669511795044
-0.1887149810791015,0.2905873954296112,0.0391577221453189,-0.3923691213130951,-0.2566170990467071,0.1040537804365158,0.0,0.0,0.5737910270690918,-0.6039629578590393
-0.1881609857082367,0.2824370563030243,0.0493717342615127,-0.3611983358860016,-0.2504772245883941,0.1227976083755493,0.0,0.0,-0.2029532194137573,-0.0963301658630371
-0.1876145303249359,0.2738804519176483,0.0488490387797355,-0.3793170750141144,-0.2445720583200454,0.1181029453873634,0.0,0.0,-0.0098156929016113,0.1625488996505737
-0.1870747506618499,0.2649175822734833,0.0484031327068805,-0.3974354565143585,-0.2389020770788192,0.1133993044495582,0.0,0.0,0.6256399154663086,-0.3627041578292846
-0.186357781291008,0.2567216157913208,0.0663870722055435,-0.3634096384048462,-0.2335005700588226,0.1080302745103836,0.0,0.0,0.0140649080276489,-0.595407247543335
-0.1855380982160568,0.2488316893577575,0.0756303519010543,-0.3496756851673126,-0.2270787954330444,0.1284351795911789,0.0,0.0,-0.3387161493301391,-0.0518223047256469
-0.1847230941057205,0.2405354380607605,0.0753936320543289,-0.3677943050861358,-0.2208932936191558,0.1237103193998336,0.0,0.0,-0.2622714638710022,-0.2562465667724609
-0.1839120835065841,0.2318327724933624,0.0752195715904235,-0.385912537574768,-0.2149442732334137,0.1189804077148437,0.0,0.0,-0.0260400176048278,-0.2996799945831299
-0.1831045150756836,0.2227238565683365,0.0751044303178787,-0.4040304124355316,-0.2092319428920745,0.1142465025186538,0.0,0.0,0.590407133102417,-0.4044810533523559
-0.1822073012590408,0.2140111774206161,0.0843847915530204,-0.3864860832691192,-0.2038524001836776,0.1075904816389083,0.0,0.0,0.6382430791854858,-0.296185553073883
-0.1811801940202713,0.2056611329317093,0.0974895432591438,-0.3704007565975189,-0.1985907852649688,0.1052323952317237,0.0,0.0,0.4191993474960327,-0.6347455978393555
-0.1800232827663421,0.1973317712545395,0.1091897264122963,-0.3693391382694244,-0.1920527219772339,0.1307611763477325,0.0,0.0,0.5496273040771484,-0.4939648509025574
-0.1786557137966156,0.1895141750574112,0.1300682723522186,-0.3465957641601562,-0.1853288859128952,0.1344768106937408,0.0,0.0,-0.1653848886489868,-0.7680755257606506
-0.1773453652858734,0.1813136935234069,0.1230932250618934,-0.3634936213493347,-0.1773601621389389,0.1593745201826095,0.0,0.0,-0.0728329420089721,-0.499605655670166
