x_pos,y_pos,x_vel,y_vel,angle,ang_vel,leg_1,leg_2,main_booster,lat_booster
-0.0015233993763104,1.4033114910125732,-0.1534115523099899,-0.3381684422492981,0.0009523021872155,0.0187251549214124,0.0,0.0,-0.1988802552223205,0.294478178024292
-0.003046893980354,1.395412564277649,-0.1524553000926971,-0.3510580956935882,0.0010584616102278,0.0021241412032395,0.0,0.0,0.0132753849029541,0.6994335651397705
-0.0044214250519871,1.3875669240951538,-0.1354192197322845,-0.3486951291561126,-0.0009536444558762,-0.0402462817728519,0.0,0.0,-0.2514315843582153,0.2994923591613769
-0.0057957647368311,1.3794080018997192,-0.134562999010086,-0.3626194894313812,-0.0037898642476648,-0.0567295737564563,0.0,0.0,-0.018720805644989,0.0939452648162841
-0.007169818971306,1.370936393737793,-0.1337020844221115,-0.3765369057655334,-0.0074531910941004,-0.0732733830809593,0.0,0.0,-0.2064839601516723,0.0842111110687255
-0.008543586358428,1.3621517419815063,-0.1328363120555877,-0.3904549479484558,-0.0119454870000481,-0.0898541659116745,0.0,0.0,0.0185744762420654,0.4548773765563965
-0.00992670096457,1.3535888195037842,-0.1328651010990142,-0.3806306421756744,-0.0173350311815738,-0.1078007966279983,0.0,0.0,0.4520719051361084,-0.1611685752868652
-0.0111683849245309,1.3455626964569092,-0.1185039430856704,-0.356797844171524,-0.0229311436414718,-0.111932598054409,0.0,0.0,-0.1578560471534729,-0.0854052305221557
-0.0124096870422363,1.337224006652832,-0.1176270470023155,-0.3707237839698791,-0.0293618030846118,-0.1286249756813049,0.0,0.0,-0.3606234788894653,-0.2900537252426147
-0.0136506082490086,1.3285731077194214,-0.11674565076828,-0.3846435248851776,-0.0366275385022163,-0.1453284621238708,0.0,0.0,-0.3214438557624817,-0.2264260053634643
-0.0148911476135253,1.319610357284546,-0.1158606633543968,-0.3985667824745178,-0.0447297766804695,-0.162059336900711,0.0,0.0,-0.6768449544906616,0.1451801061630249
-0.0161312110722064,1.3103358745574951,-0.1149721294641494,-0.4124919474124908,-0.0536694526672363,-0.1788100004196167,0.0,0.0,-0.2011880874633789,0.5098925828933716
-0.0173218734562397,1.3007489442825315,-0.1079470515251159,-0.4265232682228088,-0.0646771118044853,-0.2201735973358154,0.0,0.0,-0.6589484810829163,0.5186488628387451
-0.0184666626155376,1.2908421754837036,-0.1013618931174278,-0.4409160912036896,-0.0776717066764831,-0.2599158883094787,0.0,0.0,-0.6780635714530945,-0.4768768548965454
-0.0196105949580669,1.280625581741333,-0.1004577055573463,-0.4548528790473938,-0.091505229473114,-0.2766960859298706,0.0,0.0,0.441379189491272,-0.60924232006073
-0.0206745155155658,1.2704718112945557,-0.0930671244859695,-0.4521466493606567,-0.1047400459647178,-0.2647201418876648,0.0,0.0,0.0629619359970092,-0.9016099572181702
-0.0216457359492778,1.2608343362808228,-0.0847861915826797,-0.4292431771755218,-0.1170113906264305,-0.245449423789978,0.0,0.0,-0.1878498792648315,-0.8842190504074097
-0.0226697921752929,0.0,-0.0905879661440849,-0.4429987370967865,-0.1287820488214492,-0.2354344427585601,0.0,0.0,-0.6342133283615112,-0.9156511425971984
-0.0237524025142192,1.2406532764434814,-0.0971627309918403,-0.4559025168418884,-0.1398584097623825,-0.2215471714735031,0.0,0.0,-0.8610143661499023,-0.9435114860534668
-0.024917984381318,1.230124831199646,-0.1067711263895034,-0.4688765704631805,-0.1496414542198181,-0.1956786215305328,0.0,0.0,-0.7573186755180359,-0.8005779385566711
-0.0261317249387502,1.219303011894226,-0.1120087057352066,-0.4819359183311462,-0.1590028703212738,-0.1872450411319732,0.0,0.0,-0.6454266309738159,-0.9471606016159058
-0.027417754754424,1.20818293094635,-0.1202704757452011,-0.4951371550559997,-0.1673517376184463,-0.1669923514127731,0.0,0.0,-0.5076028108596802,-0.4265429973602295
-0.0287032127380371,1.196752429008484,-0.1193843707442283,-0.5090749263763428,-0.1765429824590683,-0.1838411539793014,0.0,0.0,-0.6640012264251709,-0.9225542545318604
-0.0300526618957519,1.185018539428711,-0.126585453748703,-0.5225161910057068,-0.1849474310874939,-0.1681038290262222,0.0,0.0,-0.5260008573532104,-0.949081301689148
-0.0314923301339149,1.1730023622512815,-0.1371173113584518,-0.5349135994911194,-0.1918392181396484,-0.1378480643033981,0.0,0.0,-0.5990267992019653,-0.9105647206306458
-0.0330213531851768,1.1606853008270264,-0.147478312253952,-0.5481492280960083,-0.1972991973161697,-0.1091992408037185,0.0,0.0,0.2726000547409057,-0.7529120445251465
-0.0344948768615722,1.1489014625549316,-0.1426029950380325,-0.5243616700172424,-0.2020812332630157,-0.0956405848264694,0.0,0.0,0.0962786674499511,-0.7892030477523804
-0.0360163673758506,1.1376687288284302,-0.1480916142463684,-0.4997893571853637,-0.2061694413423538,-0.0817644745111465,0.0,0.0,-0.021170437335968,-0.1083429455757141
-0.0375376716256141,1.126125693321228,-0.1472443640232086,-0.5137211680412292,-0.2110981345176696,-0.0985740944743156,0.0,0.0,-0.5572623014450073,-0.441307783126831
-0.0390587821602821,1.1142719984054563,-0.1464019864797592,-0.5276538729667664,-0.2168665379285812,-0.1153677254915237,0.0,0.0,-0.7012853622436523,-0.8187964558601379
-0.0406395904719829,1.102137327194214,-0.1531285047531128,-0.5400564670562744,-0.2218697220087051,-0.1000639945268631,0.0,0.0,-0.0561357736587524,-0.9087639451026917
-0.042300034314394,1.0897136926651,-0.1623166650533676,-0.5527246594429016,-0.2256480902433395,-0.0755672752857208,0.0,0.0,0.901180863380432,-0.6376491785049438
-0.043901540338993,1.0783852338790894,-0.1566060483455658,-0.5040350556373596,-0.2292367815971374,-0.0717737153172493,0.0,0.0,-0.4979097843170166,-0.4262206554412842
-0.0455029495060443,1.0667462348937988,-0.1557866185903549,-0.5179679989814758,-0.2336606681346893,-0.0884778499603271,0.0,0.0,0.1694703102111816,-0.6396787166595459
-0.0470380783081054,1.0554593801498413,-0.1496192514896392,-0.5022649765014648,-0.237608715891838,-0.0789612233638763,0.0,0.0,-0.7723588347434998,-0.7756858468055725
-0.0486299507319927,1.0438886880874634,-0.1559863090515136,-0.5147749781608582,-0.2408663183450698,-0.0651519522070884,0.0,0.0,-0.1809679865837097,0.30950927734375
-0.0502221100032329,1.0320076942443848,-0.1551901698112487,-0.5287083983421326,-0.244954228401184,-0.0817582830786705,0.0,0.0,-0.2951453924179077,-0.6595271825790405
-0.0518608093261718,1.01983904838562,-0.1602755486965179,-0.5414314270019531,-0.2486184984445572,-0.0732855051755905,0.0,0.0,-0.2355020642280578,-0.9254229068756104
-0.0535734184086322,1.0073988437652588,-0.1688228547573089,-0.553316056728363,-0.2511082589626312,-0.0497950389981269,0.0,0.0,0.5346291065216064,-0.3944003582000732
-0.0551208481192588,0.9954589009284972,-0.1516010612249374,-0.5312026143074036,-0.2543002963066101,-0.0638407170772552,0.0,0.0,-0.6568067669868469,-0.6500105857849121
-0.0567260757088661,0.9832367300987244,-0.1581121385097503,-0.5436261296272278,-0.2567614912986755,-0.0492240972816944,0.0,0.0,0.1635340452194214,-0.8695237040519714
-0.0582072250545024,0.9712249040603638,-0.1466678828001022,-0.5341120362281799,-0.2582425773143768,-0.0296218059957027,0.0,0.0,-0.3067211508750915,-0.5223488807678223
-0.0597234740853309,0.9589104652404784,-0.1502440720796585,-0.5475531220436096,-0.2596579194068908,-0.0283067021518945,0.0,0.0,-0.6239125728607178,-0.8363900184631348
-0.061294175684452,0.946305215358734,-0.1562648117542266,-0.5603727698326111,-0.2604734599590301,-0.0163108725100755,0.0,0.0,0.7875998020172119,-0.818270206451416
-0.0628944411873817,0.9338858127593994,-0.1599593460559845,-0.551987886428833,-0.2605418264865875,-0.001367587246932,0.0,0.0,-0.7661194205284119,-0.808452308177948
-0.0645541176199913,0.9211708903312684,-0.1665863394737243,-0.5650014877319336,-0.2599107027053833,0.012622645124793,0.0,0.0,-0.6561769843101501,-0.5802456736564636
-0.0662552863359451,0.9081583619117736,-0.1709831655025482,-0.5781837105751038,-0.2590270638465881,0.0176724810153245,0.0,0.0,-0.5670369267463684,-0.5224816203117371
-0.0680041313171386,0.8948594927787781,-0.1761975735425949,-0.5908240079879761,-0.2576790750026703,0.0269596073776483,0.0,0.0,-0.4156124591827392,-0.4208914041519165
-0.0697544068098068,0.8812503218650818,-0.1755750030279159,-0.6047570705413818,-0.257120817899704,0.0111651178449392,0.0,0.0,-0.698556125164032,-0.6306096315383911
-0.0715563744306564,0.8673484325408936,-0.181276723742485,-0.6176687479019165,-0.2560280263423919,0.0218559224158525,0.0,0.0,-0.5473518371582031,-0.434289276599884
-0.0733603462576866,0.8531363010406494,-0.1807007789611816,-0.6316013932228088,-0.2557131648063659,0.0062973476015031,0.0,0.0,-0.9098593592643738,-0.8819552063941956
-0.0752389878034591,0.83864825963974,-0.1893382370471954,-0.64366215467453,-0.2542103826999664,0.0300551764667034,0.0,0.0,-0.9148851037025452,-0.3190933465957641
-0.0771199241280555,0.8238494396209717,-0.1888153105974197,-0.6575944423675537,-0.2534716427326202,0.0147747667506337,0.0,0.0,-0.9804133772850036,-0.8247941136360168
-0.0790646523237228,0.8087718486785889,-0.1960838288068771,-0.6698364019393921,-0.2518239319324493,0.0329550132155418,0.0,0.0,-0.9354836344718932,-0.6417129635810852
-0.081049345433712,0.7933956980705261,-0.2003061324357986,-0.6830756068229675,-0.2499499022960662,0.0374806448817253,0.0,0.0,-0.6625155806541443,-0.112714409828186
-0.0830368995666503,0.7777087092399597,-0.1998749673366546,-0.6970072388648987,-0.2488143444061279,0.0227114669978618,0.0,0.0,-0.6591274738311768,-0.7691525220870972
-0.0850761383771896,0.7617368102073669,-0.2056108266115188,-0.7095750570297241,-0.2470898032188415,0.0344907343387603,0.0,0.0,-0.8172651529312134,-0.7719975113868713
-0.0871637314558029,0.7454744577407837,-0.2109293937683105,-0.7224070429801941,-0.2448782920837402,0.0442303642630577,0.0,0.0,-0.6349937319755554,-0.2687777280807495
-0.0892549529671669,0.7289012670516968,-0.2106043100357055,-0.7363378405570984,-0.2433728724718094,0.0301086008548736,0.0,0.0,0.0928257703781127,0.0430954694747924
-0.0912736877799034,0.7127920985221863,-0.2024506628513336,-0.7158668041229248,-0.242794007062912,0.0115775652229785,0.0,0.0,-0.7244583368301392,-0.4212683439254761
-0.0932967215776443,0.6963721513748169,-0.2022031545639038,-0.7297965288162231,-0.2428951561450958,-0.0020229557994753,0.0,0.0,-0.5318918824195862,-0.6724991202354431
-0.0953837409615516,0.6796667575836182,-0.2095040827989578,-0.7423257231712341,-0.2420750707387924,0.0164016988128423,0.0,0.0,0.7046940326690674,-0.274925947189331
-0.0972237586975097,0.6633816957473755,-0.1847523301839828,-0.7236585021018982,-0.2413153350353241,0.0151948351413011,0.0,0.0,-0.1648592352867126,-0.722603440284729
-0.0991218537092208,0.6468061804771423,-0.191309168934822,-0.7364420294761658,-0.2397863566875457,0.0305791981518268,0.0,0.0,0.6909744739532471,-0.0464313030242919
-0.1009199172258377,0.6305145621299744,-0.1807427108287811,-0.7239224314689636,-0.2388356178998947,0.0190147012472152,0.0,0.0,0.4051265716552734,-0.0094032287597656
-0.1027068123221397,0.6146814823150635,-0.1785629838705063,-0.7037085294723511,-0.2389680594205856,-0.0026487109716981,0.0,0.0,0.2747672796249389,-0.461908757686615
-0.1043270081281662,0.5994938015937805,-0.161403402686119,-0.6751144528388977,-0.2395996451377868,-0.012631582096219,0.0,0.0,-0.6574575901031494,-0.9077772498130798
-0.106015108525753,0.5840061902999878,-0.1691890656948089,-0.6882777810096741,-0.2392122149467468,0.0077485986985266,0.0,0.0,0.6730198860168457,-0.5491943359375
-0.1075170487165451,0.5694780349731445,-0.1512238681316375,-0.6455289125442505,-0.2381655722856521,0.0209328867495059,0.0,0.0,-0.6466898918151855,-0.8361209630966187
-0.1091001480817794,0.5546618700027466,-0.1607481837272644,-0.65810227394104,-0.2356782704591751,0.0497456043958663,0.0,0.0,0.5359735488891602,-0.3801045417785644
-0.1106255501508712,0.5404821634292603,-0.1541363298892974,-0.6299545168876648,-0.2340673953294754,0.0322174802422523,0.0,0.0,0.33565354347229,-0.6428091526031494
-0.1120634078979492,0.5267342329025269,-0.1462524384260177,-0.6106294989585876,-0.2315649688243866,0.050048392266035,0.0,0.0,-0.1947152614593505,-0.569129467010498
-0.113560102880001,0.512699544429779,-0.1530928611755371,-0.6232287883758545,-0.2280910760164261,0.0694777518510818,0.0,0.0,0.0520378351211547,-0.1842803359031677
-0.1149349212646484,0.4988745152950287,-0.1407298147678375,-0.6139460802078247,-0.2247979640960693,0.0658620446920394,0.0,0.0,0.6048414707183838,-0.1667218804359436
-0.1162639632821083,0.4853040277957916,-0.1356380879878997,-0.6027170419692993,-0.2220230549573898,0.0554977469146251,0.0,0.0,0.4623230695724487,0.5295782089233398
-0.1174333542585372,0.4718017876148224,-0.1184471100568771,-0.599873960018158,-0.2204962819814682,0.0305357668548822,0.0,0.0,-0.0095062255859375,-0.3167605400085449
-0.1186098083853721,0.4579873383045196,-0.1188521832227706,-0.6137956976890564,-0.2192719727754593,0.0244857836514711,0.0,0.0,0.9354214668273926,0.0726017951965332
-0.1196005791425705,0.44522425532341,-0.0999874919652938,-0.5671182870864868,-0.2183619141578674,0.0182012487202882,0.0,0.0,0.8405368328094482,0.6739437580108643
-0.120254710316658,0.4334374070167541,-0.0649693682789802,-0.5239217877388,-0.2188059240579605,-0.0088802278041839,0.0,0.0,0.7629127502441406,-0.7902936339378357
-0.1209143623709678,0.4226858913898468,-0.0666523948311805,-0.4777418673038482,-0.2181096673011779,0.0139250131323933,0.0,0.0,-0.3477289080619812,-0.5170727968215942
-0.1216300949454307,0.4116326868534088,-0.0733487010002136,-0.4909924566745758,-0.2163168936967849,0.035855446010828,0.0,0.0,-0.0652438402175903,-0.4560674428939819
-0.1223526000976562,0.4002667665481567,-0.0739041566848754,-0.5049110054969788,-0.2146521508693695,0.033295102417469,0.0,0.0,0.7401574850082397,0.3569178581237793
-0.12305698543787,0.3895104825496673,-0.0715103223919868,-0.4779006242752075,-0.2135728299617767,0.0215867683291435,0.0,0.0,0.6333160400390625,-0.376886785030365
-0.1236789673566818,0.3794409036636352,-0.0629582703113555,-0.4474300146102905,-0.2127996236085891,0.0154642332345247,0.0,0.0,0.4469835758209228,-0.3033580183982849
-0.1241882294416427,0.3699593842029571,-0.0516251623630523,-0.4212978780269623,-0.2120940834283828,0.0141107738018035,0.0,0.0,-0.7255138158798218,-0.3174881935119629
-0.1247037872672081,0.3601648211479187,-0.0522737614810466,-0.4352136552333832,-0.211371824145317,0.0144450413063168,0.0,0.0,-0.5398123860359192,-0.3564498424530029
-0.1252254545688629,0.3500568866729736,-0.0529422238469123,-0.4491287767887115,-0.2105972319841385,0.0154920313507318,0.0,0.0,0.0706584453582763,-0.2309550642967224
-0.1256399154663086,0.3399996161460876,-0.0425703711807727,-0.4468308389186859,-0.2094570249319076,0.0228038933128118,0.0,0.0,0.4216333627700805,0.3031573295593261
-0.1258341819047927,0.3303104043006897,-0.0212529767304658,-0.4303753077983856,-0.2076092064380645,0.0369564704596996,0.0,0.0,-0.2689635157585144,-0.2134366631507873
-0.126034066081047,0.3203076124191284,-0.0219737123697996,-0.4442888796329498,-0.2056057006120681,0.0400702133774757,0.0,0.0,0.4205232858657837,-0.566386878490448
-0.1261558532714843,0.3109592199325561,-0.0154774934053421,-0.4150307774543762,-0.2022837996482849,0.0664380714297294,0.0,0.0,-0.7332178950309753,0.0996423959732055
-0.1262829750776291,0.3012972772121429,-0.0162276774644851,-0.4289439916610718,-0.1987414360046386,0.0708471164107322,0.0,0.0,0.1058000326156616,-0.4936350584030151
-0.126245304942131,0.2919535934925079,-0.0003857962437905,-0.4147233963012695,-0.1945621371269226,0.0835863500833511,0.0,0.0,-0.8212723731994629,-0.4908841848373413
-0.1262125968933105,0.282296359539032,-0.0011615139665082,-0.4286362528800964,-0.1901017278432846,0.089207999408245,0.0,0.0,0.662743091583252,0.5455148220062256
-0.1261013001203537,0.2730826437473297,0.0076242974027991,-0.4090536832809448,-0.1865767836570739,0.0704988688230514,0.0,0.0,-0.6688706874847412,-0.8060367703437805
-0.126047134399414,0.2635799050331116,0.0001846865052357,-0.421693742275238,-0.1813183277845382,0.1051690429449081,0.0,0.0,-0.4212822318077087,0.230543851852417
-0.1259972602128982,0.2537635862827301,-0.0006230025319382,-0.4356065094470978,-0.1756965368986129,0.1124356761574745,0.0,0.0,0.1414408683776855,-0.1752775311470031
-0.1259402334690094,0.2444679141044616,0.0001003863435471,-0.4124884307384491,-0.1700840890407562,0.1122493371367454,0.0,0.0,-0.6278972029685974,-0.1974120736122131
-0.1258873045444488,0.2348586618900299,-0.0007249166374094,-0.4264011979103088,-0.1640595495700836,0.1204909309744834,0.0,0.0,0.0300948619842529,0.1077102422714233
-0.1257947981357574,0.2256363779306411,0.002944731619209,-0.4092008471488952,-0.1577547341585159,0.1260962039232254,0.0,0.0,-0.7012038826942444,0.7256132364273071
-0.1256566047668457,0.2160938531160354,0.0082977097481489,-0.4235366284847259,-0.15224389731884,0.1102166548371315,0.0,0.0,0.2187918424606323,0.5732542276382446
-0.1254418343305587,0.2067747265100479,0.0166700687259435,-0.4137009084224701,-0.14744234085083,0.0960310250520706,0.0,0.0,0.3299311399459839,-0.5721567273139954
-0.1253056526184082,0.1978933215141296,0.0073731811717152,-0.3941226005554199,-0.1412137895822525,0.124570831656456,0.0,0.0,-0.5354952812194824,0.6827640533447266
-0.1251329481601715,0.1886883378028869,0.0115354591980576,-0.4085807204246521,-0.1354967951774597,0.114340104162693,0.0,0.0,0.5827078819274902,0.4649183750152588
-0.1247698813676834,0.1801723539829254,0.0295560900121927,-0.3778908550739288,-0.1287804692983627,0.1343265324831009,0.0,0.0,-0.2838677167892456,0.1037768125534057
-0.1244100555777549,0.1713429540395736,0.0286867376416921,-0.3918047547340393,-0.1215184703469276,0.1452399045228958,0.0,0.0,0.5178195238113403,0.8987375497817993
-0.1237478256225586,0.1632104218006134,0.0599687471985816,-0.3609510362148285,-0.1153028309345245,0.124312624335289,0.0,0.0,-0.2671955823898315,-0.1205815076828002
-0.1230886429548263,0.1547644734382629,0.0590908601880073,-0.3748647570610046,-0.1085128858685493,0.1357989609241485,0.0,0.0,0.3835573196411133,0.165624737739563
-0.1222358718514442,0.1470529437065124,0.0772836133837699,-0.3421763181686401,-0.1005829125642776,0.1585995703935623,0.0,0.0,-0.4726797342300415,-0.5429982542991638
-0.1214231476187706,0.1390342116355896,0.0717134401202201,-0.355775237083435,-0.0911081507802009,0.1894952356815338,0.0,0.0,0.0129969120025634,0.7312095165252686
-0.1205146759748458,0.1314506381750106,0.0821498483419418,-0.3365435898303985,-0.0824806913733482,0.172549158334732,0.0,0.0,-0.2399854660034179,0.6747386455535889
-0.1195497512817382,0.1235527843236923,0.0886408239603042,-0.3506035506725311,-0.0747100636363029,0.1554127782583236,0.0,0.0,0.3977835178375244,0.560786247253418
-0.1184404343366622,0.1159061267971992,0.1034048944711685,-0.339494526386261,-0.0672602504491806,0.148995965719223,0.0,0.0,-0.2549884915351867,-0.3859609365463257
-0.1173335090279579,0.1079465448856353,0.1025082319974899,-0.3534115850925445,-0.0591706335544586,0.1617923974990844,0.0,0.0,0.5941619873046875,0.1984214782714843
-0.1163232773542404,0.1004290655255317,0.0927631184458732,-0.3338091969490051,-0.0510057136416435,0.163298487663269,0.0,0.0,0.7788467407226562,0.966672420501709
-0.1152338981628418,0.0935034602880477,0.1019932627677917,-0.3075808882713318,-0.0441470108926296,0.1371742337942123,0.0,0.0,0.562145471572876,0.8323551416397095
-0.1140314117074012,0.087013155221939,0.1142649501562118,-0.2882958054542541,-0.0382393039762973,0.1181544661521911,0.0,0.0,-0.2807608842849731,0.6302323341369629
-0.1127707511186599,0.0802004933357238,0.1209558099508285,-0.3026623129844665,-0.0331882871687412,0.1010203510522842,0.0,0.0,0.4322552680969238,0.8544108867645264
-0.1113294586539268,0.0739590972661972,0.1399286687374115,-0.2773093581199646,-0.0290447864681482,0.0828702822327613,0.0,0.0,0.2761578559875488,-0.4361518621444702
-0.1098528876900672,0.0683379024267196,0.1426774561405182,-0.2497404366731643,-0.0241302903741598,0.0982900857925415,0.0,0.0,-0.7510451674461365,-0.3905652165412903
