x_pos,y_pos,x_vel,y_vel,angle,ang_vel,leg_1,leg_2,main_booster,lat_booster
-0.0015135764842852,1.403050184249878,-0.1533065438270568,-0.3497773110866546,0.001744567300193,0.0344116762280464,0.0,0.0,0.0523991584777832,0.4675449132919311
-0.0029864311218261,1.3950698375701904,-0.149150401353836,-0.3546839654445648,0.0035835737362504,0.0367842502892017,0.0,0.0,-0.112123429775238,0.8467491865158081
-0.0043715476058423,1.3865089416503906,-0.1382861733436584,-0.380487322807312,0.0033568516373634,-0.004534781910479,0.0,0.0,-0.0709429383277893,0.5183510780334473
-0.0057191848754882,1.377372145652771,-0.1336791813373565,-0.4060818552970886,0.0022885063663125,-0.0213687382638454,0.0,0.0,0.2743865251541137,0.7390172481536865
-0.0068946839310228,1.3684184551239014,-0.1151363626122474,-0.3979443907737732,-9.709186997497454e-05,-0.047716237604618,0.0,0.0,-0.2391396760940551,-0.2472066283226013
-0.008068561553955,1.358890175819397,-0.1149474158883094,-0.4234777688980102,-0.0025007219519466,-0.0480773411691188,0.0,0.0,-0.4650660753250122,0.7878751754760742
-0.0091823581606149,1.3487876653671265,-0.1074175834655761,-0.4490145444869995,-0.0064237299375236,-0.0784675478935241,0.0,0.0,0.3135013580322265,0.5355949401855469
-0.0101225851103663,1.338882327079773,-0.0892698317766189,-0.4402596354484558,-0.0111201610416173,-0.0939375832676887,0.0,0.0,-0.1456414461135864,0.3962085247039795
-0.0110651971772313,1.3284029960632324,-0.0894886031746864,-0.4657942056655884,-0.0158333275467157,-0.0942719802260398,0.0,0.0,0.3969454765319824,0.0394837856292724
-0.012002277188003,1.3182708024978638,-0.0889177471399307,-0.4503779113292694,-0.0205658972263336,-0.0946598798036575,0.0,0.0,-0.1711962223052978,0.1029984951019287
-0.0129439355805516,1.3075644969940186,-0.0893681421875953,-0.4759140014648437,-0.0253140646964311,-0.094971939921379,0.0,0.0,-0.3336572647094726,-0.2895749807357788
-0.013891315087676,1.2962839603424072,-0.0899204760789871,-0.5014398097991943,-0.030077451840043,-0.0952765867114067,0.0,0.0,-0.917790949344635,-0.921117067337036
-0.0149020198732614,1.2844367027282717,-0.0976959764957428,-0.5266162753105164,-0.0334231965243816,-0.0669206380844116,0.0,0.0,-0.3975561857223511,-0.184037446975708
-0.0159202571958303,1.2720152139663696,-0.0984296202659607,-0.5521442890167236,-0.0367841608822345,-0.0672252774238586,0.0,0.0,0.82584547996521,-0.3416018486022949
-0.0167573932558298,1.2603765726089478,-0.0810457244515419,-0.5173395276069641,-0.0394246727228164,-0.0528150387108325,0.0,0.0,0.0799998044967651,-0.3029678463935852
-0.017524242401123,1.2484503984451294,-0.0743351429700851,-0.5301129221916199,-0.041742704808712,-0.0463650487363338,0.0,0.0,-0.0930143594741821,-0.5524768233299255
-0.0183340068906545,1.2359585762023926,-0.0794666483998298,-0.555234968662262,-0.0432273559272289,-0.029695987701416,0.0,0.0,-0.028630256652832,-0.8138382434844971
-0.0192028991878032,1.222888708114624,-0.0866194367408752,-0.5808911919593811,-0.0434925779700279,-0.005304941907525,0.0,0.0,0.2043514251708984,-0.2827485799789428
-0.0199858658015728,1.2101168632507324,-0.0783578678965568,-0.5676395297050476,-0.0434401892125606,0.0010479252086952,0.0,0.0,-0.6280282139778137,-0.421114444732666
-0.0207796096801757,1.196770429611206,-0.0794114023447036,-0.5931736826896667,-0.0434009991586208,0.0007836450822651,0.0,0.0,-0.3594436645507812,-0.450117290019989
-0.021584128960967,1.1828497648239136,-0.0804838016629219,-0.6186990737915039,-0.043374665081501,0.0005268590757623,0.0,0.0,0.7754648923873901,-0.0034669637680053
-0.0223665237426757,1.169066309928894,-0.0783052593469619,-0.6125912070274353,-0.043302483856678,0.0014436563942581,0.0,0.0,-0.7389129400253296,-0.5658077597618103
-0.0231948848813772,1.154710054397583,-0.0837923660874366,-0.6380318403244019,-0.0423605293035507,0.0188409723341465,0.0,0.0,-0.0514203906059265,-0.5796661376953125
-0.0240748412907123,1.1397755146026611,-0.0899714082479476,-0.6636995077133179,-0.0404134280979633,0.0389456786215305,0.0,0.0,-0.0195568203926086,0.105799913406372
-0.0249656680971384,1.1242667436599731,-0.0910389497876167,-0.6892271637916565,-0.0384791940450668,0.0386882647871971,0.0,0.0,0.2424464225769043,-0.4832265377044678
-0.0259566307067871,1.1089622974395752,-0.1005376428365707,-0.6801668405532837,-0.0370642207562923,0.0282998494803905,0.0,0.0,-0.0657289028167724,0.3874807357788086
-0.0269577987492084,1.0930832624435425,-0.1015416607260704,-0.7056922316551208,-0.0356615632772445,0.0280532445758581,0.0,0.0,0.6743565797805786,0.2156636714935302
-0.0280713085085153,1.0778909921646118,-0.1121346727013588,-0.6751936078071594,-0.0348839461803436,0.0155521612614393,0.0,0.0,-0.8270326256752014,-0.2490537762641906
-0.0291940681636333,1.062124490737915,-0.1130472645163536,-0.7007188200950623,-0.0341188460588455,0.0153022427111864,0.0,0.0,0.015151023864746,-0.1818382143974304
-0.0303280837833881,1.046233296394348,-0.1141082867980003,-0.7062549591064453,-0.0334260761737823,0.0138555318117141,0.0,0.0,0.6090006828308105,-0.2118875980377197
-0.0314244255423545,1.0310031175613403,-0.1104028597474098,-0.6768810153007507,-0.0326617993414402,0.0152854565531015,0.0,0.0,-0.4935914874076843,0.2633453607559204
-0.0325280204415321,1.0151987075805664,-0.1111175268888473,-0.7024062871932983,-0.0319104567170143,0.0150266708806157,0.0,0.0,0.3973114490509033,-0.7097598910331726
-0.0337499603629112,0.999849259853363,-0.1242335066199302,-0.682147741317749,-0.0298892874270677,0.0404232405126094,0.0,0.0,-0.8571814894676208,-0.0573952794075012
-0.034977339208126,0.9839258193969728,-0.1247776746749877,-0.7076732516288757,-0.0278814658522605,0.0401564911007881,0.0,0.0,-0.7688918113708496,0.4220340251922607
-0.0362094864249229,0.9674280285835266,-0.1252255141735077,-0.7331987619400024,-0.0258871968835592,0.039885114878416,0.0,0.0,0.6484265327453613,-0.5692044496536255
-0.0374509803950786,0.9514928460121156,-0.1273573637008667,-0.7081772685050964,-0.022724637761712,0.0632514506578445,0.0,0.0,-0.7985327243804932,0.4234740734100342
-0.0386949554085731,0.9349834322929382,-0.1275916695594787,-0.7337033748626709,-0.0195761434733867,0.0629701539874076,0.0,0.0,-0.5101438164710999,0.3647277355194092
-0.0399403572082519,0.917900025844574,-0.127709150314331,-0.7592294216156006,-0.0164419654756784,0.0626835748553276,0.0,0.0,-0.5121641159057617,0.4476219415664673
-0.0411857590079307,0.9002423286437988,-0.127703458070755,-0.7847554683685303,-0.0133223757147789,0.0623915307223796,0.0,0.0,0.1161178350448608,0.7015799283981323
-0.0423472411930561,0.8826257586479187,-0.1179069131612777,-0.7829481959342957,-0.0115900393575429,0.0346468277275562,0.0,0.0,-0.3463630676269531,0.2587332725524902
-0.0435062423348426,0.8644347786903381,-0.1176368743181228,-0.8084735870361328,-0.0098728565499186,0.0343435890972614,0.0,0.0,0.928896188735962,0.1065552234649658
-0.0445110313594341,0.8465842604637146,-0.1028869748115539,-0.7933452129364014,-0.0075045856647193,0.0473655089735984,0.0,0.0,-0.0014569163322448,0.8082447052001953
-0.0454362854361534,0.8281495571136475,-0.0930148810148239,-0.81931471824646,-0.0070188543759286,0.0097146015614271,0.0,0.0,0.9252594709396362,0.0370029211044311
-0.0462345108389854,0.8100634813308716,-0.0808457285165786,-0.8038249611854553,-0.0060139750130474,0.0200977772474288,0.0,0.0,0.5972850322723389,0.3323824405670166
-999.0,0.79183030128479,-0.0835565477609634,-0.8103544116020203,-0.0052071614190936,0.0161362923681736,0.0,0.0,0.646324872970581,0.5401802062988281
-0.0477857589721679,0.7735161781311035,-0.0722258165478706,-0.813961386680603,-0.0053613879717886,-0.0030844458378851,0.0,0.0,0.5341166257858276,-0.756501317024231
-0.0484928116202354,0.755246102809906,-0.072169579565525,-0.8120018839836121,-0.0039185830391943,0.0288560651242733,0.0,0.0,0.6918063163757324,0.7485959529876709
-0.049250029027462,0.7376907467842102,-0.0754019170999527,-0.7802373766899109,-0.0042360099032521,-0.0063484860584139,0.0,0.0,0.219326376914978,0.3775444030761719
-0.0500876419246196,0.7204341888427734,-0.0829644054174423,-0.7669582366943359,-0.00502371462062,-0.0157538466155529,0.0,0.0,-0.3736011981964111,0.2008193731307983
-0.0509084686636924,0.7026034593582153,-0.0812696516513824,-0.7924834489822388,-0.0058289119042456,-0.0161040052771568,0.0,0.0,0.6561226844787598,0.3569324016571045
-0.0515636429190635,0.685055673122406,-0.0653591752052307,-0.7799007296562195,-0.0059866709634661,-0.0031551632564514,0.0,0.0,0.4626929759979248,-0.2546805739402771
-0.0522456169128418,0.6679122447967529,-0.06777835637331,-0.7619256973266602,-0.0063981539569795,-0.0082294885069131,0.0,0.0,-0.2058562040328979,0.3304979801177978
-0.0529054626822471,0.6501946449279785,-0.0655527934432029,-0.7874508500099182,-0.0068276738747954,-0.008590480312705,0.0,0.0,0.4730310440063476,0.4951779842376709
-0.0535337440669536,0.6329695582389832,-0.0623878464102745,-0.7655641436576843,-0.0072622098959982,-0.0086909066885709,0.0,0.0,0.6972583532333374,0.7022926807403564
-0.0539103522896766,0.6159163117408752,-0.0361492186784744,-0.7579280734062195,-0.0087491841986775,-0.0297395195811986,0.0,0.0,0.1651611328125,-0.1001084446907043
-0.0543238632380962,0.5987881422042847,-0.0395132265985012,-0.761262834072113,-0.0105662997812032,-0.036342054605484,0.0,0.0,0.6497068405151367,-0.605718731880188
-0.0546462051570415,0.582284152507782,-0.0318453162908554,-0.7335163950920105,-0.0109509667381644,-0.0076932697556912,0.0,0.0,0.4488242864608764,0.1323769092559814
-0.0548100471496582,0.5660908818244934,-0.0165327042341232,-0.7196984887123108,-0.0107943192124366,0.0031327698379755,0.0,0.0,-0.1759429574012756,0.4060145616531372
-0.054940890520811,0.5493232607841492,-0.0132245738059282,-0.7452237010002136,-0.010656208731234,0.0027621446643024,0.0,0.0,0.6352834701538086,0.236133337020874
-0.0551040656864643,0.5331493020057678,-0.0160914044827222,-0.7188490629196167,-0.0108853718265891,-0.0045830644667148,0.0,0.0,0.6199017763137817,0.5393288135528564
-0.0551304817199707,0.5169392824172974,-0.0014404838439077,-0.7204548120498657,-0.0120647307485342,-0.0235869046300649,0.0,0.0,0.6398404836654663,0.6868290901184082
-0.0551644340157508,0.5012038350105286,-0.0005584883037954,-0.6993804574012756,-0.0148612800985574,-0.0559310726821422,0.0,0.0,0.1315542459487915,-0.0824774503707885
-0.0550684928894043,0.4854234755039215,0.0120425364002585,-0.7013744711875916,-0.0172849111258983,-0.0484724976122379,0.0,0.0,0.8657464981079102,-0.1849390268325805
-0.0548923499882221,0.4701063632965088,0.0199589487165212,-0.6807898879051208,-0.0196037236601114,-0.0463763438165187,0.0,0.0,0.6813733577728271,-0.104577898979187
-0.0546570792794227,0.4548265635967254,0.0258671753108501,-0.6791342496871948,-0.0219038836658,-0.0460033826529979,0.0,0.0,0.2812715768814087,-0.0467774868011474
-0.0544626228511333,0.4396630525588989,0.0222366880625486,-0.6739767789840698,-0.0246662255376577,-0.0552464909851551,0.0,0.0,0.5306497812271118,-0.4896133542060852
-0.0541821494698524,0.4251135587692261,0.030762767419219,-0.6466915011405945,-0.0273544341325759,-0.0537641532719135,0.0,0.0,0.6847984790802002,-0.4804328680038452
-0.0537618622183799,0.4104335606098175,0.0443841964006423,-0.6524884700775146,-0.0296731330454349,-0.046374000608921,0.0,0.0,0.8732438087463379,-0.7589587569236755
-0.0532896034419536,0.3966405689716339,0.0479834042489528,-0.6130390167236328,-0.030424939468503,-0.0150361433625221,0.0,0.0,0.6786181926727295,-0.7537895441055298
-0.0529162399470806,0.3829984962940216,0.0368109084665775,-0.60630202293396,-0.0299031808972358,0.0104351444169878,0.0,0.0,0.5717165470123291,0.057205319404602
-0.0525583252310752,0.3697519600391388,0.0356886014342308,-0.588736355304718,-0.0298026427626609,0.0020106120500713,0.0,0.0,0.5927337408065796,0.1983659267425537
-0.0520989410579204,0.3568292260169983,0.0457144007086753,-0.5743370652198792,-0.029581831768155,0.00441620266065,0.0,0.0,0.2225133180618286,0.250799298286438
-0.0516610145568847,0.3442734777927398,0.0440267883241176,-0.5580400228500366,-0.029818657785654,-0.0047364374622702,0.0,0.0,0.0479037761688232,-0.4908885955810547
-0.0511091239750385,0.3316904306411743,0.0552315190434455,-0.5592461228370667,-0.0298562906682491,-0.0007528605638071,0.0,0.0,0.1453628540039062,-0.7677408456802368
-0.0505789741873741,0.3189375400543213,0.0515501201152801,-0.566766083240509,-0.0284063648432493,0.0289983488619327,0.0,0.0,0.6691906452178955,-0.3542957305908203
-0.0499118790030479,0.30609992146492,0.0649398043751716,-0.5705295205116272,-0.0266545191407203,0.0350367352366447,0.0,0.0,0.6946653127670288,-0.7351037859916687
-0.0492691025137901,0.293206512928009,0.0611087158322334,-0.5729865431785583,-0.023530226200819,0.0624860152602195,0.0,0.0,0.6077172756195068,0.1026945114135742
-0.04855527728796,0.2808967530727386,0.0682764127850532,-0.5470567941665649,-0.0204588770866394,0.0614267699420452,0.0,0.0,0.3044654130935669,-0.6178386211395264
-0.0477452278137207,0.268984317779541,0.0765321478247642,-0.5293869972229004,-0.0160444602370262,0.0882884114980697,0.0,0.0,0.3570756912231445,-0.0259576439857482
-0.0469535812735557,0.2575068771839142,0.0751421004533767,-0.5100680589675903,-0.0120712220668792,0.0794646739959716,0.0,0.0,0.0496113300323486,-0.0687302350997924
-0.0461776740849018,0.2457724660634994,0.0739632025361061,-0.5215038657188416,-0.0084926970303058,0.071570448577404,0.0,0.0,0.5861315727233887,0.0058578252792358
-0.0452919006347656,0.2346018105745315,0.084781177341938,-0.4964584112167358,-0.0047491788864135,0.0748704746365547,0.0,0.0,0.2363677024841308,-0.1314923763275146
-0.0444146171212196,0.2235035449266433,0.0843113586306572,-0.4932502210140228,-0.0013702529249712,0.0675786510109901,0.0,0.0,0.2750194072723388,-0.2535288333892822
-0.0435128211975097,0.2126157879829406,0.0869693011045456,-0.4838994145393371,0.0017994956579059,0.0633946657180786,0.0,0.0,0.3603338003158569,-0.3616142868995666
-0.0425552353262901,0.2020174860954284,0.0926040261983871,-0.4710423350334167,0.0049105142243206,0.062220424413681,0.0,0.0,0.3172094821929931,-0.8577957153320312
-0.0415213592350482,0.1915411353111267,0.098446600139141,-0.4656401574611664,0.0097890794277191,0.0975711196660995,0.0,0.0,0.5403833389282227,-0.884952962398529
-0.040468119084835,0.1809602081775665,0.0985767170786857,-0.4703206121921539,0.0164482742547988,0.133183866739273,0.0,0.0,0.615139365196228,-0.8373152613639832
-0.0393187515437603,0.1703908741474151,0.1063547879457473,-0.4698660969734192,0.0249239224940538,0.1695130169391632,0.0,0.0,0.7085058689117432,-0.5716557502746582
-0.0379979126155376,0.1601380407810211,0.1219308376312255,-0.4558778405189514,0.0349509045481681,0.2005394995212555,0.0,0.0,0.6577355861663818,-0.6111831665039062
-0.0365197174251079,0.1499064564704895,0.1360810846090316,-0.455051988363266,0.046548593789339,0.231953889131546,0.0,0.0,0.8055710792541504,-0.3594564199447632
-0.0350173003971576,0.1403320431709289,0.1385456621646881,-0.4259302020072937,0.058106854557991,0.2311652451753616,0.0,0.0,0.3440138101577759,-0.3703466653823852
-0.0334569923579692,0.1311113238334655,0.1442375481128692,-0.4103041589260101,0.06977129727602,0.2332887947559356,0.0,0.0,0.4000377655029297,-0.3756904602050781
-0.0317622199654579,0.1221751272678375,0.1572099924087524,-0.3977792859077453,0.0819141939282417,0.2428580820560455,0.0,0.0,0.8054022789001465,-0.4129284620285034
-0.0299182888120412,0.1132134795188903,0.1716289222240448,-0.399042010307312,0.0945577397942543,0.2528709769248962,0.0,0.0,0.897425651550293,-0.6616135835647583
-0.0281780250370502,0.1045346334576606,0.1601326912641525,-0.3866603970527649,0.1083479672670364,0.2758045494556427,0.0,0.0,0.76419997215271,0.3770201206207275
-0.0263794902712106,0.0966726839542388,0.1655602902173996,-0.3505198359489441,0.1225482746958732,0.2840059399604797,0.0,0.0,0.4359952211380005,-0.5800034999847412
-0.0246412269771099,0.0889630168676376,0.158450499176979,-0.3439842760562897,0.1378503292798996,0.3060415089130401,0.0,0.0,0.4582477807998657,0.1521923542022705
-0.0230410583317279,0.081702597439289,0.1451806724071502,-0.3241217732429504,0.152637705206871,0.2957479357719421,0.0,0.0,0.2622491121292114,0.619145393371582
-0.0213348381221294,0.0746920183300972,0.1569585502147674,-0.3130407631397247,0.1663074344396591,0.2733945548534393,0.0,0.0,0.0033459663391113,0.1655292510986328
-0.0196701046079397,0.0677754953503608,0.1529926806688308,-0.3089661300182342,0.1798218637704849,0.2702883780002594,0.0,0.0,0.6759657859802246,0.1234426498413086
-0.0181584358215332,0.0613855458796024,0.1381002515554428,-0.285636693239212,0.1929440349340438,0.262443333864212,0.0,0.0,0.5679278373718262,0.4128189086914062
-0.0166960712522268,0.0551123954355716,0.1333122998476028,-0.2805418968200683,0.205953910946846,0.2601974904537201,0.0,0.0,0.7449307441711426,0.4121233224868774
-0.0154207227751612,0.0491619668900966,0.1152197122573852,-0.2662312686443329,0.2183916866779327,0.2487556189298629,0.0,0.0,0.7660366296768188,0.4440282583236694
-0.0143610956147313,0.0434065908193588,0.0944152846932411,-0.2575458288192749,0.2300843149423599,0.2338522225618362,0.0,0.0,0.9009761810302734,0.6961963176727295
-0.0132474899291992,0.0383539535105228,0.1009081602096557,-0.2262300997972488,0.2406869530677795,0.2120526731014251,0.0,0.0,0.4851399660110473,0.3700754642486572
-0.0120991710573434,0.0332313627004623,0.1041683182120323,-0.22945436835289,0.2515458166599273,0.217177003622055,0.0,0.0,0.539827823638916,0.5876798629760742
-0.0108827594667673,0.0286452155560255,0.1118239536881446,-0.205539658665657,0.2615543305873871,0.2001710385084152,0.0,0.0,0.0893579721450805,-0.1927757859230041
-0.0097908973693847,0.0251649245619773,0.1170974746346473,-0.1532826721668243,0.2535020411014557,-0.161006823182106,0.0,1.0,0.9835124015808104,0.697806715965271
-0.0088337901979684,0.0234490260481834,0.1216708272695541,-0.0720064491033554,0.2270761430263519,-0.5285688638687134,0.0,1.0,0.4195510149002075,-0.67197185754776
-0.0080265998840332,0.0223407372832298,0.1153449788689613,-0.0443117506802082,0.1920771896839141,-0.7000194787979126,0.0,1.0,-0.0368787050247192,-0.825009822845459
-0.0072557451203465,0.0206274129450321,0.1087068766355514,-0.072354570031166,0.1603643000125885,-0.6342579126358032,0.0,1.0,0.3152526617050171,-0.7302387356758118
-0.0065906522795557,0.0192863084375858,0.0967577919363975,-0.056623175740242,0.1301867514848709,-0.6035515069961548,0.0,0.0,-0.9610470533370972,-0.2933059930801391
-0.0058701513335108,0.0173828694969415,0.1024089232087135,-0.082224316895008,0.100014641880989,-0.6034430861473083,0.0,0.0,-0.8197890520095825,-0.8170703649520874
-0.0051731108687818,0.0149061540141701,0.0981702357530593,-0.1084142625331878,0.0718087032437324,-0.5641192197799683,0.0,0.0,0.2152633666992187,-0.7278486490249634
-0.0046145441010594,0.0124120572581887,0.083046905696392,-0.109763354063034,0.0449321530759334,-0.5375311970710754,0.0,0.0,0.5766661167144775,-0.9533497095108032
-0.004127693362534,0.0101515622809529,0.0739975273609161,-0.0998976975679397,0.0199331603944301,-0.4999802112579345,0.0,0.0,0.5458190441131592,-0.8573673963546753
-0.0036422729026526,0.0080701326951384,0.0720927864313125,-0.0923556834459304,-0.0033128566574305,-0.4649208188056946,0.0,0.0,0.4709057807922363,-0.8473774194717407
-0.003044891403988,0.0058932160027325,0.0813954845070838,-0.0969373658299446,-0.0246914625167846,-0.427572101354599,0.0,0.0,0.6889462471008301,-0.9650994539260864
-0.0023495673667639,0.0041987039148807,0.0890773087739944,-0.0757482051849365,-0.0439891032874584,-0.3859532475471496,0.0,0.0,0.4272838830947876,-0.9177706837654114
-0.0015290260780602,0.0037138676270842,0.0802294760942459,-0.0214975215494632,-0.0421734564006328,0.0363285988569259,1.0,0.0,-0.3168890476226806,-0.8608473539352417
-0.0006771087646484,0.0032062863465398,0.0664602294564247,-0.0221380274742841,-0.0236689411103725,0.3701041936874389,1.0,0.0,-0.6150002479553223,-0.5323997139930725
