x_pos,y_pos,x_vel,y_vel,angle,ang_vel,leg_1,leg_2,main_booster,lat_booster
-0.0015900612343102,1.4031362533569336,-0.1605634093284607,-0.3459501564502716,0.0013856954174116,0.0273067262023687,0.0,0.0,0.9763798670247728,0.5251834091806263
-0.0031398772262036,1.3957126140594482,-0.1550729423761367,-0.3299374878406524,0.0014771707355976,0.0018301283707842,0.0,0.0,-0.2809461073586334,-0.6631181199992076
-0.0047946930862963,1.387795090675354,-0.1661705523729324,-0.3518867194652557,0.0021602141205221,0.01366235781461,0.0,0.0,-0.3176279237978541,-0.7028560344729011
-0.0065786363556981,1.3793870210647583,-0.1803418844938278,-0.3737002909183502,0.0040771798230707,0.0383431129157543,0.0,0.0,-0.8589925259466509,0.0230817621684947
-0.0084242820739746,1.370490550994873,-0.1860746145248413,-0.3953997492790222,0.0055629517883062,0.0297183655202388,0.0,0.0,0.8268748024667871,0.9422865127972492
-0.0100907329469919,1.3620073795318604,-0.166131317615509,-0.3770276010036468,0.005054838489741,-0.0101632894948124,0.0,0.0,0.4447927081813827,0.7124533518372548
-0.0117840766906738,1.3537936210632324,-0.1669136434793472,-0.36505126953125,0.0026641420554369,-0.0478182919323444,0.0,0.0,-0.2505227423334044,0.8222788502411882
-0.0134533885866403,1.3450944423675537,-0.1620333641767501,-0.3866290748119354,-0.0021885517053306,-0.0970630198717117,0.0,0.0,-0.5749617968120877,0.803238788687755
-0.0151159288361668,1.3359161615371704,-0.1593280285596847,-0.407950758934021,-0.0090310405939817,-0.1368622183799743,0.0,0.0,-0.7339681998052583,0.7042855114464184
-0.0167762748897075,1.32625412940979,-0.1572644114494323,-0.4295005202293396,-0.017698049545288,-0.1733560860157013,0.0,0.0,0.4239102206576266,-0.2314672096619074
-0.0184045787900686,1.3168715238571167,-0.1539837121963501,-0.4171385169029236,-0.0264441538602113,-0.1749385595321655,0.0,0.0,-0.2217547880426469,-0.4387560710414036
-0.0200821869075298,1.3070015907287598,-0.1584934890270233,-0.4388506114482879,-0.0356230065226554,-0.1835941225290298,0.0,0.0,-0.9605979802867282,0.3290791100783511
-0.0218073837459087,1.2966448068618774,-0.1628041714429855,-0.4605556428432464,-0.0452344119548797,-0.1922452747821808,0.0,0.0,-0.6660590121272547,0.4438431386586215
-0.0235778801143169,1.2858015298843384,-0.1669101864099502,-0.4822635352611542,-0.0552789457142353,-0.2009090483188629,0.0,0.0,0.6033041234296672,-0.0121862105583426
-0.0252107623964548,1.275658369064331,-0.1533640027046203,-0.4512002170085907,-0.0651122033596038,-0.1966827511787414,0.0,0.0,-0.2055290639932592,0.7105325292382935
-0.0268190391361713,1.2650139331817627,-0.1487860530614853,-0.4736503958702087,-0.0770500600337982,-0.2387786209583282,0.0,0.0,-0.52182637113463,-0.7546656951728051
-0.0285115242004394,1.2538975477218628,-0.1579432934522628,-0.4946750998497009,-0.088261991739273,-0.2242590188980102,0.0,0.0,0.4561302452650497,-0.7775860595902302
-0.0301334373652935,1.2427713871002195,-0.1522490233182907,-0.4951092600822449,-0.0981424450874328,-0.1976270377635955,0.0,0.0,0.226265381501348,-0.7558735857863403
-0.0317090973258018,1.2320520877838137,-0.1487879455089569,-0.4770180284976959,-0.1068577915430069,-0.1743228882551193,0.0,0.0,-0.8876274973865921,-0.9677472902135364
-0.0334029197692871,1.220858812332153,-0.1623836606740951,-0.4979817569255829,-0.1138249784708023,-0.1393563002347946,0.0,0.0,0.9588701307454108,0.0519969784526308
-0.0348751060664653,1.2104816436767578,-0.1404812037944793,-0.4617315530776977,-0.1205247342586517,-0.1340074837207794,0.0,0.0,-0.8615304812355378,0.9253175848509336
-0.0363011360168457,1.1995989084243774,-0.133544772863388,-0.4844322502613067,-0.1295467317104339,-0.1804560869932174,0.0,0.0,-0.6674859029088187,0.070202235289518
-0.03775205463171,1.18822979927063,-0.1356056779623031,-0.5061405897140503,-0.1390062570571899,-0.1892071217298507,0.0,0.0,-0.8713924410200002,0.6685376869975982
-0.0391676910221576,1.176355242729187,-0.1301611065864563,-0.5288664698600769,-0.1503994613885879,-0.2278845757246017,0.0,0.0,0.6624808873264956,0.0474488816092044
-0.0406474098563194,1.1649876832962036,-0.1354988515377044,-0.5065376162528992,-0.1628936976194381,-0.2499074041843414,0.0,0.0,-0.2743844769553512,0.0122117519011389
-0.0421472564339637,1.153113603591919,-0.1370616853237152,-0.5292051434516907,-0.1758283376693725,-0.2586927413940429,0.0,0.0,0.2878194680388939,0.662340388681157
-0.0435080528259277,1.1415804624557495,-0.1214349865913391,-0.5143790245056152,-0.1905243843793869,-0.2939210534095764,0.0,0.0,0.1498615992044223,0.0985082960076951
-0.0448621734976768,1.1304352283477783,-0.1199562326073646,-0.4974077343940735,-0.2060829102993011,-0.3111705482006073,0.0,0.0,0.544918323291077,-0.917899361588843
-0.0462831482291221,1.119941234588623,-0.1279247552156448,-0.4684370458126068,-0.2203969061374664,-0.2862802147865295,0.0,0.0,0.6103271324031814,-0.8825275395582386
-0.0476991645991802,1.1096855401992798,-0.1287566870450973,-0.457781434059143,-0.2334110140800476,-0.2602821588516235,0.0,0.0,0.5490389954960977,0.9095165346813524
-0.0488467216491699,1.1000821590423584,-0.0997349917888641,-0.429267555475235,-0.2486685961484909,-0.3051515817642212,0.0,0.0,-0.9595023989677428,-0.5725927948951721
-0.0500476844608783,1.0900105237960815,-0.1059780344367027,-0.4500837922096252,-0.2630640268325805,-0.2879084944725036,0.0,0.0,-0.9930484890937804,-0.9026587009429932
-0.0513263717293739,1.0794942378997805,-0.1154184564948082,-0.4696765840053558,-0.2758148610591888,-0.255016416311264,0.0,0.0,-0.994033932685852,-0.86961430311203
-0.0526785850524902,1.068516492843628,-0.1242760568857193,-0.4900012910366058,-0.2870631814002991,-0.2249664813280105,0.0,0.0,-0.9602639079093932,-0.8502160310745239
-0.0540900230407714,1.0570831298828125,-0.1314344108104705,-0.5100930333137512,-0.2970686256885528,-0.2001083642244339,0.0,0.0,-0.9994229078292848,-0.8546362519264221
-0.0555576309561729,1.0451991558074951,-0.1382860541343689,-0.5299304723739624,-0.3058193922042846,-0.1750150471925735,0.0,0.0,-0.9924055933952332,-0.9689334630966188
-0.0570950508117675,1.0328607559204102,-0.1468659341335296,-0.5498395562171936,-0.3129519522190094,-0.1426513642072677,0.0,0.0,-0.922160804271698,-0.936350166797638
-0.0586877837777137,1.0200753211975098,-0.1537161022424698,-0.5694590210914612,-0.3187224566936493,-0.1154095977544784,0.0,0.0,-0.3203426599502563,-0.9869184494018556
-0.0603459365665912,1.0068527460098269,-0.1619256734848022,-0.588525652885437,-0.3227671980857849,-0.080894723534584,0.0,0.0,0.9328902959823608,-0.9550512433052064
-0.0618021972477436,0.994175136089325,-0.1432633697986602,-0.5639764070510864,-0.3252277970314026,-0.0492117404937744,0.0,0.0,0.3548042774200439,-0.9314009547233582
-0.0632029548287391,0.9820095300674438,-0.1390857249498367,-0.540922224521637,-0.3262704610824585,-0.0208531878888607,0.0,0.0,-0.5112919807434082,-0.9725264310836792
-0.0646459609270095,0.9693845510482788,-0.1444016247987747,-0.5610827207565308,-0.3261575996875763,0.0022574011236429,0.0,0.0,-0.8657388687133789,-0.8459709882736206
-0.0661261528730392,0.9562911987304688,-0.1491091698408126,-0.5816802978515625,-0.3250230252742767,0.0226913876831531,0.0,0.0,-0.5052707195281982,-0.8899006843566895
-0.0676428824663162,0.9427378177642822,-0.1538226902484893,-0.601894199848175,-0.3227852880954742,0.0447552278637886,0.0,0.0,0.4943246841430664,-0.9435782432556152
-0.0691667571663856,0.9291216731071472,-0.1559530198574066,-0.6043775677680969,-0.3190807104110718,0.0740913823246955,0.0,0.0,0.5146303176879883,-0.9122635126113892
-0.070597268640995,0.9154581427574158,-0.1480654627084732,-0.6061767935752869,-0.3138734400272369,0.1041447967290878,0.0,0.0,-0.1034625172615051,-0.7592930793762207
-0.072056196630001,0.901329219341278,-0.1518584638833999,-0.6266674399375916,-0.3076744377613067,0.1239802092313766,0.0,0.0,0.2777118682861328,-0.6346983313560486
-0.0734325423836708,0.8877090811729431,-0.1443532854318618,-0.6039371490478516,-0.3007241487503052,0.1390049010515213,0.0,0.0,0.3212249279022217,-0.7237948775291443
-0.0747622475028038,0.8745899796485901,-0.1406123042106628,-0.5815142393112183,-0.2928409576416015,0.157663956284523,0.0,0.0,-0.6539849638938904,-0.2272296547889709
-0.0760644897818565,0.8609849810600281,-0.1375167071819305,-0.6032261252403259,-0.2853290140628814,0.1502380669116974,0.0,0.0,-0.3064534664154053,-0.2205926179885864
-0.077338121831417,0.8468935489654541,-0.1343156993389129,-0.624937117099762,-0.2781789600849151,0.1430012583732605,0.0,0.0,-0.3067881464958191,-0.4093601703643799
-0.0785820037126541,0.8323159217834473,-0.1310160160064697,-0.6466473340988159,-0.2713804244995117,0.1359705030918121,0.0,0.0,-0.7338095307350159,-0.2749475240707397
-0.0797950774431228,0.8172520995140076,-0.1276241838932037,-0.668356716632843,-0.2649222314357757,0.1291636228561401,0.0,0.0,-0.2972496151924133,-0.4372864961624145
-0.0809765830636024,0.8017014265060425,-0.1241467148065567,-0.6900652050971985,-0.2587922811508178,0.1225989833474159,0.0,0.0,-0.7123620510101318,-0.0138044357299804
-0.0821255668997764,0.7856642603874207,-0.1205898970365524,-0.7117729783058167,-0.2529775202274322,0.1162954345345497,0.0,0.0,-0.5547606945037842,0.033221960067749
-0.0832409858703613,0.7691402435302734,-0.1169599741697311,-0.733479917049408,-0.2474638968706131,0.1102723106741905,0.0,0.0,-0.2495904564857483,0.3697991371154785
-0.0843221694231033,0.7521291971206665,-0.1132629960775375,-0.7551862001419067,-0.2422364503145218,0.1045491099357605,0.0,0.0,0.1785359382629394,0.3217904567718506
-0.0851574912667274,0.7352964878082275,-0.0888535231351852,-0.7472551465034485,-0.2368237823247909,0.1082533001899719,0.0,0.0,-0.3998879194259643,0.1763856410980224
-0.0859570503234863,0.7179767489433289,-0.0850402787327766,-0.7689604163169861,-0.2316643893718719,0.1031880155205726,0.0,0.0,0.2074251174926757,0.0245550870895385
-0.0866425484418869,0.7010273337364197,-0.073153905570507,-0.7525910139083862,-0.2269978374242782,0.093330979347229,0.0,0.0,-0.1245797276496887,-0.275945782661438
-0.0872910469770431,0.6835905313491821,-0.0692469477653503,-0.7742947936058044,-0.2225478887557983,0.0889986380934715,0.0,0.0,-0.1784635782241821,-0.4879647493362427
-0.0879019722342491,0.6656665205955505,-0.0653013885021209,-0.7959979772567749,-0.2182949483394622,0.0850588232278823,0.0,0.0,0.3551881313323974,-0.9017254114151
-0.0883396118879318,0.647859513759613,-0.0496898107230663,-0.7905558347702026,-0.2123086899518966,0.1197250485420227,0.0,0.0,0.5747065544128418,-0.4770586490631103
-0.0885935798287391,0.6304148435592651,-0.0312781371176242,-0.7744868993759155,-0.2063739746809005,0.1186940670013427,0.0,0.0,0.5111978054046631,-0.1299474239349365
-0.0887264236807823,0.6130189299583435,-0.0190668459981679,-0.7723581790924072,-0.2005399018526077,0.1166813597083091,0.0,0.0,0.4248092174530029,-0.6602249145507812
-0.0888842567801475,0.5959358811378479,-0.022578228265047,-0.7583445906639099,-0.1937115490436554,0.1365666985511779,0.0,0.0,0.0626012086868286,-0.1254389286041259
-0.0888829231262207,0.5791715979576111,-0.0066288174130022,-0.7442080974578857,-0.1869082301855087,0.1360667645931244,0.0,0.0,-0.0252554416656494,-0.5613664388656616
-0.0888798683881759,0.561924159526825,-0.0073740086518228,-0.7656071782112122,-0.1792023777961731,0.1541171222925186,0.0,0.0,0.8705695867538452,-0.2246589660644531
-0.0886339172720909,0.5456077456474304,0.0167999994009733,-0.7242528796195984,-0.1713978797197342,0.1560897082090377,0.0,0.0,0.0799556970596313,-0.6891696453094482
-0.0884177237749099,0.5292903780937195,0.0125406263396143,-0.724195659160614,-0.1623028367757797,0.1819009929895401,0.0,0.0,0.395456314086914,-0.0555332899093627
-0.0881447792053222,0.5133512020111084,0.01855462603271,-0.7074772119522095,-0.1535634249448776,0.1747883409261703,0.0,0.0,0.5998296737670898,0.1564937829971313
-0.0877091437578201,0.4978112876415252,0.0346371121704578,-0.689767062664032,-0.1446603238582611,0.178061693906784,0.0,0.0,0.5554410219192505,-0.3284847736358642
-0.0872380286455154,0.4829904735088348,0.0387050956487655,-0.6579070687294006,-0.1362699270248413,0.1678082942962646,0.0,0.0,0.2043938636779785,-0.0923520326614379
-0.0866155624389648,0.4682969748973846,0.0535081997513771,-0.6522678136825562,-0.1275614649057388,0.1741691082715988,0.0,0.0,0.1376818418502807,-0.5031718015670776
-0.0859827995300293,0.4535254240036011,0.0534758195281028,-0.6557011008262634,-0.1178093999624252,0.1950409114360809,0.0,0.0,0.2985769510269165,0.1091754436492919
-0.0852257758378982,0.4386380314826965,0.0655148401856422,-0.660889744758606,-0.1076976731419563,0.2022343128919601,0.0,0.0,0.6598567962646484,0.0981507301330566
-0.0844228714704513,0.4237773716449737,0.0701186880469322,-0.6597756147384644,-0.0976002886891365,0.2019476592540741,0.0,0.0,0.6209350824356079,0.3521347045898437
-0.083511546254158,0.4095925092697143,0.0808373689651489,-0.6297960877418518,-0.0873890444636344,0.2042247802019119,0.0,0.0,0.5978554487228394,0.578133225440979
-0.082361601293087,0.3960883319377899,0.1054624766111373,-0.5996564030647278,-0.0779526978731155,0.1887271106243133,0.0,0.0,-0.3318803310394287,0.3469516038894653
-0.0811715126037597,0.382096916437149,0.1092945709824562,-0.6213605999946594,-0.0683283433318138,0.1924867779016494,0.0,0.0,0.3582897186279297,0.1985707283020019
-0.0800288170576095,0.3680367767810821,0.1048259958624839,-0.6244916319847107,-0.0589912682771682,0.1867415159940719,0.0,0.0,0.3938422203063965,0.5615983009338379
-0.0787257179617881,0.3544857501983642,0.1216956824064254,-0.6019514203071594,-0.0504677109420299,0.1704714000225067,0.0,0.0,0.1031904220581054,0.1134732961654663
-0.0774314850568771,0.3410281538963318,0.1208798661828041,-0.5978509783744812,-0.0420213192701339,0.1689276993274688,0.0,0.0,0.088846206665039,0.0593752861022949
-0.076115608215332,0.3277550041675567,0.1229463443160057,-0.5897026062011719,-0.0334920696914196,0.1705852001905441,0.0,0.0,0.3291141986846924,0.3055832386016845
-0.0747521370649337,0.3148382902145386,0.1274846047163009,-0.5739031434059143,-0.0247439537197351,0.1749620586633682,0.0,0.0,0.2625503540039062,0.4261130094528198
-0.0732731819152832,0.3020987212657928,0.1384419351816177,-0.5660801529884338,-0.0154117411002516,0.1866444498300552,0.0,0.0,-0.0249018669128417,0.6808617115020752
-0.0717010498046875,0.2888637781143188,0.1489012688398361,-0.5881553888320923,-0.007199615240097,0.1642425060272216,0.0,0.0,0.7245609760284424,0.3241019248962402
-0.0699921622872352,0.2757710218429565,0.1618053615093231,-0.5818840265274048,0.0017590248025953,0.1791729032993316,0.0,0.0,0.6136503219604492,0.0382298231124877
-0.068104550242424,0.263028085231781,0.1787039786577224,-0.5663897395133972,0.0116912592202425,0.1986444890499115,0.0,0.0,0.7450331449508667,0.0965410470962524
-0.0660390853881836,0.2504259347915649,0.1954742968082428,-0.5602176189422607,0.0226230081170797,0.2186351269483566,0.0,0.0,0.701430082321167,0.0271068811416625
-0.0639621764421463,0.2384972423315048,0.1963149011135101,-0.530368983745575,0.0338551700115203,0.224643275141716,0.0,0.0,0.5167508125305176,0.0303367376327514
-0.0618464462459087,0.2271277457475662,0.1997293978929519,-0.5056178569793701,0.0455545075237751,0.2339864671230316,0.0,0.0,0.6223816871643066,-0.3598662614822387
-0.0596052184700965,0.2162621617317199,0.2113728523254394,-0.4833495914936065,0.0581630282104015,0.2521702647209167,0.0,0.0,0.127703309059143,0.2914693355560303
-0.0572756752371788,0.2052505165338516,0.2195224463939666,-0.4899788498878479,0.071440652012825,0.2655526995658874,0.0,0.0,0.6482522487640381,-0.3884249925613403
-0.0550032630562782,0.1945079416036605,0.2137191295623779,-0.4781483113765716,0.0848332569003105,0.2678520381450653,0.0,0.0,0.4349980354309082,0.0723416805267334
-0.0526904091238975,0.1844094544649124,0.217068150639534,-0.4496882557868957,0.0989296436309814,0.2819275557994842,0.0,0.0,0.2940119504928589,0.3115644454956054
-0.0504099838435649,0.1744886487722396,0.2135566771030426,-0.4419479072093963,0.1133111044764518,0.2876291871070862,0.0,0.0,0.0030450820922851,0.8863468170166016
-0.0481757149100303,0.1648070961236953,0.2103480845689773,-0.4313338100910187,0.1263116896152496,0.2600116729736328,0.0,0.0,0.1009621620178222,0.2561964988708496
-0.0459146499633789,0.1553433239459991,0.2124061584472656,-0.421829879283905,0.1399607211351394,0.2729801833629608,0.0,0.0,-0.2723341584205627,0.378534197807312
-0.043626595288515,0.1453946232795715,0.2147388011217117,-0.443547785282135,0.1539945900440216,0.2806773781776428,0.0,0.0,0.4197872877120971,0.4147300720214844
-0.0414815917611122,0.1358984559774398,0.2004078924655914,-0.4235682785511017,0.1680888831615448,0.2818862795829773,0.0,0.0,0.4285664558410644,0.4855918884277344
-0.0394048690795898,0.1265489906072616,0.1933174133300781,-0.4172154664993286,0.182477131485939,0.2877650856971741,0.0,0.0,0.5778663158416748,0.2661962509155273
-0.03751802444458,0.1175319030880928,0.1744844764471054,-0.4025656282901764,0.1967473179101944,0.2854034006595611,0.0,0.0,0.5890812873840332,0.6405056715011597
-0.0358113273978233,0.1087385490536689,0.1577372401952743,-0.3925891816616058,0.2097848057746887,0.2607498168945312,0.0,0.0,0.6996676921844482,0.6376125812530518
-0.0340726859867572,0.1006011590361595,0.1615603268146515,-0.3634624481201172,0.222219705581665,0.2486981153488159,0.0,0.0,0.4379823207855224,0.8111075162887573
-0.032261848449707,0.0924824327230453,0.1699319183826446,-0.3625521957874298,0.2335143834352493,0.2258934676647186,0.0,0.0,0.5241546630859375,0.175657033920288
-0.0304637905210256,0.0849520787596702,0.1676736027002334,-0.336652547121048,0.2458383738994598,0.246479794383049,0.0,0.0,0.4735910892486572,0.0513092279434204
-0.0288352016359567,0.0779364928603172,0.1504587829113006,-0.3139298856258392,0.2584810554981231,0.2528536915779114,0.0,0.0,0.3979417085647583,0.8567819595336914
-0.0271778106689453,0.0715724304318428,0.154526799917221,-0.2848657965660095,0.2699449062347412,0.229276493191719,0.0,0.0,0.3670600652694702,0.3834633827209472
-0.0255706794559955,0.0654420480132103,0.148845762014389,-0.2746981978416443,0.2821186780929565,0.2434761524200439,0.0,0.0,0.221368670463562,-0.1438128352165222
-0.0241209976375103,0.0596943944692611,0.1327631175518036,-0.2578630745410919,0.2946879863739013,0.2513864636421203,0.0,0.0,-0.2286822199821472,-0.2805600762367248
-0.0226566307246685,0.0534621588885784,0.1338695287704467,-0.2795839607715606,0.3076794743537903,0.2598300576210022,0.0,0.0,0.5556596517562866,-0.0306242108345031
-0.0212369915097951,0.0473973602056503,0.1286958009004593,-0.2724167704582214,0.3214459717273712,0.2753297686576843,0.0,0.0,0.590030312538147,0.4643868207931518
-0.0201045032590627,0.0416395515203475,0.1001617759466171,-0.2588649094104767,0.3350938260555267,0.2729568481445312,0.0,0.0,0.4744030237197876,0.3559284210205078
-0.0192195884883403,0.0359920375049114,0.0755579620599746,-0.2540606558322906,0.3486392498016357,0.2709082961082458,0.0,0.0,0.3830853700637817,0.6656742095947266
-0.0184402465820312,0.0316890589892864,0.0824582651257515,-0.1901754438877105,0.3438758850097656,-0.0953041985630989,0.0,1.0,0.9802603721618652,0.9628076553344728
-0.017869759351015,0.0287344083189964,0.0803953856229782,-0.1260987520217895,0.3189216256141662,-0.49989914894104,0.0,1.0,0.9415059089660645,0.1438245773315429
-0.0173674579709768,0.026620827615261,0.0872672572731971,-0.086269661784172,0.2805811762809753,-0.7668812870979309,0.0,1.0,0.6972434520721436,-0.5899026989936829
-0.0170387271791696,0.0253339391201734,0.0745609328150749,-0.0497633218765258,0.2379417866468429,-0.8528460264205933,0.0,1.0,0.3659787178039551,-0.3406107425689697
-0.0168214794248342,0.0245329234749078,0.0623296499252319,-0.0295709762722253,0.1968376785516739,-0.8221257328987122,0.0,1.0,0.1917412281036377,-0.6697962284088135
-0.0166482925415039,0.0235859248787164,0.0567161068320274,-0.0373399294912815,0.1572944521903991,-0.7908974289894104,0.0,0.0,-0.9925450682640076,-0.7404753565788269
