x_pos,y_pos,x_vel,y_vel,angle,ang_vel,leg_1,leg_2,main_booster,lat_booster
-0.0014855384360998,1.403242826461792,-0.1504418402910232,-0.3412170112133026,0.0016809111693874,0.0331514850258827,0.0,0.0,0.8959856232293475,0.897575560814607
-0.0027975081466138,1.3959968090057373,-0.1311252564191818,-0.3220421373844147,0.0016127991257235,-0.0013615256175398,0.0,0.0,-0.9856295835535488,-0.8587241890958087
-0.0041231154464185,1.3883620500564575,-0.1337698698043823,-0.3393236398696899,0.0028020567260682,0.0237874295562505,0.0,0.0,-0.3832030104366635,0.8520646874242037
-0.0053560258820652,1.380342960357666,-0.1230519860982894,-0.3564013540744781,0.0025725560262799,-0.0045902505517005,0.0,0.0,0.7415929132695409,-0.7230052307801724
-0.0064599988982081,1.3729760646820068,-0.1119027882814407,-0.3274272978305816,0.0040563596412539,0.0296787060797214,0.0,0.0,0.374507574430176,-0.8975576716941415
-0.0074667930603027,1.3659039735794067,-0.1040528193116188,-0.3143266141414642,0.0073951054364442,0.066781148314476,0.0,0.0,-0.9959092085410236,0.9841371518975324
-0.0083593372255563,1.358451008796692,-0.0906765013933181,-0.3312493562698364,0.008797563612461,0.0280516855418682,0.0,0.0,0.4645094303527963,-0.846721505714684
-0.0091348644345998,1.3514801263809204,-0.0808195993304252,-0.309835284948349,0.0120362984016537,0.064780443906784,0.0,0.0,0.9703061467176156,0.9099584606716924
-0.0098265651613473,1.3456354141235352,-0.0705339685082435,-0.2597832977771759,0.0133833056315779,0.0269427485764026,0.0,0.0,0.5348631914727635,-0.9868396930922428
-0.0105657577514648,1.3404252529144287,-0.0772008150815963,-0.2315884232521057,0.0166340116411447,0.0650201961398124,0.0,0.0,-0.2246078295934723,-0.6162959853824995
-0.0113062858581542,1.3348331451416016,-0.0783426314592361,-0.2485966235399246,0.0208823084831237,0.0849735140800476,0.0,0.0,-0.614017678925461,-0.86704812915229
-0.0120665552094578,1.3288558721542358,-0.0818188041448593,-0.2657455205917358,0.0266039539128541,0.1144434586167335,0.0,0.0,0.3613085753395404,-0.6985531192783228
-0.0127375600859522,1.3233680725097656,-0.074458047747612,-0.2440609782934188,0.0338785983622074,0.1455063372850418,0.0,0.0,-0.0684954520678078,0.6599427125266951
-0.0133098606020212,1.317495346069336,-0.0630732253193855,-0.2611477673053741,0.0396597161889076,0.1156328916549682,0.0,0.0,-0.2576627122156987,0.8164112728592896
-0.0137621881440281,1.311254620552063,-0.0490221790969371,-0.2774752974510193,0.0434125326573848,0.0750632733106613,0.0,0.0,-0.0193309756090682,-0.6625655765586471
-0.0142160411924123,1.3046215772628784,-0.0502382218837738,-0.2949442863464355,0.0482201762497425,0.096161350607872,0.0,0.0,-0.6181601085937347,-0.9976938130542818
-0.014689827337861,1.2976146936416626,-0.0537621788680553,-0.3116423785686493,0.0545361675322055,0.126331552863121,0.0,0.0,-0.2669251533324996,-0.8447715042783563
-0.015173053368926,1.290215015411377,-0.0559903904795646,-0.3291642069816589,0.0621242187917232,0.1517747342586517,0.0,0.0,0.5203263795625173,-0.6134447867173157
-0.0156125072389841,0.0,-0.0530598647892475,-0.2965861856937408,0.0711480230093002,0.1804925054311752,0.0,0.0,0.4327898629069993,0.8920052697121346
-0.0160545352846384,1.2772384881973269,-0.0514253675937652,-0.280902236700058,0.0783115699887275,0.1432839930057525,0.0,0.0,-0.5372762860848022,-0.9978359556197124
-0.0165173523128032,1.270545244216919,-0.0550994351506233,-0.2979595363140106,0.0870507955551147,0.1748001426458358,0.0,0.0,-0.2180673968701212,0.7272532661220292
-0.0168801303952932,1.263474702835083,-0.0436151400208473,-0.3146874010562897,0.0943335890769958,0.1456690579652786,0.0,0.0,0.9948004069994087,-0.7067207527976432
-0.017150592058897,1.2570198774337769,-0.0362626500427722,-0.2874789834022522,0.1034789383411407,0.1829235255718231,0.0,0.0,0.8014690560529167,0.6002458201584683
-0.0172857288271188,1.2507054805755615,-0.0217588879168033,-0.2812289595603943,0.1116803139448165,0.1640422791242599,0.0,0.0,-0.8795179871789913,0.8199666674247887
-0.0173299796879291,1.244020700454712,-0.0114507712423801,-0.2976414859294891,0.1186775118112564,0.1399561017751693,0.0,0.0,0.2832798840876749,0.6518711892469974
-0.0174689292907714,1.2377383708953855,-0.0194781310856342,-0.2796684801578522,0.1242195591330528,0.1108409315347671,0.0,0.0,0.1485229097173763,0.6994274647992902
-0.0175707824528217,1.2318415641784668,-0.0144165512174367,-0.2624376714229584,0.1284331083297729,0.0842706561088562,0.0,0.0,0.3156751716148296,-0.9896807378912504
-0.0179129596799612,1.2265132665634155,-0.0404533855617046,-0.2373662590980529,0.1346427202224731,0.1241923421621322,0.0,0.0,0.6527062122971663,-0.812734568383255
-0.018524169921875,1.2219204902648926,-0.0688079670071601,-0.2048418223857879,0.1423082798719406,0.1533112525939941,0.0,0.0,-0.45951627860159,-0.9778415115563112
-0.0191716197878122,1.216926336288452,-0.0745571255683898,-0.2229251414537429,0.1520968079566955,0.1957706958055496,0.0,0.0,0.5082536209059014,-0.7609489766016135
-0.0199352260679006,1.2126973867416382,-0.0878163650631904,-0.1891652941703796,0.1635437756776809,0.2289393842220306,0.0,0.0,0.2899714404534781,0.8749320277493693
-0.0207118988037109,1.208589792251587,-0.0874163806438446,-0.1836666315793991,0.173307254910469,0.1952695846557617,0.0,0.0,-0.2789224077829935,-0.7289089548709147
-0.0215111728757619,1.204092025756836,-0.0914443507790565,-0.2012879252433776,0.1848592758178711,0.2310404777526855,0.0,0.0,0.773698333527048,0.6917824736159701
-0.0223572738468647,1.1997736692428589,-0.0947008281946182,-0.1932127773761749,0.1950009316205978,0.2028331011533737,0.0,0.0,0.3559351750109121,0.617580199402248
-0.023198127746582,1.195852518081665,-0.0931097343564033,-0.1754863858222961,0.2040843814611435,0.181669145822525,0.0,0.0,-0.4882751847270643,-0.7167522812259379
-0.0240506175905466,1.1915401220321655,-0.0957945883274078,-0.1931599080562591,0.2147276550531387,0.212865799665451,0.0,0.0,0.2928816380603918,0.7248702938781579
-0.024902056902647,1.1873772144317627,-0.0943735092878341,-0.1863904297351837,0.2240617722272873,0.1866820752620697,0.0,0.0,-0.7513637783452125,0.6583394663905955
-0.0256573669612407,1.1828575134277344,-0.0835307314991951,-0.202116459608078,0.2321718484163284,0.1622017323970794,0.0,0.0,0.3867654722444635,0.7669766823908979
-0.0265106204897165,1.1790060997009275,-0.0919334441423416,-0.1722266972064972,0.2388786077499389,0.1341348588466644,0.0,0.0,0.3973728234886593,-0.6851372641214368
-0.02746925316751,1.1755149364471436,-0.1040732264518737,-0.1565229594707489,0.2472265809774398,0.1669596135616302,0.0,0.0,-0.6927195154642136,0.8719641962107192
-0.0283310897648334,1.1716712713241575,-0.0931630879640579,-0.1720187664031982,0.2543445825576782,0.142360121011734,0.0,0.0,-0.9394665360450744,0.9192012548446656
-0.0290645603090524,1.1674782037734983,-0.0783678665757179,-0.1872366815805435,0.2594622671604156,0.1023535281419754,0.0,0.0,-0.988502562046051,0.9913878440856934
-0.0296649932861328,1.162928819656372,-0.0630240365862846,-0.2027239054441452,0.2625093460083008,0.0609413273632526,0.0,0.0,-0.997625768184662,0.9763946533203124
-0.0301350597292184,1.1580318212509155,-0.0479841455817222,-0.2178263515233993,0.2635166049003601,0.0201450809836387,0.0,0.0,-0.9915030002593994,0.9732298851013184
-0.0304903984069824,1.152770757675171,-0.034996710717678,-0.2337271720170974,0.2629690766334533,-0.0109503734856843,0.0,0.0,-0.999344289302826,0.9259554147720336
-0.0307246204465627,1.147150635719299,-0.0212007965892553,-0.2493879348039627,0.2606959640979767,-0.0454621315002441,0.0,0.0,-0.9974157214164734,0.8991132974624634
-0.0308391563594341,1.141175389289856,-0.0075502963736653,-0.2648807466030121,0.256717711687088,-0.0795650035142898,0.0,0.0,-0.9995849132537842,0.913528323173523
-0.0308552738279104,1.1348514556884766,0.0034744136501103,-0.2801820337772369,0.2515328824520111,-0.1036967858672142,0.0,0.0,-0.9977725148200988,0.9599192142486572
-0.030772304162383,1.1281776428222656,0.0145728439092636,-0.2955571413040161,0.2451435029506683,-0.127787560224533,0.0,0.0,-0.9870988726615906,0.888530969619751
-0.030579948797822,1.121145725250244,0.0268984194844961,-0.31126469373703,0.2373510003089904,-0.1558501422405243,0.0,0.0,-0.9962692856788636,0.8942935466766357
-0.0302594192326068,1.113765001296997,0.0416005812585353,-0.3265274167060852,0.2276608198881149,-0.1938038766384124,0.0,0.0,-0.975808560848236,0.7887835502624512
-0.0298418998718261,1.1060291528701782,0.0524161085486412,-0.3422123491764068,0.2168750017881393,-0.2157163172960281,0.0,0.0,-0.9308367371559144,0.3911408185958862
-0.0293812751770019,1.0979139804840088,0.0563886985182762,-0.3591932356357574,0.2064452171325683,-0.2085954397916793,0.0,0.0,-0.9729521870613098,0.3275492191314697
-0.028877830132842,1.0894196033477783,0.0603404119610786,-0.3761733472347259,0.1963809579610824,-0.2012855112552642,0.0,0.0,-0.8785980343818665,0.0311490297317504
-0.0283314697444438,1.0805455446243286,0.064269445836544,-0.3931527435779571,0.1866913884878158,-0.1937915384769439,0.0,0.0,-0.8759791254997253,-0.727229118347168
-0.0278074257075786,1.071269989013672,0.0599905960261821,-0.4113084375858307,0.1790784001350402,-0.1522597819566726,0.0,0.0,-0.97447407245636,-0.5877509713172913
-0.027280043810606,1.0616092681884766,0.0589569397270679,-0.428632527589798,0.1728487908840179,-0.1245924979448318,0.0,0.0,-0.9592850804328918,-0.5824488401412964
-0.0267454143613576,1.0515612363815308,0.0583854988217353,-0.4460140764713287,0.1679181456565857,-0.0986132100224495,0.0,0.0,-0.8675853610038757,-0.6378790140151978
-0.0262128822505474,1.041128158569336,0.0566582009196281,-0.4633170068264007,0.164511576294899,-0.0681312456727027,0.0,0.0,-0.9082560539245604,-0.5706456303596497
-0.0256890300661325,1.0303065776824951,0.05408825725317,-0.4807672202587127,0.1628060638904571,-0.0341103933751583,0.0,0.0,-0.8609845042228699,0.3461549282073974
-0.0251235011965036,1.0191043615341189,0.0578324571251869,-0.4977381825447082,0.1615248173475265,-0.0256249513477087,0.0,0.0,-0.8869683146476746,0.7594127655029297
-0.0244676582515239,1.0075373649597168,0.0676985830068588,-0.5138620138168335,0.1594055593013763,-0.0423851571977138,0.0,0.0,-0.9211980104446412,-0.4371397495269775
-0.0237709991633892,0.9955896735191344,0.0713580176234245,-0.5308331847190857,0.1577249467372894,-0.0336123071610927,0.0,0.0,-0.8296771049499512,0.059741735458374
-0.0230336189270019,0.983261227607727,0.0749692469835281,-0.5478042364120483,0.156489759683609,-0.0247039906680583,0.0,0.0,-0.7731924057006836,0.2212699651718139
-0.0222561843693256,0.9705519676208496,0.07852803170681,-0.5647752285003662,0.1557064801454544,-0.0156655181199312,0.0,0.0,-0.8730366826057434,0.9309134483337402
-0.0213814731687307,0.9574759602546692,0.0892803221940994,-0.580963671207428,0.1539010405540466,-0.0361086837947368,0.0,0.0,-0.2834170460700989,-0.3409599065780639
-0.0204677581787109,0.9440194368362428,0.0927200764417648,-0.5979348421096802,0.1525597870349884,-0.0268254037946462,0.0,0.0,-0.1033093929290771,0.2693042755126953
-0.0195155143737792,0.930181920528412,0.0960924178361892,-0.6149059534072876,0.1516884267330169,-0.017427260056138,0.0,0.0,0.0999712944030761,-0.2248955965042114
-0.01859369315207,0.9168106913566588,0.0925006717443466,-0.5942477583885193,0.1513757109642028,-0.0062547042034566,0.0,0.0,-0.5735021233558655,0.8749597072601318
-0.0175766944885253,0.9030681848526,0.1030065864324569,-0.6106494069099426,0.1500688344240188,-0.0261374022811651,0.0,0.0,-0.137795090675354,0.4860959053039551
-0.0165234562009573,0.8889448642730713,0.106140986084938,-0.6276205778121948,0.1492476463317871,-0.0164233446121215,0.0,0.0,0.3263782262802124,0.2675067186355591
-0.0154848098754882,0.875187337398529,0.1040829569101333,-0.6114190220832825,0.1490312218666076,-0.0043285191059112,0.0,0.0,0.0119928121566772,0.3734426498413086
-0.0145666124299168,0.8617990612983704,0.091908149421215,-0.5950296521186829,0.1489448994398117,-0.0017265513306483,0.0,0.0,0.0461963415145874,0.0667968988418579
-0.0136232376098632,0.8485828638076782,0.0937036201357841,-0.5874532461166382,0.1495732814073562,0.0125680360943079,0.0,0.0,0.0359899997711181,0.8643776178359985
-0.0126406671479344,0.8353525996208191,0.0988570600748062,-0.5879496932029724,0.1489789932966232,-0.0118856942281126,0.0,0.0,-0.1762822866439819,0.6072478294372559
-0.0115734096616506,0.8217473030090332,0.1081543937325477,-0.604539155960083,0.1475440561771392,-0.0286986771970987,0.0,0.0,0.1580166816711425,0.7564953565597534
-0.0104765892028808,0.8081144094467163,0.1121498718857765,-0.6056630611419678,0.1450885385274887,-0.0491100624203681,0.0,0.0,-0.121148943901062,0.1900820732116699
-0.0093512535095214,0.794100821018219,0.1144760623574256,-0.6226348280906677,0.1431481093168258,-0.0388085581362247,0.0,0.0,-0.0347397923469543,0.5682544708251953
-0.0081491470336914,0.7797233462333679,0.1229289919137954,-0.6387485861778259,0.1404361575841903,-0.0542392805218696,0.0,0.0,0.0006130933761596,-0.0769439935684204
-0.0070581436157226,0.7656859755516052,0.1116097569465637,-0.6236484050750732,0.137931540608406,-0.050092477351427,0.0,0.0,0.1351234912872314,0.7804603576660156
-0.0060138702392578,0.7515898942947388,0.1080480813980102,-0.6261657476425171,0.1343198418617248,-0.0722341015934944,0.0,0.0,-0.234089970588684,0.8967174291610718
-0.0048733712173998,0.7371363043785095,0.1190802454948425,-0.6419368386268616,0.1293202638626098,-0.0999917313456535,0.0,0.0,0.5451853275299072,-0.2341310977935791
-0.003875732421875,0.7230845093727112,0.1046913415193557,-0.6241021752357483,0.124412678182125,-0.0981515869498252,0.0,0.0,0.4164742231369018,0.0608922243118286
-0.0029783248901367,0.7095083594322205,0.0943591147661209,-0.6030023694038391,0.1198206022381782,-0.0918417274951934,0.0,0.0,0.4219295978546142,0.5889143943786621
-0.0021013258956372,0.6964573860168457,0.0929910093545913,-0.5796285271644592,0.1145626157522201,-0.1051595583558082,0.0,0.0,0.2220276594161987,0.3361392021179199
-0.0011947632301598,0.6836780905723572,0.0951144322752952,-0.5676311254501343,0.110140360891819,-0.0884453132748603,0.0,0.0,-0.2681357860565185,0.2786242961883545
-0.0002754211309365,0.6705182194709778,0.095847263932228,-0.5846027731895447,0.1062574237585067,-0.0776588916778564,0.0,0.0,0.1443977355957031,0.5715622901916504
0.0007411956903524,0.6574078798294067,0.106051430106163,-0.5823739171028137,0.1018987819552421,-0.0871729701757431,0.0,0.0,0.2243330478668213,0.1719844341278076
0.0018319130176678,0.6445648670196533,0.1124082654714584,-0.5705745816230774,0.0985870435833931,-0.0662347227334976,0.0,0.0,-0.3238709568977356,-0.106780469417572
0.0029292106628417,0.6313409209251404,0.1125223189592361,-0.5875449776649475,0.0958191826939582,-0.0553571358323097,0.0,0.0,-0.6877101063728333,-0.7117869257926941
0.0039741517975926,0.6177331805229187,0.1052941083908081,-0.6047407388687134,0.0950266122817993,-0.0158513765782117,0.0,0.0,-0.6904837489128113,0.0679495334625244
0.0050215721130371,0.6037443280220032,0.1049936413764953,-0.6217101216316223,0.094779796898365,-0.0049362652935087,0.0,0.0,-0.6594003438949585,0.3893308639526367
0.0060694692656397,0.5893744826316833,0.1044887155294418,-0.6386794447898865,0.0950792953372001,0.0059899613261222,0.0,0.0,-0.0039886236190795,0.5523624420166016
0.0071670534089207,0.5746250152587891,0.110193908214569,-0.6555006504058838,0.0946419462561607,-0.0087468903511762,0.0,0.0,-0.7937268018722534,0.6003975868225098
0.0083043100312352,0.5594990849494934,0.1147190332412719,-0.6722031831741333,0.0936594232916832,-0.019650425761938,0.0,0.0,-0.0514588356018066,-0.1145439743995666
0.0094361305236816,0.5439920425415039,0.1136237755417823,-0.6891725063323975,0.0932231768965721,-0.0087249036878347,0.0,0.0,-0.1176900267601013,0.0896620750427246
0.0105606075376272,0.5281040072441101,0.1123422756791114,-0.7061417698860168,0.0933325886726379,0.0021880674175918,0.0,0.0,-0.1993829607963562,-0.529032826423645
0.0116254808381199,0.5118327140808105,0.1045401096343994,-0.7232909798622131,0.0952573046088218,0.0384946130216121,0.0,0.0,-0.1795990467071533,0.8756136894226074
0.0127579690888524,0.4951961040496826,0.1127852201461792,-0.7394340634346008,0.0957262441515922,0.0093784155324101,0.0,0.0,0.4615123271942138,0.4267764091491699
0.013767528347671,0.4791626930236816,0.1001510024070739,-0.712646484375,0.0965177863836288,0.0158310011029243,0.0,0.0,-0.1935998797416687,0.5409573316574097
0.0147993089631199,0.4627574682235718,0.1027816534042358,-0.7291463017463684,0.096917450428009,0.0079931588843464,0.0,0.0,0.1621458530426025,-0.2796884775161743
0.0157642364501953,0.4464916884899139,0.0956266075372695,-0.7229803800582886,0.0977734550833702,0.0171201396733522,0.0,0.0,0.4344409704208374,0.3756483793258667
0.0165602676570415,0.4306094944477081,0.0786742195487022,-0.7059336304664612,0.0986953675746917,0.0184383764863014,0.0,0.0,0.4060773849487304,0.5436882972717285
0.0171986576169729,0.414996325969696,0.0637922883033752,-0.693920910358429,0.0987434163689613,0.0009609728003852,0.0,0.0,0.6120691299438477,0.6553008556365967
0.0179114341735839,0.4000769555568695,0.0717669948935508,-0.6630500555038452,0.0982593894004821,-0.0096807023510336,0.0,0.0,-0.0621982812881469,0.2094095945358276
0.0186032298952341,0.3847765624523163,0.0691409483551979,-0.6800194382667542,0.0982987284660339,0.0007868337561376,0.0,0.0,0.4133296012878418,0.7336437702178955
0.0194036476314067,0.3701039552688598,0.0807312726974487,-0.6520713567733765,0.0976137816905975,-0.0136987734586,0.0,0.0,0.5395275354385376,-0.0868314504623413
0.0200891494750976,0.3561266958713531,0.0688242018222808,-0.6211931705474854,0.097343809902668,-0.0053993975743651,0.0,0.0,0.394200325012207,0.4405142068862915
0.0208002086728811,0.3428624868392944,0.0703052505850792,-0.589573085308075,0.0981387421488761,0.0158986113965511,0.0,0.0,-0.0302721261978149,0.199622631072998
0.0214860923588275,0.3292171955108642,0.0672803968191146,-0.6065422296524048,0.0994354113936424,0.0259337127208709,0.0,0.0,0.7350733280181885,0.6427046060562134
0.0221028327941894,0.3164834976196289,0.061177808791399,-0.5659751892089844,0.0999236181378364,0.0097637688741087,0.0,0.0,0.6949270963668823,0.2956006526947021
0.0226739887148141,0.3045840263366699,0.0558384358882904,-0.5289536118507385,0.1011872515082359,0.0252727027982473,0.0,0.0,0.7357965707778931,0.6715080738067627
0.0233131404966115,0.2930408716201782,0.0632906779646873,-0.513069212436676,0.1018052026629448,0.012358964420855,0.0,0.0,0.3840599060058594,0.2491387128829956
0.0237692836672067,0.2818740606307983,0.044991098344326,-0.4963464736938476,0.1024200990796089,0.0122981248423457,0.0,0.0,-0.1053756475448608,0.8436794281005859
0.0242486000061035,0.2703319191932678,0.0481825396418571,-0.5129640698432922,0.102173700928688,-0.0049279062077403,0.0,0.0,0.9201831817626952,0.5058169364929199
0.0246448516845703,0.2593882083892822,0.0405118241906166,-0.4863272309303283,0.1012906953692436,-0.0176602434366941,0.0,0.0,0.5794234275817871,-0.07309490442276
0.0249836929142475,0.248828187584877,0.0342225432395935,-0.4693126380443573,0.1009633839130401,-0.0065465234220027,0.0,0.0,0.8331835269927979,0.6734613180160522
0.0254604332149028,0.2385081201791763,0.0485460609197616,-0.4586133658885956,0.1001039072871208,-0.0171896815299987,0.0,0.0,0.5964395999908447,-0.3100709319114685
0.0259333606809377,0.2288071066141128,0.04729875177145,-0.4311558604240417,0.1000970676541328,-0.0001365460484521,0.0,0.0,0.8505076169967651,-0.093847632408142
0.0263118743896484,0.2200775444507599,0.0373172760009765,-0.3880146443843841,0.1006239429116249,0.0105374092236161,0.0,0.0,0.3375211954116821,-0.8216778635978699
0.0266264919191598,0.211333766579628,0.0288162026554346,-0.3887945413589477,0.1032475084066391,0.0524714663624763,0.0,0.0,0.5787661075592041,0.1619837284088134
0.0269405357539653,0.2031035274267196,0.0279410220682621,-0.3660296201705932,0.1066798344254493,0.0686465576291084,0.0,0.0,0.6827471256256104,0.8351974487304688
