x_pos,y_pos,x_vel,y_vel,angle,ang_vel,leg_1,leg_2,main_booster,lat_booster
-0.0014814377063885,1.4033849239349363,-0.1505200862884521,-0.3348932266235351,0.0021246538963168,0.0419379062950611,0.0,0.0,-0.8572339385064722,-0.2928755049045718
-0.0029208182822912,1.395633578300476,-0.1464093178510666,-0.3445087969303131,0.0045723528601229,0.0489593259990215,0.0,0.0,-0.502927044803736,0.5327886268192716
-0.0042667388916015,1.3876389265060425,-0.1361512839794159,-0.3553280830383301,0.006104870699346,0.0306533183902502,0.0,0.0,0.4835854011059259,-0.1644034938397831
-0.0056804656051099,1.3800766468048096,-0.1427735090255737,-0.3361058235168457,0.007493594661355,0.0277771260589361,0.0,0.0,0.3676596245852981,0.201525281621586
-0.0069494247436523,1.3730857372283936,-0.1291974037885666,-0.3107170462608337,0.009758804924786,0.0453087389469146,0.0,0.0,-0.4374822830867022,-0.194008607247981
-0.0081768035888671,1.3658554553985596,-0.1253958195447921,-0.3213647007942199,0.0123846912756562,0.0525224022567272,0.0,0.0,0.280362920755878,-0.8038869195258176
-0.0094514843076467,1.3590558767318726,-0.1320635974407196,-0.3022535443305969,0.0169352535158395,0.0910198464989662,0.0,0.0,0.1659008196444005,-0.2375433523207857
-0.0105872154235839,1.352704405784607,-0.1190391555428505,-0.2823576331138611,0.0223401915282011,0.1081087961792945,0.0,0.0,0.1169738422770041,0.2377844281715309
-0.0117028234526515,1.3469622135162354,-0.1173397526144981,-0.2553101181983948,0.0280541777610778,0.1142900735139846,0.0,0.0,-0.6773850681190681,-0.8798222816775267
-0.0128473285585641,1.3409836292266846,-0.1223352551460266,-0.2658794820308685,0.0358566306531429,0.1560633331537246,0.0,0.0,-0.8709216120085246,0.2300499092072769
-0.0139514924958348,1.3347667455673218,-0.1186483353376388,-0.2765247225761413,0.0439961962401866,0.1628063023090362,0.0,0.0,0.6365426341148153,0.7758546724301358
-0.014900398440659,1.3291029930114746,-0.1020555943250656,-0.251947820186615,0.051081646233797,0.1417220532894134,0.0,0.0,0.4055023385920435,-0.9194266181060626
-0.0157863609492778,1.3241009712219238,-0.0980499237775802,-0.2226584255695343,0.0604477226734161,0.1873390972614288,0.0,0.0,-0.9336370749813924,-0.0907891172144002
-0.016633128747344,1.31886088848114,-0.0944510027766227,-0.2333144694566726,0.0701336190104484,0.1937353163957595,0.0,0.0,0.4391375917414957,0.7433918776307799
-0.0172968860715627,1.3144855499267578,-0.0752204582095146,-0.1948953568935394,0.0788899734616279,0.1751431375741958,0.0,0.0,-0.3686850449723131,0.0230714122392674
-0.0179224014282226,1.3098719120025637,-0.0716883763670921,-0.2055559158325195,0.0879552960395813,0.1813232004642486,0.0,0.0,0.9528228332976568,-0.5795330301699155
-0.0184720996767282,1.3065550327301023,-0.0660717412829399,-0.1481076776981353,0.0989739596843719,0.2203933894634246,0.0,0.0,0.3431437402469375,0.7195307474096793
-0.0188292507082223,1.303476333618164,-0.0458511412143707,-0.1375314742326736,0.1090610325336456,0.2017594277858734,0.0,0.0,-0.6862919368383098,-0.5742270580738862
-0.0191877372562885,1.3001594543457031,-0.0472387447953224,-0.1482917666435241,0.1203935742378234,0.2266712486743927,0.0,0.0,-0.0500925949080319,0.2246014026419427
-0.0195101741701364,1.296605110168457,-0.0438985303044319,-0.1589485257863998,0.1320053040981292,0.2322551757097244,0.0,0.0,-0.0886967201161443,-0.3129985300769458
-0.0197973251342773,1.2928135395050049,-0.0406152456998825,-0.1696081012487411,0.1438889801502227,0.2376947104930877,0.0,0.0,0.5511616225075537,0.0677237519317566
-0.0200983993709087,1.2894041538238523,-0.0423131212592124,-0.1527597308158874,0.1560873687267303,0.2439898550510406,0.0,0.0,0.2024737334667694,-0.9563142181619624
-0.0203923229128122,1.2863517999649048,-0.0437644533812999,-0.1372252106666565,0.1704812496900558,0.2879036664962768,0.0,0.0,0.0843945507436423,-0.1240624078691909
-0.0206430442631244,1.283377766609192,-0.0398593470454216,-0.1339396685361862,0.1853328496217727,0.2970588207244873,0.0,0.0,-0.3651373271422018,-0.7964647820266946
-0.0209385864436626,1.2801488637924194,-0.0464982166886329,-0.1457141935825348,0.2023947089910507,0.3412672579288482,0.0,0.0,-0.9132676121319788,-0.7633273629854862
-0.0212742798030376,1.2766456604003906,-0.0525863468647003,-0.158410295844078,0.2215873599052429,0.3838526606559753,0.0,0.0,0.2628291688102746,-0.2630132719372546
-0.0216992385685443,1.2737221717834473,-0.0616593956947326,-0.1329318583011627,0.2410134673118591,0.3885227143764496,0.0,0.0,-0.3646525151382431,0.70080213167919
-0.0220545772463083,1.2705869674682615,-0.0537241585552692,-0.1424266397953033,0.2595362961292267,0.370457261800766,0.0,0.0,0.9715339165730844,-0.4367858818377298
-0.0227701179683208,1.2684977054595947,-0.0891417786478996,-0.0960799977183342,0.2775394916534424,0.3600639402866363,0.0,0.0,-0.7519384576622681,-0.8803922325733298
-0.0235279090702533,1.2661415338516235,-0.0952574163675308,-0.1085471361875534,0.2975843548774719,0.400897353887558,0.0,0.0,-0.8510773395564779,-0.9051870087189992
-0.0243292804807424,1.2635315656661987,-0.1013804823160171,-0.1204945221543312,0.3195830285549164,0.4399727880954742,0.0,0.0,-0.8247810006141663,0.9996793270111084
-0.02504139021039,1.2607154846191406,-0.0907727777957916,-0.1296135932207107,0.3399815261363983,0.407970517873764,0.0,0.0,-0.8852638006210327,0.9931504726409912
-0.0256706234067678,1.2577078342437744,-0.0808216780424118,-0.1380080282688141,0.3587746024131775,0.3758617341518402,0.0,0.0,-0.8094029426574707,0.9934418201446532
-0.0262124054133892,1.2544937133789062,-0.0703724399209022,-0.1469910442829132,0.3759033977985382,0.3425761759281158,0.0,0.0,-0.7500092387199402,0.9992057085037231
-0.0266613010317087,1.251090407371521,-0.0591262280941009,-0.1550772488117218,0.3910545110702514,0.303022176027298,0.0,0.0,-0.8050724267959595,0.9862542152404784
-0.0270216949284076,1.2475032806396484,-0.0483392253518104,-0.1628702580928802,0.4042255878448486,0.263421356678009,0.0,0.0,-0.7552292943000793,0.9993196725845336
-0.0272966381162405,1.2437186241149902,-0.0380145385861396,-0.1712471097707748,0.4155416488647461,0.2263214290142059,0.0,0.0,-0.8521727919578552,0.982307195663452
-0.0274854656308889,1.2397528886795044,-0.0274495668709278,-0.1787999719381332,0.4247869551181793,0.1849061995744705,0.0,0.0,-0.5611088275909424,0.9772845506668092
-0.0276010520756244,1.235603094100952,-0.0183983799070119,-0.1865160763263702,0.4322142601013183,0.1485466063022613,0.0,0.0,-0.6468923687934875,0.9938446283340454
-0.0276335719972848,1.2312674522399902,-0.0081665702164173,-0.1942248344421386,0.437558650970459,0.1068879961967468,0.0,0.0,-0.8036114573478699,0.9896440505981444
-0.027603531256318,1.2267407178878784,-0.0003995752485934,-0.2022481560707092,0.4412685334682464,0.0741977244615554,0.0,0.0,-0.7587192058563232,0.9103794097900392
-0.0274900440126657,1.2220282554626465,0.0099812150001525,-0.2098704874515533,0.4427569210529327,0.0297677274793386,0.0,0.0,-0.9241152405738832,0.8893475532531738
-0.0272976867854595,1.2171199321746826,0.0197892803698778,-0.2179764062166214,0.4421570897102356,-0.0119964610785245,0.0,0.0,-0.9769755601882936,0.839333176612854
-0.0270348545163869,1.2120200395584106,0.0286626312881708,-0.2259155362844467,0.4395622313022613,-0.0518971905112266,0.0,0.0,-0.9893260598182678,0.3999142646789551
-0.0267735477536916,1.2066808938980105,0.0284903142601251,-0.2365585416555404,0.4369979798793793,-0.0512849502265453,0.0,0.0,-0.9732897877693176,0.5456469058990479
-0.0264725685119628,1.2011268138885498,0.03355323523283,-0.2457781583070755,0.4332386553287506,-0.0751866847276687,0.0,0.0,-0.991956353187561,0.4087239503860473
-0.0261775013059377,1.195333480834961,0.0329624265432357,-0.2564209997653961,0.4294896721839905,-0.0749802663922309,0.0,0.0,-0.9832707047462464,0.322206974029541
-0.0258903503417968,1.1893008947372437,0.0321668721735477,-0.2670634984970093,0.4257411360740661,-0.0749705955386161,0.0,0.0,-0.986783504486084,-0.0983403921127319
-0.0256133079528808,1.1830291748046875,0.0311712063848972,-0.2777056694030761,0.4219834804534912,-0.0751531943678855,0.0,0.0,-0.98112553358078,0.5222333669662476
-0.025312041863799,1.1765408515930176,0.0345916375517845,-0.2870409190654754,0.4171628654003143,-0.0964124426245689,0.0,0.0,-0.99664306640625,-0.4593148231506347
-0.0250247959047555,1.1698131561279297,0.0332140102982521,-0.2976831495761871,0.412314623594284,-0.0969649627804756,0.0,0.0,-0.9907130002975464,-0.1970055699348449
-0.0247536655515432,1.162846326828003,0.0316556543111801,-0.3083251118659973,0.4074298739433288,-0.0976947098970413,0.0,0.0,-0.996421217918396,0.6747831106185913
-0.024441909044981,1.1556739807128906,0.0372994616627693,-0.3170267343521118,0.40085369348526,-0.1315237581729889,0.0,0.0,-0.9886005520820618,0.1417346000671386
-0.0241498947143554,1.14826238155365,0.0354045145213604,-0.3276696801185608,0.3942241370677948,-0.1325912475585937,0.0,0.0,-0.9990325570106506,0.7019556760787964
-0.0238147731870412,1.1406489610671997,0.0414566919207572,-0.3361924886703491,0.3857273161411285,-0.169936403632164,0.0,0.0,-0.9995633959770204,-0.1133959889411926
-0.0235026367008686,1.1327965259552002,0.0392596572637558,-0.3468373119831085,0.3771613836288452,-0.1713182032108307,0.0,0.0,-0.9987027645111084,-0.1848427057266235
-0.0232148170471191,1.12470543384552,0.036924060434103,-0.3574820160865783,0.3685189485549927,-0.1728484183549881,0.0,0.0,-0.9999235272407532,0.448972225189209
-0.0229527465999126,1.11637544631958,0.0344586297869682,-0.3681267499923706,0.3597928881645202,-0.1745209544897079,0.0,0.0,-0.9966986775398254,0.4036407470703125
-0.0227176658809185,1.1078064441680908,0.0318719372153282,-0.378771424293518,0.3509764075279236,-0.1763298064470291,0.0,0.0,-0.9966467022895812,0.4276233911514282
-0.0225108154118061,1.0989984273910522,0.0291723273694515,-0.3894161581993103,0.3420629501342773,-0.1782687902450561,0.0,0.0,-0.9991491436958312,0.244447112083435
-0.0223331451416015,1.089951753616333,0.0263678636401891,-0.4000608623027801,0.3330463767051697,-0.1803317368030548,0.0,0.0,-0.9969521760940552,0.3197646141052246
-0.0221858974546194,1.080666184425354,0.0234662629663944,-0.4107057154178619,0.323920726776123,-0.1825124770402908,0.0,0.0,-0.9982031583786012,0.7960250377655029
-0.0219981186091899,1.071176052093506,0.0295535773038864,-0.419412761926651,0.3127239048480987,-0.2239362746477127,0.0,0.0,-0.9963194131851196,0.0783139467239379
-0.0218425747007131,1.0614475011825562,0.0264809131622314,-0.430061012506485,0.3014072477817535,-0.2263330668210983,0.0,0.0,-0.9944710731506348,-0.0875293612480163
-0.0217200275510549,1.0514805316925049,0.0233319103717803,-0.4407095611095428,0.289965808391571,-0.228829026222229,0.0,0.0,-0.9847073554992676,0.2261133193969726
-0.0216314308345317,1.0412756204605105,0.0201126877218484,-0.4513583481311798,0.2783949077129364,-0.2314179688692093,0.0,0.0,-0.9685364961624146,0.3344540596008301
-0.0215773582458496,1.0308324098587036,0.0168289616703987,-0.4620074331760406,0.2666902244091034,-0.2340939342975616,0.0,0.0,-0.9762427806854248,0.1856766939163208
-0.021558379754424,1.0201512575149536,0.0134860519319772,-0.4726568162441253,0.2548476755619049,-0.2368508875370025,0.0,0.0,-0.9610958695411682,0.1493892669677734
-0.0215751640498638,1.009231686592102,0.0100888777524232,-0.4833065569400787,0.2428635358810424,-0.239682912826538,0.0,0.0,-0.8786659836769104,-0.1681452393531799
-0.0216281898319721,0.9980742931365968,0.006641989108175,-0.4939566850662231,0.2307343482971191,-0.2425842583179474,0.0,0.0,-0.9785032272338868,-0.2707146406173706
-0.0217180252075195,0.9866788387298584,0.0031495881266891,-0.5046072602272034,0.218456894159317,-0.2455490529537201,0.0,0.0,-0.9901004433631896,-0.5575209259986877
-0.021885871887207,0.9750330448150636,-0.0055292374454438,-0.5159719586372375,0.2070925533771515,-0.2272866666316986,0.0,0.0,-0.9793369770050048,0.4105949401855469
-0.0220911987125873,0.9631489515304564,-0.0091020641848444,-0.5266212821006775,0.1955744475126266,-0.2303622215986251,0.0,0.0,-0.9688578844070436,-0.9461281895637512
-0.0223986618220806,0.9510073065757751,-0.0208025742322206,-0.5383399128913879,0.1855685114860534,-0.2001184225082397,0.0,0.0,-0.976112425327301,-0.0228757858276367
-0.0227443687617778,0.938627541065216,-0.0244428925216197,-0.5489871501922607,0.175404354929924,-0.2032830715179443,0.0,0.0,-0.9858986735343932,-0.0209047198295593
-0.0231286045163869,0.9260091185569764,-0.0281122531741857,-0.5596347451210022,0.1650801599025726,-0.2064838707447052,0.0,0.0,-0.98922860622406,-0.8065332770347595
-0.0236166957765817,0.9131278395652772,-0.0400361642241478,-0.5715590715408325,0.1562991142272949,-0.1756206303834915,0.0,0.0,-0.9898489713668824,-0.7540703415870667
-0.0242042541503906,0.9000000357627869,-0.051327247172594,-0.5826934576034546,0.1488814055919647,-0.1483540534973144,0.0,0.0,-0.9923152923583984,0.1814289093017578
-0.0248310081660747,0.8866331577301025,-0.0550706498324871,-0.5933374166488647,0.141299769282341,-0.1516330689191818,0.0,0.0,-0.9836840629577636,0.4272980690002441
-0.0254970546811819,0.8730275630950928,-0.0588342174887657,-0.6039816737174988,0.1335533857345581,-0.1549277901649475,0.0,0.0,-0.786004900932312,0.1253296136856079
-0.0262026786804199,0.8591829538345337,-0.0626162141561508,-0.6146261692047119,0.1256417334079742,-0.158233106136322,0.0,0.0,-0.948276698589325,0.5386298894882202
-0.0269034393131732,0.8451129794120789,-0.060792364180088,-0.6245821714401245,0.116414725780487,-0.184540256857872,0.0,0.0,-0.9825804233551024,-0.8564573526382446
-0.0277226455509662,0.8307902812957764,-0.0744742825627327,-0.6360016465187073,0.1090189069509506,-0.1479163616895675,0.0,0.0,-0.994316816329956,0.6816222667694092
-0.0285332687199115,0.8162397146224976,-0.0722068846225738,-0.6460731029510498,0.1002206057310104,-0.1759661138057708,0.0,0.0,-0.958023488521576,0.1587885618209839
-0.0293840412050485,0.8014504909515381,-0.0760476887226104,-0.6567195653915405,0.0912573486566543,-0.1792649030685424,0.0,0.0,-0.9511616230010986,-0.8705465197563171
-0.0303338058292865,0.7864146828651428,-0.0872629731893539,-0.6678087115287781,0.0836134329438209,-0.152878075838089,0.0,0.0,-0.6288565397262573,-0.1926209330558776
-0.0313239097595214,0.7711399793624878,-0.0911262482404708,-0.6784538626670837,0.0758061334490776,-0.1561458706855774,0.0,0.0,-0.9613345861434937,-0.0165042877197265
-0.0323543548583984,0.7556264996528625,-0.094999112188816,-0.6890993118286133,0.0678365677595138,-0.1593912094831466,0.0,0.0,-0.9791746139526368,0.4256246089935303
-0.0334253311157226,0.7398744225502014,-0.0988806560635566,-0.6997451782226562,0.0597060918807983,-0.1626095622777938,0.0,0.0,-0.9407426118850708,-0.2407070398330688
-0.0345369353890419,0.7238835692405701,-0.1027700528502464,-0.7103913426399231,0.0514162592589855,-0.1657966524362564,0.0,0.0,-0.9713786840438844,0.7068679332733154
-0.0356338508427143,0.707663893699646,-0.0997399315237999,-0.7205711603164673,0.0415744446218013,-0.1968362927436828,0.0,0.0,-0.9356691241264344,-0.313482403755188
-0.0367714874446392,0.6912058591842651,-0.1036426275968551,-0.7312201261520386,0.0315770804882049,-0.199947327375412,0.0,0.0,-0.689817488193512,-0.1168572306632995
-0.0379498489201068,0.6745096445083618,-0.10755106061697,-0.7418695092201233,0.0214263759553432,-0.2030142843723297,0.0,0.0,-0.6418745517730713,-0.7398144602775574
-0.039217472076416,0.6575659513473511,-0.1175678595900535,-0.7529524564743042,0.0123502258211374,-0.181522935628891,0.0,0.0,-0.4808517694473266,0.0432026386260986
-0.0405258163809776,0.640383780002594,-0.1214859336614608,-0.7636005878448486,0.0031257276423275,-0.1844901144504547,0.0,0.0,0.2583199739456177,-0.3813457489013672
-0.0418124198913574,0.6239494681358337,-0.119466982781887,-0.7304282784461975,-0.0059462487697601,-0.181439608335495,0.0,0.0,-0.7958898544311523,0.4129469394683838
-0.0431396476924419,0.6072767376899719,-0.1233923211693763,-0.741076648235321,-0.0151608055457472,-0.1842910349369049,0.0,0.0,-0.7272294163703918,-0.4411894083023071
-0.0445076934993267,0.5903656482696533,-0.1273204684257507,-0.7517253756523132,-0.024514740332961,-0.1870789229869842,0.0,0.0,-0.4218129515647888,0.3612149953842163
-0.0459163673222065,0.5732163786888123,-0.1312509328126907,-0.7623744606971741,-0.0340047180652618,-0.1897995620965957,0.0,0.0,0.7379372119903564,-0.1520863771438598
-0.0473950393497943,0.557015061378479,-0.1378619521856308,-0.7203168272972107,-0.0438877679407596,-0.1976612508296966,0.0,0.0,-0.945918619632721,-0.4020581841468811
-0.0489142425358295,0.5405756831169128,-0.1417956352233886,-0.7309668660163879,-0.053899623453617,-0.2002370059490203,0.0,0.0,0.1870820522308349,-0.491851806640625
-0.0504726395010948,0.5244356989860535,-0.1455023884773254,-0.7177373766899109,-0.0641191005706787,-0.2043895721435547,0.0,0.0,-0.4379233121871948,-0.7691633701324463
-0.0521440505981445,0.5080653429031372,-0.1585324853658676,-0.7279645204544067,-0.0726315230131149,-0.1702484190464019,0.0,0.0,-0.2806041240692138,-0.1112928390502929
-0.0538559928536415,0.4914565086364746,-0.1624670773744583,-0.7386128306388855,-0.0812606737017631,-0.1725833117961883,0.0,0.0,0.7878978252410889,-0.0297322869300842
-0.0554307922720909,0.4757580757141113,-0.1491962224245071,-0.6981792449951172,-0.0894721746444702,-0.1642300188541412,0.0,0.0,-0.8468750715255737,-0.1049396991729736
-0.0570460334420204,0.459821343421936,-0.1531289964914322,-0.7088270783424377,-0.0977916419506073,-0.1663894653320312,0.0,0.0,0.2050468921661377,0.733857274055481
-0.0584697723388671,0.4444566369056701,-0.132552370429039,-0.6835475564002991,-0.1075386628508567,-0.1949406266212463,0.0,0.0,-0.3476197719573974,-0.6305775046348572
-0.0599848739802837,0.4288672208786011,-0.142906442284584,-0.6935008764266968,-0.1160768344998359,-0.1707634329795837,0.0,0.0,0.3707518577575683,-0.3018958568572998
-0.06134033203125,0.4140752851963043,-0.1274115145206451,-0.6580742001533508,-0.124161384999752,-0.1616912633180618,0.0,0.0,0.2648050785064697,-0.6722325086593628
-0.0626688972115516,0.3997030854225158,-0.1260981261730194,-0.6393436193466187,-0.130892664194107,-0.1346257328987121,0.0,0.0,0.3034321069717407,-0.7379524111747742
-0.0640169158577919,0.3860699534416199,-0.1294336020946502,-0.6063960194587708,-0.1362391412258148,-0.1069296598434448,0.0,0.0,-0.8103746175765991,-0.4522528648376465
-0.0654047951102256,0.3721979856491089,-0.1333476901054382,-0.6170408129692078,-0.1416644901037216,-0.1085069626569747,0.0,0.0,0.5508682727813721,-0.7331785559654236
-0.0667469948530197,0.3587170839309692,-0.1303195208311081,-0.5995270013809204,-0.1455460637807846,-0.0776315480470657,0.0,0.0,0.3590854406356811,-0.0981301069259643
-0.0681546181440353,0.3457738757133484,-0.1363328993320465,-0.575692892074585,-0.1499615460634231,-0.0883095115423202,0.0,0.0,-0.0514584779739379,0.0823862552642822
-0.0696017295122146,0.332591563463211,-0.1402292549610138,-0.5863367915153503,-0.1544401943683624,-0.0895729809999466,0.0,0.0,0.6260185241699219,-0.5299978256225586
-0.0710667595267295,0.3200071454048157,-0.1429680287837982,-0.5596806406974792,-0.1579765379428863,-0.0707267075777053,0.0,0.0,-0.2916585206985473,0.0426810979843139
-0.0725710839033126,0.3071835339069366,-0.1468487828969955,-0.5703237652778625,-0.1615653783082962,-0.071776732802391,0.0,0.0,0.4260872602462768,-0.7609670758247375
-0.0740007385611534,0.2945576310157776,-0.1410370767116546,-0.5613658428192139,-0.1634908318519592,-0.0385090336203575,0.0,0.0,0.918242335319519,-0.4751290082931518
-0.0752284973859787,0.2828396558761596,-0.1213315576314926,-0.5209572315216064,-0.1649347096681594,-0.0288771204650402,0.0,0.0,-0.3523012399673462,-0.9070323705673218
-0.0765619277954101,0.27090784907341,-0.1336031556129455,-0.5302724242210388,-0.1646689623594284,0.0053148702718317,0.0,0.0,0.3045947551727295,0.2044864892959594
