x_pos,y_pos,x_vel,y_vel,angle,ang_vel,leg_1,leg_2,main_booster,lat_booster
-0.0015744209522381,1.4032588005065918,-0.1593595743179321,-0.3405022323131561,0.0017179859569296,0.0338857620954513,0.0,0.0,-0.3039494156837463,0.7518737316131592
-0.0031354904640465,1.3952515125274658,-0.1560772955417633,-0.3558798134326935,0.0016838840674608,-0.0006812694482505,0.0,0.0,-0.2159541249275207,0.4987455606460571
-0.0047468184493482,1.3868780136108398,-0.1609997600317001,-0.3721551895141601,0.0015497541753575,-0.0026830865535885,0.0,0.0,-0.3787267208099365,0.6953251361846924
-0.0063640596345067,1.3781366348266602,-0.1603640168905258,-0.3885053396224975,0.000205284814001,-0.0268916822969913,0.0,0.0,0.1585197448730468,0.757982611656189
-0.0078677181154489,1.3697178363800049,-0.1474984735250473,-0.3741642832756042,-0.0026369730476289,-0.0568504221737384,0.0,0.0,0.3589663505554199,0.202001690864563
-0.0093060489743947,1.3616031408309937,-0.1413789093494415,-0.3606590330600738,-0.005055665038526,-0.0483783483505249,0.0,0.0,-0.1608021855354309,0.2006123065948486
-0.0107923503965139,1.3531229496002195,-0.1460570394992828,-0.3769140541553497,-0.0075963516719639,-0.0508186109364032,0.0,0.0,0.3432080745697021,0.6062514781951904
-0.0121408458799123,1.345065712928772,-0.1312287002801895,-0.3581164479255676,-0.0111816199496388,-0.0717119872570037,0.0,0.0,-0.0035914182662963,0.0822304487228393
-0.0135358814150094,1.3366432189941406,-0.135756254196167,-0.3743757009506225,-0.0148970894515514,-0.0743160098791122,0.0,0.0,-0.0540152788162231,0.5054388046264648
-0.0149371149018406,1.327857255935669,-0.1352125108242035,-0.390534907579422,-0.0197471734136343,-0.0970104485750198,0.0,0.0,0.0562493801116943,-0.059233546257019
-0.0163206104189157,1.319274663925171,-0.1335737258195877,-0.3815253376960754,-0.0244739800691604,-0.094544693827629,0.0,0.0,-0.5551266670227051,0.3204033374786377
-0.0177482608705759,1.310326337814331,-0.1378450542688369,-0.397784024477005,-0.0293434876948595,-0.0973988026380539,0.0,0.0,0.2269424200057983,0.4289743900299072
-0.0191071517765522,1.3017876148223877,-0.1312867850065231,-0.3796000182628631,-0.0339014120399951,-0.0911668241024017,0.0,0.0,-0.7568812370300293,0.4956623315811157
-0.0205083843320608,1.2928833961486816,-0.1353695094585418,-0.3958601355552673,-0.0386089794337749,-0.0941598340868949,0.0,0.0,-0.5484523177146912,0.7192660570144653
-0.0218809135258197,1.283617377281189,-0.1305541694164276,-0.4120071530342102,-0.0452289022505283,-0.1324105560779571,0.0,0.0,-0.6273161768913269,0.5722882747650146
-0.0232404712587595,1.27397620677948,-0.1277566701173782,-0.4287635684013366,-0.0533469282090663,-0.1623752862215042,0.0,0.0,0.0036704540252685,-0.162727952003479
-0.0245279315859079,1.2647418975830078,-0.1207813173532486,-0.4107089042663574,-0.0612295009195804,-0.1576660126447677,0.0,0.0,-0.7541406154632568,0.005338430404663
-0.0258535388857126,1.2551428079605105,-0.1244322434067726,-0.4269735217094421,-0.069273293018341,-0.1608903706073761,0.0,0.0,-0.1894587874412536,-0.1320579051971435
-0.0272159576416015,1.2451791763305664,-0.1279678791761398,-0.4432301521301269,-0.0774801298975944,-0.1641512960195541,0.0,0.0,-0.5447334051132202,0.290438175201416
-0.0286143310368061,1.2348510026931765,-0.1313867270946502,-0.4594889283180237,-0.0858525708317756,-0.1674641817808151,0.0,0.0,-0.4458032846450805,-0.653660237789154
-0.0300875660032033,1.2241679430007937,-0.1397483646869659,-0.4752455949783325,-0.0933660492300987,-0.1502833217382431,0.0,0.0,-0.9017348885536194,0.4069001674652099
-0.0315941795706748,1.2131203413009644,-0.1429281383752823,-0.4915048778057098,-0.1010503098368644,-0.1536990702152252,0.0,0.0,-0.6615143418312073,0.4175165891647339
-0.0331330299377441,1.2017080783843994,-0.1459827572107315,-0.5077642798423767,-0.1089068353176117,-0.1571444422006607,0.0,0.0,-0.0246616601943969,0.193560242652893
-0.0347028747200965,1.189931035041809,-0.148910716176033,-0.5240245461463928,-0.1169378235936164,-0.1606341302394867,0.0,0.0,0.5548417568206787,0.1428533792495727
-0.0363645553588867,1.178715467453003,-0.1572961807250976,-0.4991908073425293,-0.1257649213075637,-0.1765579879283905,0.0,0.0,0.0738976001739502,0.9114112854003906
-0.0380383506417274,1.1678078174591064,-0.1565144807100296,-0.4857388138771057,-0.1365863233804702,-0.2164279222488403,0.0,0.0,0.2345012426376342,-0.0781407356262207
-0.0396627411246299,1.1573424339294434,-0.1514151841402053,-0.4661747813224792,-0.1475760489702224,-0.219794824719429,0.0,0.0,-0.3061435222625732,-0.1370190382003784
-0.0413130745291709,1.1465134620666504,-0.1538466513156891,-0.4824371337890625,-0.1587492972612381,-0.223464697599411,0.0,0.0,-0.1007205843925476,-0.4929360151290893
-0.0429880134761333,1.135321021080017,-0.1561460345983505,-0.4986999630928039,-0.170107901096344,-0.2271722555160522,0.0,0.0,-0.5479058027267456,-0.2662838697433471
-0.0446863174438476,1.1237648725509644,-0.158312901854515,-0.5149633288383484,-0.1816537082195282,-0.2309159040451049,0.0,0.0,-0.0283565521240234,-0.5281977653503418
-0.0464455597102642,1.111862063407898,-0.1652749180793762,-0.5303546786308289,-0.192358136177063,-0.2140885889530182,0.0,0.0,-0.1445433497428894,0.0709331035614013
-0.0482255928218364,1.0995956659317017,-0.1671761870384216,-0.5466172695159912,-0.2032531797885894,-0.2179009914398193,0.0,0.0,0.868964433670044,-0.6937516927719116
-0.0499934181571006,1.0883512496948242,-0.1669436991214752,-0.5011337995529175,-0.2131823152303695,-0.1985824853181839,0.0,0.0,-0.405285894870758,-0.5016379952430725
-0.0518228523433208,1.076752543449402,-0.1740299463272094,-0.516816258430481,-0.2221924662590026,-0.1802027225494384,0.0,0.0,0.4362403154373169,0.2683755159378052
-0.0535350814461708,1.0655828714370728,-0.162204161286354,-0.4978176951408386,-0.2313324213027954,-0.1827993690967559,0.0,0.0,-0.8789858818054199,-0.5184227824211121
-0.0553009994328022,1.0540666580200195,-0.168383240699768,-0.5131469964981079,-0.2396522760391235,-0.1663968861103058,0.0,0.0,-0.2836554050445556,-0.643028736114502
-0.057133100926876,1.0422017574310305,-0.1761594265699386,-0.5284940600395203,-0.2468186020851135,-0.1433267146348953,0.0,0.0,0.6454970836639404,-0.8272210359573364
-0.0588143356144428,1.0310896635055542,-0.1626142561435699,-0.4948019981384277,-0.2524381875991821,-0.1123914942145347,0.0,0.0,-0.4169524312019348,-0.7353957295417786
-0.0605659484863281,1.019644260406494,-0.1710136383771896,-0.5094112753868103,-0.2566675841808319,-0.0845877975225448,0.0,0.0,0.745128870010376,-0.0341807603836059
-0.0621363632380962,1.008754014968872,-0.1528371721506118,-0.484745442867279,-0.2609606385231018,-0.0858607217669487,0.0,0.0,-0.1203149557113647,-0.4767326712608337
-0.0637163147330284,0.997499406337738,-0.1535962522029876,-0.5010012984275818,-0.2654564380645752,-0.0899168699979782,0.0,0.0,-0.799270510673523,-0.5361742973327637
-0.0653372779488563,0.9858919382095336,-0.1583473235368728,-0.5165688991546631,-0.2692941725254059,-0.0767544507980346,0.0,0.0,-0.1258217692375183,-0.6919884085655212
-0.067011073231697,0.9739307165145874,-0.1645708829164505,-0.5321301817893982,-0.272168219089508,-0.0574810989201068,0.0,0.0,0.5240013599395752,-0.3455891013145447
-0.0684717148542404,0.9622721672058104,-0.1434751749038696,-0.5186384916305542,-0.2748244106769562,-0.0531240217387676,0.0,0.0,-0.4226471185684204,-0.551646888256073
-0.069983385503292,0.9502615928649902,-0.1495406180620193,-0.5341154336929321,-0.2764996588230133,-0.0335052981972694,0.0,0.0,0.5211021900177002,-0.6866005659103394
-0.0714241042733192,0.9383262991905212,-0.1436665505170822,-0.5305262207984924,-0.2769074141979217,-0.0081551605835556,0.0,0.0,-0.5184404850006104,-0.8303917646408081
-0.0729253739118576,0.9260461926460266,-0.1509990841150283,-0.545624315738678,-0.2760144770145416,0.0178589131683111,0.0,0.0,-0.7299972176551819,-0.632952094078064
-0.0744845420122146,0.9134318232536316,-0.1580817252397537,-0.5602327585220337,-0.273801177740097,0.0442657582461833,0.0,0.0,-0.8578348755836487,-0.471780776977539
-0.0760452300310134,0.9004524946212769,-0.1580202877521515,-0.5764879584312439,-0.2717975080013275,0.0400734134018421,0.0,0.0,-0.0102050900459289,-0.4307574033737182
-0.0776064842939376,0.8871085047721863,-0.1578755527734756,-0.5927430987358093,-0.2700040340423584,0.0358690731227397,0.0,0.0,-0.9184280037879944,-0.6494084596633911
-0.0792051330208778,0.8734151124954224,-0.1623919457197189,-0.6081317067146301,-0.2674192488193512,0.0516956150531768,0.0,0.0,-0.7785460948944092,-0.8163450956344604
-0.0808698683977127,0.8593901991844177,-0.1705693155527115,-0.6225883364677429,-0.2632293403148651,0.0837980657815933,0.0,0.0,-0.8781343102455139,-0.4383903741836548
-0.0825328826904296,0.8450005650520325,-0.1702054142951965,-0.6388444304466248,-0.2592510879039764,0.0795648470520973,0.0,0.0,-0.902660608291626,-0.2610659599304199
-0.0841938033699989,0.8302462697029114,-0.1697788536548614,-0.6551002264022827,-0.2554848492145538,0.0753245055675506,0.0,0.0,-0.8412781953811646,-0.4262208342552185
-0.0858519524335861,0.8151271939277649,-0.1692951917648315,-0.6713559627532959,-0.2519309222698211,0.0710781812667846,0.0,0.0,0.0704027414321899,-0.5790281891822815
-0.087542250752449,0.8001272678375244,-0.173360139131546,-0.6659247875213623,-0.2475221902132034,0.088174894452095,0.0,0.0,-0.5692062377929688,-0.3310228586196899
-0.0892288237810134,0.7847627401351929,-0.1727797091007232,-0.6821807026863098,-0.2433261722326278,0.0839206129312515,0.0,0.0,-0.3491220474243164,-0.5172873735427856
-0.0909414291381836,0.7690469622612,-0.1759699881076812,-0.6977096796035767,-0.2385361194610595,0.0958009287714958,0.0,0.0,-0.2614699602127075,0.3490195274353027
-0.0926494598388671,0.7529664635658264,-0.1753163784742355,-0.7139657735824585,-0.2339589297771453,0.0915440768003463,0.0,0.0,0.1421722173690796,0.110858678817749
-0.0942780524492263,0.7373321056365967,-0.166921317577362,-0.6942169666290283,-0.2298380732536316,0.0824167802929878,0.0,0.0,-0.5930025577545166,-0.0625894665718078
-0.0959015861153602,0.7213329672813416,-0.1662187278270721,-0.7104724049568176,-0.2259299010038375,0.0781633183360099,0.0,0.0,-0.6537267565727234,0.130334734916687
-0.0975201576948165,0.7049692273139954,-0.1655010432004928,-0.7267276644706726,-0.2222342044115066,0.0739138051867485,0.0,0.0,-0.2484196424484253,0.1314170360565185
-0.0991334915161132,0.6882405281066895,-0.1647746860980987,-0.7429827451705933,-0.2187507003545761,0.0696698874235153,0.0,0.0,0.3126285076141357,0.0562058687210083
-0.1006175056099891,0.6718538999557495,-0.151734322309494,-0.7278038859367371,-0.2153924852609634,0.0671648755669593,0.0,0.0,-0.215493619441986,0.1610864400863647
-0.1020965576171875,0.6551024317741394,-0.1510099917650222,-0.7440586686134338,-0.2122456133365631,0.0629372298717498,0.0,0.0,0.7182977199554443,-0.1948189735412597
-0.1035667434334755,0.6389281153678894,-0.1493420898914337,-0.7185303568840027,-0.2099051624536514,0.0468088202178478,0.0,0.0,-0.1820960640907287,0.0481880903244018
-0.1050321608781814,0.6223886609077454,-0.1486459076404571,-0.7347844243049622,-0.2077749222517013,0.0426048189401626,0.0,0.0,0.5390985012054443,-0.002526581287384
-0.1063618659973144,0.6058605313301086,-0.1352211683988571,-0.7342691421508789,-0.2055004239082336,0.0454898849129676,0.0,0.0,0.8166629076004028,-0.2201214432716369
-0.1074664145708084,0.5903366804122925,-0.1126486510038375,-0.6896460056304932,-0.2032971084117889,0.0440662242472171,0.0,0.0,-0.5581753849983215,0.2483952045440673
-0.1085671409964561,0.5744478702545166,-0.1120446920394897,-0.7058999538421631,-0.2013014703989029,0.0399128124117851,0.0,0.0,0.8059501647949219,-0.597280740737915
-0.109667494893074,0.5593306422233582,-0.1127230301499366,-0.6715112924575806,-0.1985917538404464,0.0541942939162254,0.0,0.0,-0.3208545446395874,-0.0133090615272521
-0.1107647866010665,0.5438485145568848,-0.1122141107916832,-0.6877652406692505,-0.1960874646902084,0.0500858724117279,0.0,0.0,0.8825297355651855,-0.4918502569198608
-0.1118160262703895,0.5294598937034607,-0.1067333221435546,-0.6392781138420105,-0.1944663077592849,0.0324233546853065,0.0,0.0,-0.6354866623878479,0.0377986431121826
-0.1128653511404991,0.5147063136100769,-0.1063460484147071,-0.655531644821167,-0.1930478066205978,0.0283703301101923,0.0,0.0,0.099066138267517,-0.2414683699607849
-0.113885685801506,0.4999770820140838,-0.1031356081366539,-0.6544893383979797,-0.1919340938329696,0.0222739540040493,0.0,0.0,0.884310245513916,-0.5052370429039001
-0.1147941574454307,0.4854113161563873,-0.0930035859346389,-0.6470875144004822,-0.1897647976875305,0.0433859601616859,0.0,0.0,0.8839272260665894,-0.0944325923919677
-0.1156653389334678,0.4710608720779419,-0.0889196246862411,-0.6375691294670105,-0.1879595965147018,0.0361039005219936,0.0,0.0,0.9527597427368164,-0.5154176354408264
-0.1164123564958572,0.4577457308769226,-0.077301375567913,-0.5914546251296997,-0.1853436529636383,0.0523185655474662,0.0,0.0,0.3906792402267456,0.3542194366455078
-0.1169688254594802,0.4450592994689941,-0.0583662204444408,-0.5635032653808594,-0.1826091706752777,0.0546899326145648,0.0,0.0,0.6794445514678955,0.3868519067764282
-0.117489717900753,0.4332644641399383,-0.0541042797267437,-0.52397221326828,-0.1805929541587829,0.040324218571186,0.0,0.0,-0.926664650440216,0.0481518507003784
-0.1180150061845779,0.4211044013500213,-0.0543504431843757,-0.5402254462242126,-0.1787647008895874,0.0365650132298469,0.0,0.0,0.6385462284088135,-0.6355025768280029
-0.1184123009443283,0.4097439050674438,-0.0427444465458393,-0.5045512914657593,-0.175743967294693,0.0604147836565971,0.0,0.0,-0.5032021999359131,0.1953556537628173
-0.1188162788748741,0.3980183005332947,-0.0432284250855445,-0.520804762840271,-0.1729051023721695,0.0567772611975669,0.0,0.0,0.1047899723052978,-0.5134299397468567
-0.1192295998334884,0.3866204023361206,-0.0449379608035087,-0.5061581134796143,-0.1692903935909271,0.0722943246364593,0.0,0.0,0.1172397136688232,0.485531210899353
-0.1195802688598632,0.3755586147308349,-0.038474403321743,-0.4912510514259338,-0.1658879220485687,0.0680493116378784,0.0,0.0,0.0981742143630981,0.3998005390167236
-0.1198205947875976,0.3646894693374634,-0.0275225825607776,-0.4826850593090057,-0.1623882055282592,0.0699942782521247,0.0,0.0,-0.3386300802230835,0.3957006931304931
-0.1200727447867393,0.3534553050994873,-0.0285507980734109,-0.4989383816719055,-0.159055083990097,0.0666625052690506,0.0,0.0,0.6383883953094482,0.4701510667800903
-0.1201842278242111,0.3424255549907684,-0.0147449476644396,-0.4898338317871094,-0.1554584354162216,0.0719332247972488,0.0,0.0,0.438205361366272,-0.4853317737579345
-0.1201069802045822,0.3317375481128692,0.0036822340916842,-0.4746066033840179,-0.1514263898134231,0.0806406959891319,0.0,0.0,0.286996841430664,0.189310073852539
-0.1198925003409385,0.3211154341697693,0.0170594807714223,-0.4716534614562988,-0.1470437794923782,0.0876525118947029,0.0,0.0,0.401390790939331,-0.4878735542297363
-0.1196073517203331,0.3110748827457428,0.0242915451526641,-0.4458377659320831,-0.142829418182373,0.0842871144413948,0.0,0.0,-0.5567014217376709,-0.3753755688667297
-0.1193417534232139,0.3006691336631775,0.0224714092910289,-0.4620909392833709,-0.1387549489736557,0.0814890712499618,0.0,0.0,-0.1699682474136352,0.0222669839859008
-0.119097426533699,0.2898982465267181,0.0204807072877883,-0.4783438742160797,-0.1348138600587844,0.0788219720125198,0.0,0.0,0.3849049806594848,-0.4031263589859009
-0.1187553405761718,0.2791518867015838,0.0299797113984823,-0.4772418141365051,-0.1306080818176269,0.0841156169772148,0.0,0.0,0.5848703384399414,0.1212084293365478
-0.1184242218732833,0.2687766551971435,0.0292382985353469,-0.4607879519462585,-0.1267544031143188,0.0770735517144203,0.0,0.0,0.2652673721313476,-0.1335381269454956
-0.1179716140031814,0.259007066488266,0.0412008203566074,-0.4338645935058594,-0.1227119341492652,0.0808492749929428,0.0,0.0,-0.2610025405883789,-0.490372896194458
-0.1175469383597374,0.2488721758127212,0.0384978130459785,-0.4501170814037323,-0.1187720894813537,0.0787970274686813,0.0,0.0,0.4537016153335571,0.0290224552154541
-0.1171779632568359,0.2394340187311172,0.0335447415709495,-0.4192097783088684,-0.115432471036911,0.0667922347784042,0.0,0.0,-0.3290636539459228,-0.31476891040802
-0.1168404594063758,0.2296305745840072,0.0304727908223867,-0.4354615211486816,-0.112177237868309,0.065104492008686,0.0,0.0,-0.2905698418617248,-0.2488801479339599
-0.11653633415699,0.2194616347551345,0.0272144563496112,-0.4517131447792053,-0.1089965924620628,0.0636131763458252,0.0,0.0,0.56427001953125,-0.1876006126403808
-0.1162679642438888,0.2099972367286682,0.0240619126707315,-0.4204390347003937,-0.1062425896525383,0.055080123245716,0.0,0.0,0.1093984842300415,-0.4208331108093261
-0.1160176247358322,0.2006688714027404,0.0223930664360523,-0.4144110381603241,-0.1036194562911987,0.0524628870189189,0.0,0.0,-0.0899875164031982,-0.6712885499000549
-0.1158688515424728,0.1909855157136917,0.0106629086658358,-0.4300836324691772,-0.0994405820965766,0.0835771486163139,0.0,0.0,0.2348324060440063,0.8393435478210449
-0.1157840713858604,0.181528553366661,0.0060852388851344,-0.4201548993587494,-0.0970689952373504,0.0474318526685237,0.0,0.0,0.0584026575088501,-0.047565221786499
-0.1156292930245399,0.1723833680152893,0.0127927465364336,-0.406277060508728,-0.0944027304649353,0.0533251166343688,0.0,0.0,-0.2470839023590088,-0.1352961063385009
-0.1155183762311935,0.1628727465867996,0.0084146857261657,-0.4225277602672577,-0.0917436331510543,0.0531815774738788,0.0,0.0,0.3966367244720459,0.0065760612487792
-0.1152717620134353,0.1539430767297744,0.021402483806014,-0.3966772258281708,-0.0885122641921043,0.0646270960569381,0.0,0.0,0.3893705606460571,0.3769228458404541
-0.1150339096784591,0.145625501871109,0.0206040777266025,-0.3694836497306824,-0.0853524357080459,0.0631965771317482,0.0,0.0,-0.4654697179794311,0.353790283203125
-0.1148448958992958,0.136942371726036,0.0156823452562093,-0.385734349489212,-0.0821626260876655,0.0637958347797393,0.0,0.0,0.4745502471923828,0.6731593608856201
-0.1145362854003906,0.1286513358354568,0.0288062151521444,-0.3683784604072571,-0.0801263377070427,0.0407259613275527,0.0,0.0,0.2790162563323974,0.1717644929885864
-0.1142347306013107,0.1209403872489929,0.0280655119568109,-0.3425965905189514,-0.0780610144138336,0.0413065627217292,0.0,0.0,0.0949110984802246,-0.0844253897666931
-0.1139061003923416,0.1136397719383239,0.0305157899856567,-0.3243556618690491,-0.0757425874471664,0.0463685467839241,0.0,0.0,0.1410584449768066,0.0742733478546142
-0.1135533303022384,0.1064407229423523,0.0325929559767246,-0.3198235630989074,-0.0730874985456466,0.0531016588211059,0.0,0.0,0.6850851774215698,-0.3167519569396972
-0.1133357062935829,0.0998331159353256,0.0195686630904674,-0.2935644388198852,-0.0709184259176254,0.0433816388249397,0.0,0.0,0.3040568828582763,0.9551012516021729
-0.1131895035505294,0.0934697687625885,0.0143165811896324,-0.2828026711940765,-0.0706125199794769,0.0061178440228104,0.0,0.0,-0.0561879277229309,0.8203935623168945
-0.1130405440926551,0.0867335647344589,0.0160632636398077,-0.2994424402713775,-0.0717681795358657,-0.0231131743639707,0.0,0.0,0.724886417388916,0.657606840133667
-0.1128316894173622,0.0804549753665924,0.0231865886598825,-0.279161274433136,-0.07404026389122,-0.045441810041666,0.0,0.0,0.1012052297592163,0.2218813896179199
-0.1125807762145996,0.0741595104336738,0.0268499106168746,-0.279884934425354,-0.07577496021986,-0.0346939340233802,0.0,0.0,0.652209997177124,0.7330582141876221
-0.112177275121212,0.0685057044029235,0.0432156547904014,-0.2514291703701019,-0.0786095932126045,-0.0566930770874023,0.0,0.0,0.005599021911621,0.6041710376739502
-0.1117350608110427,0.0632185339927673,0.0481181442737579,-0.2351947277784347,-0.0824716687202453,-0.0772412866353988,0.0,0.0,0.0606567859649658,-0.1455712914466858
