x_pos,y_pos,x_vel,y_vel,angle,ang_vel,leg_1,leg_2,main_booster,lat_booster
-0.0016427993541583,1.403221607208252,-0.1657995581626892,-0.3421522080898285,0.0013537306804209,0.0266734696924686,0.0,0.0,-0.3660658597946167,0.3735105991363525
-0.0034040450118482,1.3951435089111328,-0.1769656538963318,-0.3590260148048401,0.0021809886675328,0.0165474079549312,0.0,0.0,0.2959903478622436,0.8643553256988525
-0.0050947191193699,1.387131929397583,-0.1678101271390915,-0.3560731112957001,0.0009379630791954,-0.0248629860579967,0.0,0.0,0.2055445909500122,0.5755906105041504
-0.006950759794563,1.3792622089385986,-0.1825178414583206,-0.3497617542743683,-0.0021154801361262,-0.0610748156905174,0.0,0.0,0.5656747817993164,0.5127675533294678
-0.0087466239929199,1.371917963027954,-0.1753694713115692,-0.3264213800430298,-0.0062886076048016,-0.0834698900580406,0.0,0.0,-0.5734927654266357,0.1909561157226562
-0.0106526371091604,1.364171266555786,-0.1859137415885925,-0.3443295359611511,-0.0109300324693322,-0.0928368419408798,0.0,0.0,-0.3211447596549988,0.2821524143218994
-0.0126666072756052,1.3560220003128052,-0.1962367594242096,-0.3622295260429382,-0.0160332582890987,-0.1020740047097206,0.0,0.0,-0.3935165405273437,0.8367888927459717
-0.0147039415314793,1.3474712371826172,-0.1960158199071884,-0.3801350593566894,-0.0236587058752775,-0.1525230705738067,0.0,0.0,-0.7436800599098206,0.4341268539428711
-0.0168440826237201,1.3385188579559326,-0.2058552056550979,-0.3980412781238556,-0.0317312367260456,-0.1614654809236526,0.0,0.0,-0.2773348093032837,0.915302038192749
-0.0190123561769723,1.329167127609253,-0.2063983678817749,-0.4158859848976135,-0.0420557148754596,-0.2065087556838989,0.0,0.0,-0.7677006125450134,0.7092353105545044
-0.0212142951786518,1.319411039352417,-0.2077006846666336,-0.4339991509914398,-0.0544192232191562,-0.2472925633192062,0.0,0.0,-0.5628126859664917,0.8430471420288086
-0.0234366413205862,1.3092472553253174,-0.2074328362941742,-0.4523290991783142,-0.0690758377313613,-0.293159544467926,0.0,0.0,-0.413754940032959,0.0315208435058593
-0.0257502552121877,1.2986841201782229,-0.2161606252193451,-0.4702495336532593,-0.0841482505202293,-0.3014759421348572,0.0,0.0,-0.0955293774604797,0.468295693397522
-0.0281520839780569,1.2877215147018433,-0.2245848625898361,-0.4881720542907715,-0.0996287167072296,-0.3096376359462738,0.0,0.0,-0.4441903829574585,0.8260143995285034
-0.0305580142885446,1.2763571739196775,-0.2225996255874633,-0.5063879489898682,-0.1175318881869316,-0.3580962717533111,0.0,0.0,-0.2540878057479858,-0.1051150560379028
-0.0330453887581825,1.264594793319702,-0.2303763926029205,-0.5243201851844788,-0.1358232349157333,-0.3658604025840759,0.0,0.0,-0.5947237610816956,-0.6682717800140381
-0.0356500633060932,1.252450466156006,-0.2428048551082611,-0.5414512157440186,-0.1534626483917236,-0.3528207242488861,0.0,0.0,-0.4175904989242553,-0.5877031683921814
-0.0383645072579383,1.2399110794067385,-0.2543445825576782,-0.5591522455215454,-0.1705784350633621,-0.3423468768596649,0.0,0.0,-0.7702518701553345,-0.943739652633667
-0.0412097945809364,1.2269980907440186,-0.268713891506195,-0.5758078694343567,-0.1864645779132843,-0.3177519142627716,0.0,0.0,-0.6394354701042175,-0.1652183532714843
-0.0441218391060829,1.213686466217041,-0.2750884890556335,-0.5937395691871643,-0.2027000486850738,-0.3247388005256653,0.0,0.0,-0.5810536742210388,-0.6723036170005798
-0.0471369735896587,1.199993371963501,-0.2861679196357727,-0.610754132270813,-0.2182052731513977,-0.3101329207420349,0.0,0.0,0.1816734075546264,-0.9138104915618896
-0.050204087048769,1.1863797903060913,-0.2929047048091888,-0.6071458458900452,-0.2321997433900833,-0.2799144387245178,0.0,0.0,-0.0974985361099243,-0.8302538394927979
-0.0533762946724891,1.1723833084106443,-0.3044414818286896,-0.6241365075111389,-0.2451976537704467,-0.2599813342094421,0.0,0.0,0.0087422132492065,-0.4507962465286255
-0.0565116889774799,1.158248782157898,-0.3007023334503174,-0.6303930282592773,-0.2583000659942627,-0.2620716989040375,0.0,0.0,0.666053056716919,-0.8831861615180969
-0.0597492232918739,1.1447458267211914,-0.3121900856494903,-0.6022153496742249,-0.2701461315155029,-0.2369429171085357,0.0,0.0,0.2520511150360107,-0.9037852883338928
-0.0630818381905555,1.1316773891448977,-0.3231655657291412,-0.5827178955078125,-0.2805024087429046,-0.2071248590946197,0.0,0.0,0.3798675537109375,-0.8870976567268372
-0.0663479790091514,1.1191158294677734,-0.3180346488952636,-0.5599680542945862,-0.2893157005310058,-0.1762659698724746,0.0,0.0,0.3339202404022217,-0.440360963344574
-0.0695595741271972,1.1071566343307495,-0.3118951618671417,-0.5333917140960693,-0.2988690733909607,-0.1910676062107086,0.0,0.0,-0.0520800352096557,-0.8539409637451172
-0.0728781670331955,1.094839334487915,-0.3244444727897644,-0.5489787459373474,-0.3065400421619415,-0.1534195393323898,0.0,0.0,0.0513405799865722,-0.7167932391166687
-0.0761981979012489,1.0825945138931274,-0.3257845342159271,-0.5455440878868103,-0.3129891157150268,-0.1289814114570617,0.0,0.0,0.6310811042785645,0.1758642196655273
-0.0792652145028114,1.0711325407028198,-0.3003685474395752,-0.5107986330986023,-0.3195622861385345,-0.1314633935689926,0.0,0.0,-0.3608142137527466,-0.7593663930892944
-0.0824148207902908,1.059296727180481,-0.3101387619972229,-0.5271098017692566,-0.3245855271816253,-0.1004642471671104,0.0,0.0,-0.1890420913696289,-0.5918993949890137
-0.085626982152462,1.0470898151397705,-0.317544013261795,-0.54336017370224,-0.3284082114696502,-0.0764539018273353,0.0,0.0,-0.1954932212829589,-0.3825569152832031
-0.0888483971357345,1.0344809293746948,-0.3183282315731048,-0.5612655878067017,-0.3323957324028015,-0.0797501727938652,0.0,0.0,0.5071506500244141,0.3037097454071045
-0.0918744057416915,1.0222742557525637,-0.2987090647220611,-0.54342120885849,-0.3364641666412353,-0.0813687369227409,0.0,0.0,0.780570387840271,-0.7792732119560242
-0.0946688652038574,1.0108449459075928,-0.276994526386261,-0.5085441470146179,-0.3390234708786011,-0.0511858090758323,0.0,0.0,0.3372384309768677,0.138645052909851
-0.0973580330610275,0.9995454549789428,-0.2662689387798309,-0.5028293132781982,-0.3417998552322387,-0.0555277466773986,0.0,0.0,0.5463166236877441,0.5107133388519287
-0.0997271537780761,0.988814890384674,-0.2332664728164672,-0.4777840673923492,-0.3456223309040069,-0.076449453830719,0.0,0.0,0.7880294322967529,-0.4603186845779419
-0.1018170341849327,0.9789907336235046,-0.2050765007734298,-0.437572568655014,-0.3497298657894134,-0.0821512266993522,0.0,0.0,0.163745641708374,-0.6836828589439392
-0.1037754043936729,0.9693846702575684,-0.1932187378406524,-0.4275768399238586,-0.3524812459945678,-0.0550273545086383,0.0,0.0,0.5585645437240601,-0.6922556161880493
-0.105615809559822,0.9605008959770204,-0.1825267970561981,-0.3952045440673828,-0.3540777266025543,-0.0319290459156036,0.0,0.0,0.063706636428833,-0.5074176788330078
-0.1072737723588943,0.951663076877594,-0.1653790324926376,-0.3929019570350647,-0.3545229732990265,-0.0089049041271209,0.0,0.0,0.8862906694412231,-0.8791303634643555
-0.1087358444929122,0.9428894519805908,-0.1476625651121139,-0.389573186635971,-0.3529816567897796,0.0308260731399059,0.0,0.0,0.3873157501220703,-0.7907735109329224
-0.1099875420331955,0.9343203902244568,-0.1282790750265121,-0.3800922036170959,-0.349715381860733,0.0653262734413147,0.0,0.0,0.4874964952468872,-0.6920824646949768
-0.111208438873291,0.9257632493972778,-0.1264799535274505,-0.3792557716369629,-0.3451123833656311,0.0920601114630699,0.0,0.0,0.4901208877563476,-0.5131468176841736
-0.1122908592224121,0.9172220826148988,-0.1137554198503494,-0.3782968819141388,-0.339337944984436,0.1154890432953834,0.0,0.0,0.612412691116333,-0.4503591060638428
-0.113135240972042,0.908865749835968,-0.0902495980262756,-0.3700398504734039,-0.3332597911357879,0.1215632185339927,0.0,0.0,0.1385486125946045,-0.4139341115951538
-0.1138253211975097,0.9009594321250916,-0.0745289698243141,-0.3501334190368652,-0.3274983763694763,0.1152282953262329,0.0,0.0,0.1969673633575439,-0.384985089302063
-0.1143805533647537,0.8935077786445618,-0.0606834106147289,-0.3300260603427887,-0.3221271932125091,0.1074236780405044,0.0,0.0,-0.3767677545547485,-0.2840214967727661
-0.1148912459611892,0.8856534361839294,-0.0562930703163147,-0.3479263186454773,-0.3166891634464264,0.1087603941559791,0.0,0.0,-0.1364225149154663,0.0658161640167236
-0.1153548210859298,0.8773963451385498,-0.0516751781105995,-0.3658263087272644,-0.3111722469329834,0.1103380769491195,0.0,0.0,-0.7013257145881653,-0.6675889492034912
-0.1158229857683181,0.868767499923706,-0.0536691546440124,-0.3820542693138122,-0.3040696382522583,0.1420519053936004,0.0,0.0,-0.476858377456665,0.6404001712799072
-0.1161835640668869,0.8597058057785034,-0.0415299572050571,-0.4016074240207672,-0.2984094023704529,0.1132044345140457,0.0,0.0,-0.7235947251319885,-0.1234731674194336
-0.1164906471967697,0.8502413630485535,-0.0362998321652412,-0.4195069670677185,-0.2926367521286011,0.1154533997178077,0.0,0.0,-0.8999842405319214,0.0069618225097656
-0.116742230951786,0.8403741717338562,-0.0308886226266622,-0.4374064207077026,-0.2867412865161896,0.1179085820913314,0.0,0.0,-0.5905469655990601,-0.0744882822036743
-0.1169367805123329,0.8301042318344116,-0.0253075323998928,-0.4553058445453644,-0.2807132303714752,0.1205610036849975,0.0,0.0,-0.8612548112869263,-0.4703094959259033
-0.1170722991228103,0.8194313049316406,-0.0195675659924745,-0.4732051789760589,-0.2745431661605835,0.1234015822410583,0.0,0.0,-0.9388155341148376,-0.2817822694778442
-0.1171473488211631,0.8083557486534119,-0.0136795118451118,-0.4911045432090759,-0.2682220935821533,0.1264214068651199,0.0,0.0,-0.9714773893356324,-0.575982391834259
-0.1171977967023849,0.7968990206718445,-0.0123822912573814,-0.5078641176223755,-0.2607141733169555,0.1501581668853759,0.0,0.0,-0.9328946471214294,0.1763409376144409
-0.1171848326921463,0.7850395441055298,-0.0062300590798258,-0.5257647633552551,-0.2530387043952942,0.1535090953111648,0.0,0.0,-0.9835203886032104,-0.0068979859352111
-0.1171073913574218,0.7727777361869812,3.918447328032926e-05,-0.5436656475067139,-0.2451881021261215,0.1570122987031936,0.0,0.0,-0.945644199848175,0.3439860343933105
-0.1169641464948654,0.7601132988929749,0.0064155152067542,-0.5615666508674622,-0.2371550947427749,0.1606601327657699,0.0,0.0,-0.973693072795868,0.6611406803131104
-0.1166934967041015,0.7470223903656006,0.0205561090260744,-0.5807796716690063,-0.2305418998003006,0.1322636902332306,0.0,0.0,-0.9820723533630372,0.2040921449661255
-0.1163550391793251,0.7335287928581238,0.027118420228362,-0.59867924451828,-0.2237332761287689,0.1361727267503738,0.0,0.0,-0.961043119430542,0.0795345306396484
-0.1159481033682823,0.7196326851844788,0.0337593331933021,-0.616578996181488,-0.2167232632637024,0.1402002424001693,0.0,0.0,-0.9755606055259703,-0.0973127484321594
-0.1154719367623329,0.7053337097167969,0.0404697582125663,-0.6344789862632751,-0.2095063775777816,0.1443381458520889,0.0,0.0,-0.9003159999847412,-0.5142512917518616
-0.1149632483720779,0.690650224685669,0.0425056889653205,-0.6514355540275574,-0.2010756433010101,0.1686147302389145,0.0,0.0,-0.8716962933540344,0.2365649938583374
-0.1143841743469238,0.6755643486976624,0.04932826384902,-0.6693374514579773,-0.192428171634674,0.1729491055011749,0.0,0.0,-0.836848795413971,0.1689684391021728
-0.1137341484427452,0.6600763201713562,0.0561942458152771,-0.6872397065162659,-0.1835596263408661,0.1773701757192611,0.0,0.0,-0.7676572203636169,0.5508967638015747
-0.1129767447710037,0.6441736221313477,0.0676051750779151,-0.7058092951774597,-0.1754001230001449,0.1631897240877151,0.0,0.0,-0.3679955005645752,0.1619491577148437
-0.1121477112174034,0.6278683543205261,0.0745334401726722,-0.7237111330032349,-0.1670120060443878,0.1677621603012085,0.0,0.0,0.0427161455154418,0.6213696002960205
-0.1111112609505653,0.6117250323295593,0.0962453335523605,-0.7166649699211121,-0.1596098244190216,0.1480437666177749,0.0,0.0,-0.3137093782424927,-0.069520354270935
-0.110002800822258,0.5951793193817139,0.1032037287950515,-0.7345659732818604,-0.1519728600978851,0.1527391672134399,0.0,0.0,-0.1316310167312622,0.0775141716003418
-0.108822152018547,0.578231155872345,0.1101652756333351,-0.7524675130844116,-0.1440985798835754,0.1574855893850326,0.0,0.0,-0.1668430566787719,-0.2033730745315551
-0.1075695976614952,0.5608806610107422,0.1171223521232605,-0.7703694701194763,-0.1359847784042358,0.1622762829065323,0.0,0.0,0.1053839921951294,-0.5743552446365356
-0.1062109023332595,0.543444037437439,0.126245692372322,-0.7741087675094604,-0.1264039874076843,0.1916159689426422,0.0,0.0,0.2493804693222046,-0.3401526212692261
-0.1047718077898025,0.5259919762611389,0.1341483891010284,-0.7748464941978455,-0.1166907548904419,0.1942643225193023,0.0,0.0,-0.1355150938034057,-0.728111743927002
-0.1033184975385665,0.5081550478935242,0.1338171809911728,-0.7918922305107117,-0.1052574142813682,0.228667140007019,0.0,0.0,0.0144461393356323,0.0550389289855957
-0.1016923934221267,0.4906562268733978,0.1506045907735824,-0.7769203186035156,-0.093351662158966,0.2381151616573333,0.0,0.0,0.4164084196090698,0.3702530860900879
-0.100025936961174,0.4738161563873291,0.1548327058553695,-0.7477492094039917,-0.0816451832652092,0.234129399061203,0.0,0.0,0.6602416038513184,0.2747308015823364
-0.0983915328979492,0.4570884108543396,0.151973158121109,-0.7428687810897827,-0.0702941045165062,0.2270214557647705,0.0,0.0,0.3742218017578125,-0.1141095757484436
-0.0966076850891113,0.440939724445343,0.1665060520172119,-0.7172010540962219,-0.058541752398014,0.2350469827651977,0.0,0.0,0.1259660720825195,0.2889738082885742
-0.0948005691170692,0.4249833822250366,0.1688922345638275,-0.7087510824203491,-0.0468630157411098,0.2335749119520187,0.0,0.0,0.5744485855102539,0.4731537103652954
-0.0929469093680381,0.4095974266529083,0.1735396683216095,-0.6834900975227356,-0.0351806171238422,0.2336480319499969,0.0,0.0,0.5712530612945557,0.7040737867355347
-0.0909588783979415,0.3948084414005279,0.1881730854511261,-0.6570680141448975,-0.024678660556674,0.2100391089916229,0.0,0.0,-0.328557014465332,0.2891829013824463
-0.0889040008187294,0.3796181976795196,0.1946114003658294,-0.6749764084815979,-0.0139332832768559,0.2149073630571365,0.0,0.0,0.7044072151184082,0.5944839715957642
-0.0867048278450965,0.364548772573471,0.2099157571792602,-0.6696845889091492,-0.0040618046186864,0.1974293738603592,0.0,0.0,0.7056089639663696,-0.2947473526000976
-0.0843432396650314,0.3497009873390198,0.2254721820354461,-0.6599054932594299,0.0064931381493806,0.2110987603664398,0.0,0.0,0.3120057582855224,-0.4908945560455322
-0.0818037018179893,0.3351333737373352,0.242474153637886,-0.6475347876548767,0.017827108502388,0.2266793698072433,0.0,0.0,0.615424633026123,-0.3969312906265259
-0.0790719017386436,0.3207469284534454,0.2608314752578735,-0.6395867466926575,0.0300280135124921,0.2440180331468582,0.0,0.0,0.7562233209609985,0.0682464838027954
-0.0763082504272461,0.3071570098400116,0.2638053297996521,-0.6042953133583069,0.0424350909888744,0.2481416910886764,0.0,0.0,0.5484278202056885,-0.187605082988739
-0.0734850913286209,0.2942338287830353,0.2693798840045929,-0.5747774243354797,0.0552077032625675,0.2554524540901184,0.0,0.0,0.3215670585632324,-0.1237308979034423
-0.0705327987670898,0.2817177772521972,0.2816228866577148,-0.5568234920501709,0.06866966933012,0.2692392468452453,0.0,0.0,-0.2633014917373657,-0.0557464361190795
-0.0675225257873535,0.2688017785549164,0.2872006893157959,-0.5747396945953369,0.0823570489883422,0.2737473547458648,0.0,0.0,0.4784414768218994,0.009337306022644
-0.0645401030778884,0.2561610639095306,0.284432590007782,-0.5626252889633179,0.0960490107536315,0.2738392353057861,0.0,0.0,0.6014575958251953,0.3207525014877319
-0.0615010261535644,0.2443809360265731,0.2895073592662811,-0.5245447754859924,0.1103389486670494,0.2857989072799682,0.0,0.0,0.1479567289352417,0.1941413879394531
-0.0584679618477821,0.2327881455421447,0.2887866795063019,-0.5163735151290894,0.1247686669230461,0.2885939180850982,0.0,0.0,0.5530872344970703,0.5861086845397949
-0.0555560104548931,0.2218987345695495,0.2779793739318847,-0.4851314723491668,0.1379370838403701,0.2633684575557709,0.0,0.0,0.0394233465194702,0.0142548084259033
-0.0525995269417762,0.2112729698419571,0.2819845080375671,-0.4735778570175171,0.1515652984380722,0.2725641429424286,0.0,0.0,0.1010923385620117,0.2202749252319336
-0.0497049316763877,0.2009806483983993,0.2757912278175354,-0.4588845372200012,0.1652305573225021,0.2733049690723419,0.0,0.0,0.1196626424789428,0.5754644870758057
-0.0468635559082031,0.1910391002893448,0.2715519666671753,-0.4432964026927948,0.1778372377157211,0.2521333694458008,0.0,0.0,-0.4655386209487915,0.1602259874343872
-0.0439765937626361,0.180697351694107,0.2759489417076111,-0.4612121284008026,0.1906365305185318,0.2559855580329895,0.0,0.0,0.303004503250122,0.1140859127044677
-0.0412260070443153,0.1706279069185257,0.2625847458839416,-0.4491879343986511,0.2031978368759155,0.2512261569499969,0.0,0.0,0.1664166450500488,0.0476497411727905
-0.038611888885498,0.1606693416833877,0.2492715567350387,-0.4443216025829315,0.2154501378536224,0.2450461685657501,0.0,0.0,-0.2625424861907959,0.2105389833450317
-0.0359573364257812,0.1503105014562606,0.2531672120094299,-0.4622368514537811,0.227879449725151,0.2485862970352172,0.0,0.0,0.4220286607742309,0.8087831735610962
-0.0332148559391498,0.1400500833988189,0.2633496522903442,-0.4577421247959137,0.2389339655637741,0.2210902273654937,0.0,0.0,0.6854647397994995,0.6333861351013184
-0.0304165836423635,0.130602553486824,0.2696940302848816,-0.4215714335441589,0.2492485344409942,0.2062909603118896,0.0,0.0,-0.0582137107849121,-0.4212383031845093
-0.0275832172483205,0.1207542046904563,0.2730682790279388,-0.4394831657409668,0.259723037481308,0.2094896137714386,0.0,0.0,0.628312349319458,-0.2388571500778198
-0.0247970577329397,0.1117801740765571,0.2675956189632416,-0.4008373916149139,0.2710019648075104,0.2255783975124359,0.0,0.0,-0.1082608103752136,-0.04183030128479
-0.02197952196002,0.1024056747555732,0.2706179916858673,-0.4187507033348083,0.2824286818504333,0.228534385561943,0.0,0.0,0.3397773504257202,-0.3646473288536072
-0.01932268217206,0.0935819968581199,0.2544781863689422,-0.3943755328655243,0.2939699292182922,0.2308252602815628,0.0,0.0,0.4856945276260376,-0.5446140766143799
-0.0168291088193655,0.0853862389922142,0.2368559539318084,-0.366830438375473,0.3068894445896148,0.2583905458450317,0.0,0.0,0.4846243858337402,-0.300338864326477
-0.0143652912229299,0.0774124264717102,0.2334838211536407,-0.3571735024452209,0.3202726542949676,0.2676641643047333,0.0,0.0,-0.2106568813323974,-0.2956855297088623
-0.0118776317685842,0.0690387114882469,0.2358029335737228,-0.3750907778739929,0.3337781429290771,0.2701097130775451,0.0,0.0,0.8931081295013428,0.3975999355316162
-0.0097002033144235,0.061028491705656,0.2053800821304321,-0.358917087316513,0.3467190861701965,0.2588187754154205,0.0,0.0,0.8380348682403564,0.0074020624160766
-0.0077382088638842,0.0534907691180706,0.1838949173688888,-0.338027685880661,0.3596583604812622,0.2587857544422149,0.0,0.0,0.7641546726226807,0.6852068901062012
-0.0058794976212084,0.0463955737650394,0.1748028248548507,-0.3181642889976501,0.3713619709014892,0.2340724021196365,0.0,0.0,0.7990858554840088,0.516878604888916
-0.0039663314819335,0.0395469292998313,0.1807961761951446,-0.3071555197238922,0.3825306892395019,0.2233744859695434,0.0,0.0,0.723536491394043,0.5160913467407227
-0.0021288872230798,0.0346399880945682,0.1900454759597778,-0.2163943946361541,0.3759274780750274,-0.1319420039653778,0.0,1.0,0.997369647026062,0.9388526678085328
-0.0006579399341717,0.0316425673663616,0.172059416770935,-0.1269884407520294,0.3489949703216553,-0.5394313931465149,0.0,1.0,0.9366018772125244,-0.7947445511817932
0.0006319999811239,0.0294470880180597,0.1665176898241043,-0.0889723375439643,0.3097902238368988,-0.7841254472732544,0.0,1.0,0.8228484392166138,-0.931523323059082
