x_pos,y_pos,x_vel,y_vel,angle,ang_vel,leg_1,leg_2,main_booster,lat_booster
-0.0014744758373126,1.403346061706543,-0.1500013172626495,-0.3366262316703796,0.0022914479486644,0.045240294188261,0.0,0.0,0.5072505282940771,0.997235473176847
-0.0027658462058752,1.3961435556411743,-0.1300145089626312,-0.320112019777298,0.0031563285738229,0.0173000209033489,0.0,0.0,-0.7731334280174313,-0.8546052317931361
-0.0040557859465479,1.388655662536621,-0.1317377388477325,-0.3328062295913696,0.0058736447244882,0.0543511696159839,0.0,0.0,-0.3292377040926317,-0.756520166856904
-0.0053610801696777,1.380886435508728,-0.1356212496757507,-0.3453281223773956,0.0109100872650742,0.1007381826639175,0.0,0.0,-0.5557608635754157,-0.8524048095320217
-0.0066612241789698,1.372841238975525,-0.1369805186986923,-0.3576352894306183,0.0177927110344171,0.1376653313636779,0.0,0.0,0.9360144537242348,0.6172399798510124
-0.0076924324966967,1.3654775619506836,-0.1098669916391372,-0.3273621797561645,0.0244568306952714,0.1332950294017791,0.0,0.0,-0.4551523097250805,0.893674950721324
-0.0085942270234227,1.3578386306762695,-0.0957009866833686,-0.3396109342575073,0.0299221966415643,0.1093174666166305,0.0,0.0,0.625762721966235,0.9444317128910183
-0.0092114452272653,1.3508899211883545,-0.0661026835441589,-0.3089286983013153,0.0342507734894752,0.0865795686841011,0.0,0.0,-0.7221428499205416,-0.8181402647572801
-0.0098287584260106,1.3436686992645264,-0.0682685747742652,-0.3211083114147186,0.0407186150550842,0.1293689012527465,0.0,0.0,-0.1648589116710688,-0.8337280279116552
-0.010444164276123,1.336171269416809,-0.0702381432056427,-0.3334786295890808,0.0493167079985141,0.1719775795936584,0.0,0.0,-0.0826597848296777,-0.9798196455811108
-0.0110563281923532,1.328392505645752,-0.072052963078022,-0.3461045324802398,0.0600470080971717,0.2146258056163787,0.0,0.0,0.8893696283788575,-0.8575925547439662
-0.011612320318818,1.3212425708770752,-0.0687882676720619,-0.3183604180812835,0.0731193050742149,0.2614699900150299,0.0,0.0,-0.4511691822499672,0.872643351058717
-0.0120120998471975,1.313829779624939,-0.0514912530779838,-0.3300508856773376,0.0845297127962112,0.2282291203737259,0.0,0.0,0.5946138089595416,-0.9919209969588378
-0.0123682972043752,1.306644320487976,-0.0496274940669536,-0.3202075362205505,0.0984401777386665,0.2782346606254577,0.0,0.0,-0.787868938453024,-0.7929180488722969
-0.012696361169219,1.2991849184036257,-0.0484502762556076,-0.3326382040977478,0.1139791533350944,0.3108076453208923,0.0,0.0,-0.3666553057976762,-0.7844162264704473
-0.0129963876679539,1.2914334535598757,-0.0473087839782238,-0.3459259271621704,0.1312130540609359,0.3447096943855285,0.0,0.0,-0.3244668589607746,0.9620954226281688
-0.0131258964538574,1.2834370136260986,-0.0282476879656314,-0.3568171560764313,0.1464868038892746,0.3055024743080139,0.0,0.0,-0.9190710067498916,0.6197244037680457
-0.0131139755249023,1.2751737833023071,-0.0129637690261006,-0.3687120378017425,0.1606254875659942,0.2828000485897064,0.0,0.0,-0.9795501419137196,0.6939251821360396
-0.0129579547792673,1.2666569948196411,0.0027359935920685,-0.3799721300601959,0.1735284328460693,0.2580827176570892,0.0,0.0,0.6176546253661572,0.6371496825208365
-0.012848568148911,1.2586736679077148,-0.0008052258635871,-0.3562301397323608,0.1853245198726654,0.2359432429075241,0.0,0.0,-0.5038326333005316,-0.7275409938934085
-0.0126991271972656,1.250407338142395,0.001738921389915,-0.369098961353302,0.1986209601163864,0.265952467918396,0.0,0.0,-0.8732412585728266,0.8843953329259906
-0.0123929027467966,1.2418816089630127,0.0189088322222232,-0.3805376887321472,0.2104510217905044,0.2366226613521576,0.0,0.0,-0.0511688523897644,0.650400813180377
-0.0119377132505178,1.2330986261367798,0.0350733548402786,-0.39188152551651,0.2210215032100677,0.2114284485578537,0.0,0.0,0.8793476033722949,-0.7385618501088802
-0.0114428522065281,1.2245606184005735,0.0370912477374076,-0.3813759386539459,0.2335967719554901,0.251527726650238,0.0,0.0,-0.2215168390272799,0.8631511353682498
-0.0108078001067042,1.2157671451568604,0.0521659739315509,-0.3926655352115631,0.245139867067337,0.2308828085660934,0.0,0.0,0.8309953087346313,-0.7648552172944322
-0.0104974750429391,1.2077302932739258,0.0182855650782585,-0.3593637347221374,0.2581400573253631,0.2600029408931732,0.0,0.0,0.598007008771366,0.6343626555939669
-999.0,1.200461745262146,0.0157672800123691,-0.3251561820507049,0.2701383531093597,0.2399659901857376,0.0,0.0,-0.432163641492145,-0.9501492611566812
-0.0099436761811375,1.1928911209106443,0.0136449839919805,-0.3391686379909515,0.2847330272197723,0.2918936908245086,0.0,0.0,-0.2853775357506658,0.947384119567548
-0.0095163341611623,1.185077428817749,0.0298058483749628,-0.3498510122299194,0.2980630695819855,0.2666006088256836,0.0,0.0,-0.7317612128074455,-0.8199880099568574
-0.0090571399778127,1.1769566535949707,0.0311366822570562,-0.3640270233154297,0.3133583664894104,0.3059061169624328,0.0,0.0,-0.4644480190811004,-0.7676315585456449
-0.008559894748032,1.168542742729187,0.0333568528294563,-0.3775778710842132,0.3303833603858948,0.3405006825923919,0.0,0.0,0.1232420970001562,-0.7604569166381806
-0.0081760408356785,1.1602153778076172,0.0204671025276184,-0.37431401014328,0.3491330146789551,0.3749929070472717,0.0,0.0,-0.9451229131833884,-0.7436780889937145
-0.0077597619965672,1.1515876054763794,0.0220190547406673,-0.3883459270000458,0.3698040246963501,0.4134194850921631,0.0,0.0,-0.9323533094831562,0.8169902840656214
-0.0071908952668309,1.1427117586135864,0.0386557020246982,-0.3993174731731415,0.3891636729240417,0.3871926665306091,0.0,0.0,-0.8272631016051555,0.8803676408231259
-0.0064591406844556,1.1336045265197754,0.0566863231360912,-0.4093773663043976,0.4068238735198974,0.353204607963562,0.0,0.0,0.8762791642136682,0.6612200236339885
-0.0059019089676439,1.125455021858215,0.0404254309833049,-0.3666819632053375,0.4233186244964599,0.3298951983451843,0.0,0.0,0.7852315484971066,0.9899059548251362
-0.0054041864350438,1.1177273988723757,0.0363627448678016,-0.3475458323955536,0.4378656446933746,0.2909404635429382,0.0,0.0,0.0387557569969523,0.6070540733679057
-0.0049437521956861,1.1104261875152588,0.033764824271202,-0.3283970057964325,0.4513028264045715,0.2687438130378723,0.0,0.0,-0.243679152650547,0.9707835156925354
-0.004322147462517,1.1029051542282104,0.0515713207423687,-0.337734043598175,0.462947279214859,0.232889175415039,0.0,0.0,0.0379367332149171,-0.872666820149159
-0.0038130760658532,1.095590114593506,0.0386473275721073,-0.3292563557624817,0.4765185713768005,0.2714250087738037,0.0,0.0,0.2397056472745344,0.9863372100946808
-0.0034884451888501,1.0887736082077026,0.0220760889351367,-0.3065750300884247,0.4880960881710052,0.2315504103899002,0.0,0.0,-0.701926589012146,0.9945681095123292
-0.002978706266731,1.0817444324493408,0.0428034141659736,-0.3153248429298401,0.4972357749938965,0.1827936470508575,0.0,0.0,-0.6633211970329285,0.9846889972686768
-0.0022850991226732,1.0744926929473877,0.063306838274002,-0.3245172202587127,0.5040496587753296,0.1362778842449188,0.0,0.0,-0.6706100106239319,0.9871962070465088
-0.001409912132658,1.0670263767242432,0.0835778266191482,-0.3332932591438293,0.5084954500198364,0.0889171734452247,0.0,0.0,-0.8025832176208496,0.9828190803527832
-0.0003659248468466,1.0593242645263672,0.1021317839622497,-0.343165248632431,0.5110676288604736,0.0514447204768657,0.0,0.0,-0.8878301382064819,0.990426778793335
0.0008567810291424,1.051396131515503,0.1219427585601806,-0.3524762392044067,0.5114353895187378,0.0073550678789615,0.0,0.0,-0.7686658501625061,0.9847956895828248
0.0022578239440917,1.0432475805282593,0.1417762637138366,-0.3615408539772033,0.509540855884552,-0.0378909297287464,0.0,0.0,-0.3140108585357666,0.9437918663024902
0.0038104057312011,1.0348732471466064,0.1583774834871292,-0.3710389733314514,0.5060200095176697,-0.07041747123003,0.0,0.0,-0.6756653785705566,0.8667478561401367
0.0055091856047511,1.0262656211853027,0.1742819994688034,-0.3809442222118377,0.5010614395141602,-0.0991711616516113,0.0,0.0,-0.2993878126144409,0.7705590724945068
0.0073622702620923,1.017419934272766,0.1911123692989349,-0.3910385966300964,0.4945289194583893,-0.130650132894516,0.0,0.0,-0.4776813983917236,0.4697417020797729
0.0093175889924168,1.008296012878418,0.2013853043317794,-0.4034150540828705,0.48797807097435,-0.1310170590877533,0.0,0.0,-0.2804738283157348,0.5071134567260742
0.0114056589081883,0.9989224672317504,0.2155739814043045,-0.4142325818538666,0.4804293513298034,-0.1509741246700287,0.0,0.0,-0.2600762844085693,0.6163501739501953
0.0136472703889012,0.9893075823783876,0.2323545217514038,-0.4245136380195617,0.4713191092014313,-0.1822047084569931,0.0,0.0,0.1617965698242187,0.2287555932998657
0.0157378204166889,0.9801661372184752,0.2173142433166504,-0.4035078287124634,0.4621740877628326,-0.1829006820917129,0.0,0.0,0.146746277809143,-0.1532939076423645
0.0178712848573923,0.9712703824043274,0.2212632000446319,-0.3927610218524933,0.4534541964530945,-0.1743976771831512,0.0,0.0,0.2758933305740356,-0.1602948307991027
0.0198800079524517,0.9625391364097596,0.2091862857341766,-0.3853844702243805,0.4443321824073791,-0.1824401468038559,0.0,0.0,0.1930691003799438,-0.5522034168243408
0.0217686649411916,0.9543339610099792,0.1961160004138946,-0.3623873591423034,0.4364210665225982,-0.1582224667072296,0.0,0.0,0.3531608581542969,-0.4487162828445434
0.023626422509551,0.946673572063446,0.1926434636116027,-0.3383525013923645,0.4289582371711731,-0.149256020784378,0.0,0.0,-0.2017615437507629,0.3978004455566406
0.0255839340388774,0.9387349486351012,0.2027093172073364,-0.350727915763855,0.4214149117469787,-0.1508665084838867,0.0,0.0,0.3781135082244873,0.2083101272583007
0.0273143760859966,0.9313762784004213,0.1803884208202362,-0.3248797655105591,0.4134915769100189,-0.1584667861461639,0.0,0.0,0.6744037866592407,-0.1426830887794494
0.0290401466190814,0.9242862462997437,0.1797945946455001,-0.3130189180374145,0.4057170152664184,-0.1554910987615585,0.0,0.0,0.5747857093811035,0.517236590385437
0.0305422786623239,0.9178056120872498,0.1587974280118942,-0.2855992615222931,0.3965083956718445,-0.1841721534729004,0.0,0.0,-0.0515623688697814,0.9080100059509276
0.0322210304439067,0.9110949039459229,0.178710252046585,-0.2952703833580017,0.3849411308765411,-0.2313451468944549,0.0,0.0,0.9212052822113036,0.8621659278869629
0.0338183417916297,0.9051544070243835,0.1723344922065735,-0.2606741786003113,0.3715475797653198,-0.2678709626197815,0.0,0.0,0.3056070804595947,0.9807345867156982
0.0354758277535438,0.8994196653366089,0.1804188787937164,-0.2511497139930725,0.3560406267642975,-0.3101389408111572,0.0,0.0,0.8324718475341797,0.8711209297180176
0.0369204506278038,0.8942881226539612,0.161308541893959,-0.2239997386932373,0.3383686244487762,-0.3534407317638397,0.0,0.0,-0.3454113006591797,0.4127204418182373
0.0384577736258506,0.8888816237449646,0.1707773208618164,-0.2363952845335006,0.3205857276916504,-0.3556578457355499,0.0,0.0,0.1939555406570434,-0.0294882655143737
0.0400762557983398,0.8835292458534241,0.178841084241867,-0.2342317402362823,0.3029647767543793,-0.3524191975593567,0.0,0.0,-0.0777344107627868,0.1900011301040649
0.0417850501835346,0.8779019117355347,0.1880766004323959,-0.2466276586055755,0.2852303981781006,-0.3546884059906006,0.0,0.0,0.0765440464019775,0.0933774709701538
0.0434372909367084,0.8724177479743958,0.1828947961330413,-0.240388348698616,0.2670983672142029,-0.3626404404640198,0.0,0.0,-0.3002357482910156,-0.3808166980743408
0.0451771728694438,0.8666592240333557,0.1918590366840362,-0.2527863383293152,0.2488525360822677,-0.364916980266571,0.0,0.0,0.1397504806518554,-0.2819676995277405
0.0469181053340435,0.8612582087516785,0.1920593380928039,-0.2371117174625396,0.230591595172882,-0.3652190566062927,0.0,0.0,0.4795477390289306,0.3971776962280273
0.0484584793448448,0.856647789478302,0.1727211475372314,-0.2020996361970901,0.2116849571466446,-0.3781328499317169,0.0,0.0,0.4430687427520752,-0.5694329738616943
0.050000000745058,0.8525104522705078,0.1717268824577331,-0.1814635545015335,0.1939705908298492,-0.3542867600917816,0.0,0.0,0.0389075279235839,-0.4807264804840088
0.0515544898808002,0.8484545350074768,0.1732922345399856,-0.1780333966016769,0.1760501265525818,-0.3584092259407043,0.0,0.0,0.7274459600448608,-0.5877366065979004
0.053158950060606,0.844627320766449,0.1770755350589752,-0.1682089418172836,0.1594023406505584,-0.3329555690288543,0.0,0.0,0.5449399948120117,-0.7019721865653992
0.05470447614789,0.8409672379493713,0.1699618399143219,-0.1610941141843795,0.1439988762140274,-0.3080691695213318,0.0,0.0,0.1633538007736206,-0.9261930584907532
0.0561647415161132,0.8378514647483826,0.1597317606210708,-0.1372142434120178,0.1303432434797287,-0.2731122374534607,0.0,0.0,0.0292050838470459,-0.8174149394035339
0.0576250068843364,0.8352218866348267,0.1581971347332,-0.1158490926027298,0.1182364672422409,-0.242135614156723,0.0,0.0,-0.4471790194511413,-0.7693198919296265
0.0590834617614746,0.8323104977607727,0.1562861204147339,-0.1286059468984604,0.1078593283891677,-0.2075429707765579,0.0,0.0,-0.9784225821495056,-0.6431159377098083
0.060548685491085,0.8291051387786865,0.155497595667839,-0.141838327050209,0.0989600270986557,-0.1779858618974685,0.0,0.0,-0.4823063611984253,-0.9003611207008362
0.0620123855769634,0.8256204128265381,0.1537346988916397,-0.1544123589992523,0.0916554927825927,-0.1460904777050018,0.0,0.0,0.3852267265319824,-0.9347013235092164
0.063323400914669,0.8225547075271606,0.1367458999156952,-0.1359155923128128,0.0860636979341507,-0.1118361949920654,0.0,0.0,-0.0388641953468322,-0.8568081259727478
0.0646196380257606,0.8192048668861389,0.1334446966648101,-0.1486642509698867,0.0822697356343269,-0.0758788734674453,0.0,0.0,-0.9932630062103271,0.0733562707901001
0.0659714713692665,0.8155767917633057,0.139075756072998,-0.1610390841960907,0.0784198120236396,-0.0769983008503913,0.0,0.0,-0.993472933769226,-0.72247713804245
0.0673268288373947,0.8116647601127625,0.1382366865873336,-0.1737287193536758,0.0757525190711021,-0.0533461570739746,0.0,0.0,-0.9660215377807616,-0.5515401363372803
0.068689540028572,0.8074642419815063,0.137925773859024,-0.186609461903572,0.0741023495793342,-0.0330029353499412,0.0,0.0,-0.9575443863868712,-0.5605807900428772
0.0700597763061523,0.8029768466949463,0.1377710402011871,-0.199398010969162,0.073367066681385,-0.0147056225687265,0.0,0.0,-0.8916864395141602,-0.438606858253479
0.071471020579338,0.7982112765312195,0.1418889462947845,-0.2117719203233719,0.0726105272769928,-0.01513113360852,0.0,0.0,-0.9972606897354126,-0.1826269626617431
0.0729190856218338,0.7931671142578125,0.1455874741077423,-0.2241459190845489,0.0718424320220947,-0.0153619777411222,0.0,0.0,-0.9972129464149476,-0.6117783784866333
0.07435093075037,0.7878437638282776,0.1427138149738311,-0.2366159558296203,0.0723013877868652,0.0091792456805706,0.0,0.0,-0.9991474747657776,-0.0249043703079223
0.0758109092712402,0.7822420001029968,0.1455277055501938,-0.2489900588989257,0.0727694183588028,0.0093606831505894,0.0,0.0,-0.998222827911377,-0.7019302248954773
0.0772505775094032,0.7763596177101135,0.1423514932394027,-0.2615154385566711,0.0743653252720832,0.031918179243803,0.0,0.0,-0.996560275554657,-0.5379091501235962
0.0786742195487022,0.7701895236968994,0.139818787574768,-0.2743610143661499,0.0768856182694435,0.0504059195518493,0.0,0.0,-0.9957293272018432,0.0433763265609741
0.0801121741533279,0.7637409567832947,0.1412049382925033,-0.2867358326911926,0.0794484317302703,0.0512560494244098,0.0,0.0,-0.9986007213592528,-0.456483244895935
0.0815595611929893,0.7570140957832336,0.1420932412147522,-0.2991107404232025,0.082065463066101,0.0523404292762279,0.0,0.0,-0.9989441633224488,-0.3759198188781738
0.0830114334821701,0.7500091791152954,0.1424752622842788,-0.3114857673645019,0.0847486332058906,0.0536637492477893,0.0,0.0,-0.996960699558258,-0.4074551463127136
0.0844627395272255,0.7427258491516113,0.1423443108797073,-0.3238609433174133,0.0875101312994957,0.0552300512790679,0.0,0.0,-0.9903091788291932,-0.1284478902816772
0.0859085097908973,0.73516446352005,0.1416955888271331,-0.3362362682819366,0.0903622657060623,0.0570427998900413,0.0,0.0,-0.9958034753799438,-0.655506432056427
0.0872870460152626,0.727321982383728,0.1334390938282013,-0.3488280475139618,0.0947383642196655,0.0875218734145164,0.0,0.0,-0.9989830255508424,-0.4013090133666992
0.0886498466134071,0.719201385974884,0.1317484676837921,-0.3612045645713806,0.0992301180958747,0.0898349657654762,0.0,0.0,-0.9965487718582152,-0.7364447116851807
0.0899315848946571,0.7107917070388794,0.1219762116670608,-0.374192863702774,0.1053799092769622,0.1229957565665245,0.0,0.0,-0.9867879152297974,-0.5078205466270447
0.0911396965384483,0.7020973563194275,0.1132589429616928,-0.386970967054367,0.1128794029355049,0.1499899476766586,0.0,0.0,-0.993048369884491,-0.7856878042221069
0.0922398567199707,0.6931108832359314,0.1003437265753746,-0.4001616239547729,0.1224925220012664,0.1922622621059417,0.0,0.0,-0.8684112429618835,0.1376943588256836
0.0933040603995323,0.6838474273681641,0.0966012924909591,-0.4125450551509857,0.1322718113660812,0.195585548877716,0.0,0.0,-0.6935867667198181,-0.0249351263046264
0.0943276435136795,0.6743070483207703,0.0923638194799423,-0.4249289929866791,0.1422297954559326,0.1991595476865768,0.0,0.0,-0.4084640741348266,0.7441916465759277
0.0953774452209472,0.6645112037658691,0.0966663807630539,-0.4361923336982727,0.1505298018455505,0.1660000830888748,0.0,0.0,-0.5972997546195984,0.687819242477417
0.0964284911751747,0.6544554233551025,0.0979128330945968,-0.4476660788059234,0.1577064841985702,0.1435337513685226,0.0,0.0,-0.46982342004776,0.0622719526290893
0.0974249839782714,0.6441224217414856,0.0922602787613868,-0.4600472152233124,0.1650988012552261,0.1478462517261505,0.0,0.0,-0.4522202014923095,0.9823849201202391
0.0984489470720291,0.6335336565971375,0.0970071777701377,-0.4712205231189728,0.1705018132925033,0.1080602258443832,0.0,0.0,0.0789085626602172,0.9870012998580932
0.099389836192131,0.6234837174415588,0.0904304832220077,-0.4470916390419006,0.1741622388362884,0.0732084140181541,0.0,0.0,-0.8961430191993713,0.8551607131958008
0.1003361716866493,0.6131826043128967,0.0926179066300392,-0.4580607116222381,0.1761820912361145,0.0403969213366508,0.0,0.0,-0.9253899455070496,0.9888689517974854
0.1012996658682823,0.6026222705841064,0.0963112711906433,-0.4693535268306732,0.176219493150711,0.0007479587802663,0.0,0.0,-0.8212772011756897,0.8510884046554565
0.1022414192557334,0.5917996764183044,0.0952241569757461,-0.4808805286884308,0.1751694977283477,-0.0210000723600387,0.0,0.0,-0.1347962617874145,0.6943973302841187
0.1031480804085731,0.5807088017463684,0.0925299003720283,-0.4927081763744354,0.1733093410730362,-0.0372033789753913,0.0,0.0,-0.1979290246963501,0.885777473449707
0.1040403395891189,0.5693572163581848,0.0924939960241317,-0.5041338801383972,0.1700320690870285,-0.0655452683568,0.0,0.0,-0.1481704711914062,0.8738856315612793
0.1049196273088455,0.5577449202537537,0.0927171483635902,-0.5155624151229858,0.1652338951826095,-0.0959635376930236,0.0,0.0,0.0438259840011596,0.0634124279022216
0.1057558059692382,0.5462116599082947,0.0877179726958274,-0.5121402144432068,0.1611317843198776,-0.0820424705743789,0.0,0.0,0.7156505584716797,-0.0310555696487426
0.1064881309866905,0.5354765057563782,0.076545163989067,-0.4767636060714721,0.1578216403722763,-0.0662028640508651,0.0,0.0,-0.3600573539733886,0.8242009878158569
0.1071941405534744,0.5244876146316528,0.0753099247813224,-0.4879020750522613,0.1531216949224472,-0.0939988121390342,0.0,0.0,0.6231329441070557,0.4453932046890259
0.10782041400671,0.5136899352073669,0.0667040795087814,-0.4794821739196777,0.1490528732538223,-0.081376314163208,0.0,0.0,0.147152304649353,0.332952618598938
0.1083533316850662,0.5032657980918884,0.056702397763729,-0.462958812713623,0.1456494033336639,-0.0680694729089737,0.0,0.0,-0.6027129292488098,0.4152910709381103
