x_pos,y_pos,x_vel,y_vel,angle,ang_vel,leg_1,leg_2,main_booster,lat_booster
-0.001470947288908,1.4030698537826538,-0.1490250676870346,-0.3489007353782654,0.0017260750755667,0.0340458080172538,0.0,0.0,-0.4339529871940613,0.6987018585205078
-0.0028274536598473,1.394684910774231,-0.1358289271593094,-0.3726660013198852,0.0019045086810365,0.0035695855040103,0.0,0.0,-0.1399300098419189,0.9403631687164308
-0.0040367124602198,1.3857381343841553,-0.118810273706913,-0.397629052400589,-0.0001841087068896,-0.0417765080928802,0.0,0.0,0.0750085115432739,0.4138088226318359
-0.0052645681425929,1.3767244815826416,-0.1203087121248245,-0.4006084203720093,-0.0026327546220272,-0.0489774756133556,0.0,0.0,-0.6505258083343506,-0.1066100001335144
-0.006431960966438,1.3671562671661377,-0.1142757311463356,-0.4252629578113556,-0.0050634732469916,-0.0486191995441913,0.0,0.0,0.1424660682678222,0.1514968872070312
-0.0074403760954737,1.3575960397720337,-0.0988718122243881,-0.4249047040939331,-0.0070158555172383,-0.0390514209866523,0.0,0.0,-0.7581443786621094,-0.153261661529541
-0.0083853723481297,1.34748113155365,-0.092555858194828,-0.449559599161148,-0.0089373234659433,-0.0384329557418823,0.0,0.0,-0.7400455474853516,-0.3203543424606323
-0.0092656137421727,1.336811661720276,-0.0861141681671142,-0.4742084443569183,-0.0108210863545537,-0.0376788973808288,0.0,0.0,-0.4827826023101806,-0.5253887176513672
-0.0101220132783055,1.3255940675735474,-0.0848475322127342,-0.498567134141922,-0.0115997185930609,-0.0155742224305868,0.0,0.0,-0.0625969767570495,-0.6427339911460876
-0.010961914435029,1.3138266801834106,-0.0845466330647468,-0.5229901671409607,-0.0110545828938484,0.0109039284288883,0.0,0.0,-0.3716244697570801,0.3569264411926269
-0.0117339137941598,1.3015048503875732,-0.0777995213866233,-0.5476405620574951,-0.0104553280398249,0.0119860488921403,0.0,0.0,-0.0838273763656616,-0.4640394449234009
-0.0124369617551565,1.288628101348877,-0.0709684863686561,-0.5722907781600952,-0.0097961677238345,0.0131842093542218,0.0,0.0,-0.8201228380203247,-0.5964456796646118
-0.013107013888657,1.2752002477645874,-0.0686869025230407,-0.5967752933502197,-0.0081452671438455,0.0330211631953716,0.0,0.0,-0.6337145566940308,-0.6147251129150391
-0.0137498853728175,1.2612128257751465,-0.0671101287007331,-0.6216513514518738,-0.0053462977521121,0.0559844896197319,0.0,0.0,-0.4390305280685425,-0.5634528398513794
-0.014355850405991,1.2466771602630615,-0.064363420009613,-0.646027684211731,-0.0016178482910618,0.0745756551623344,0.0,0.0,-0.3635860681533813,-0.2032973766326904
-0.0148904798552393,1.2315868139266968,-0.0573045723140239,-0.6706790924072266,0.0021880962885916,0.0761254876852035,0.0,0.0,-0.2058344483375549,-0.38428795337677
-0.0153532978147268,1.215942144393921,-0.0502097532153129,-0.6953306794166565,0.0060757915489375,0.0777608379721641,0.0,0.0,-0.5616396069526672,-0.1869454979896545
-0.0157440192997455,1.1997430324554443,-0.0430884882807731,-0.719982385635376,0.0100488243624567,0.0794678926467895,0.0,0.0,-0.1306686401367187,0.2044205665588379
-0.0160624496638774,1.182989478111267,-0.0359494537115097,-0.744634211063385,0.0141107607632875,0.08124590665102,0.0,0.0,-0.7976328134536743,0.3761124610900879
-0.0163084976375103,1.1656816005706787,-0.0288013815879821,-0.7692861557006836,0.018264926970005,0.0830908715724945,0.0,0.0,-0.1861339807510376,0.1741740703582763
-0.0164820663630962,1.1478193998336792,-0.0216528642922639,-0.7939383387565613,0.0225145053118467,0.0849989876151084,0.0,0.0,-0.0656611919403076,0.5106443166732788
-0.0165420528501272,1.1294010877609253,-0.0093463407829403,-0.8186416029930115,0.0258282665163278,0.066281110048294,0.0,0.0,0.1243377923965454,0.3360452651977539
-0.0164508819580078,1.110987424850464,0.0052412501536309,-0.8184548020362854,0.0296546258032321,0.0765338987112045,0.0,0.0,-0.2823507785797119,0.5334806442260742
-0.0162405017763376,1.0920153856277466,0.0182599946856498,-0.8432577848434448,0.0324012823402881,0.0549379475414752,0.0,0.0,0.0583282709121704,0.1520720720291137
-0.0160624496638774,1.073102593421936,0.0153306294232606,-0.8406241536140442,0.0348334237933158,0.0486475303769111,0.0,0.0,0.3028023242950439,0.5689742565155029
-0.0159127227962017,1.0544449090957642,0.013806901872158,-0.829260528087616,0.0359848886728286,0.0230295844376087,0.0,0.0,0.4226534366607666,0.171493649482727
-0.0157111175358295,1.036170482635498,0.0188641063868999,-0.8122257590293884,0.0372637957334518,0.0255779866129159,0.0,0.0,0.0263748168945312,0.2957416772842407
-0.0155391693115234,1.0181057453155518,0.0161602459847927,-0.8029102087020874,0.0382820703089237,0.0203656107187271,0.0,0.0,0.0554571151733398,0.5147533416748047
-0.0153677938506007,1.0002292394638062,0.0171922631561756,-0.7945053577423096,0.0382294543087482,-0.0010521371150389,0.0,0.0,-0.1448842287063598,0.0912274122238159
-0.0151271820068359,0.9817983508110046,0.0239964146167039,-0.8191542029380798,0.0382967926561832,0.0013467191020026,0.0,0.0,0.4734159708023071,0.6238322257995605
-0.0147794727236032,0.963955581188202,0.0357884280383586,-0.7929871678352356,0.0372829921543598,-0.0202757939696311,0.0,0.0,0.837864875793457,0.3576855659484863
-0.0144688608124852,0.9462842345237732,0.0323718562722206,-0.785363495349884,0.0359934009611606,-0.0257920119911432,0.0,0.0,0.2835116386413574,-0.6122673153877258
-0.014233112335205,0.9289910197257996,0.0236510597169399,-0.7685787677764893,0.0359178930521011,-0.0015101836761459,0.0,0.0,-0.0725005865097045,0.7419456243515015
-0.0138789173215627,0.9111395478248596,0.0367021895945072,-0.7933693528175354,0.0346523560583591,-0.0253104921430349,0.0,0.0,0.4766994714736938,0.2414740324020385
-0.013464736752212,0.8935748934745789,0.0424932762980461,-0.7806341052055359,0.0335848405957222,-0.0213502719998359,0.0,0.0,-0.3892769813537597,0.7683546543121338
-0.0129244802519679,0.8754644393920898,0.0565710663795471,-0.8048512935638428,0.0310747697949409,-0.0502012856304645,0.0,0.0,0.5623542070388794,-0.2189474701881408
-0.0123598100617527,0.8574439883232117,0.0589873008430004,-0.8008593916893005,0.0285844597965478,-0.0498062931001186,0.0,0.0,-0.5457727313041687,-0.5525808334350586
-0.0117749217897653,0.8388715386390686,0.0598340146243572,-0.8254177570343018,0.027259599417448,-0.0264971312135458,0.0,0.0,-0.0771482586860656,-0.3152679204940796
-0.0111299511045217,0.8197445869445801,0.065696083009243,-0.8500667214393616,0.0260728262364864,-0.0237354226410388,0.0,0.0,0.2373607158660888,0.0836504697799682
-0.0104169845581054,0.8007465600967407,0.0722532644867897,-0.8443399667739868,0.0251236911863088,-0.0189827643334865,0.0,0.0,0.1586278676986694,0.5039619207382202
-0.0097026824951171,0.7820154428482056,0.0734411552548408,-0.8324593305587769,0.0231444966048002,-0.039583820849657,0.0,0.0,0.0420974493026733,-0.7453729510307312
-0.0089091304689645,0.7632243633270264,0.0796532034873962,-0.8351520299911499,0.0228470191359519,-0.0059496685862541,0.0,0.0,0.2496204376220703,0.0326042175292968
-0.0079932212829589,0.7442370653152466,0.0913991034030914,-0.8438844084739685,0.0230338908731937,0.0037372824735939,0.0,0.0,-0.4013673067092895,0.1649801731109619
-0.0070245740935206,0.7246952652931213,0.0965264290571212,-0.868533194065094,0.0233666095882654,0.0066544390283524,0.0,0.0,0.0268510580062866,0.242713451385498
-0.0060342787764966,0.7048723697662354,0.0986576825380325,-0.8810204267501831,0.0237297061830759,0.0072620795108377,0.0,0.0,0.4871859550476074,-0.2961743474006653
-0.0049603460356593,0.6849473714828491,0.1066848263144493,-0.8855598568916321,0.0244326870888471,0.0140597121790051,0.0,0.0,0.4292342662811279,-0.1336351037025451
-0.0037952424027025,0.66504967212677,0.1153992637991905,-0.8843613862991333,0.0255296602845191,0.021939218044281,0.0,0.0,0.4699912071228027,-0.3289465308189392
-0.0027029991615563,0.6457059979438782,0.1084344387054443,-0.8597314357757568,0.0263151172548532,0.0157090947031974,0.0,0.0,0.3922492265701294,-0.7477715015411377
-0.00176792149432,0.6268032193183899,0.0912452191114425,-0.8401705026626587,0.0285498388111591,0.0446943417191505,0.0,0.0,0.5413675308227539,-0.0470122694969177
-0.0008235931163653,0.6080564856529236,0.0921085104346275,-0.8332328200340271,0.030846569687128,0.0459347330033779,0.0,0.0,0.4410867691040039,-0.2495219111442566
0.0002712249697651,0.5895079970359802,0.1064083725214004,-0.8244459629058838,0.0338765271008014,0.0605991184711456,0.0,0.0,0.5276517868041992,-0.4168952703475952
0.0013285636669024,0.5714235305786133,0.1027607172727584,-0.8038236498832703,0.0368156284093856,0.0587818510830402,0.0,0.0,0.1820244789123535,0.113642930984497
0.0024893761146813,0.5532658696174622,0.1125825271010398,-0.8071000576019287,0.0402728877961635,0.0691453069448471,0.0,0.0,0.8683668375015259,0.177809476852417
0.0036525726318359,0.5359060168266296,0.1126504763960838,-0.7716500759124756,0.0439041182398796,0.072624348104,0.0,0.0,-0.0594847798347473,-0.0876657962799072
0.0048490525223314,0.5179919600486755,0.1158131808042526,-0.7963002324104309,0.0476933717727661,0.0757851675152778,0.0,0.0,0.8195594549179077,-0.4909822940826416
0.0059471130371093,0.500293493270874,0.1062936559319496,-0.786712110042572,0.051154538989067,0.0692236348986625,0.0,0.0,0.8718917369842529,-0.4610286951065063
0.0071347234770655,0.483401745557785,0.1146000400185585,-0.7508947253227234,0.0552678890526294,0.0822670012712478,0.0,0.0,0.2272160053253173,0.1496349573135376
0.008424567990005,0.4667145311832428,0.1241799816489219,-0.7418378591537476,0.0600154139101505,0.0949503406882286,0.0,0.0,0.3642830848693847,-0.2176814675331115
0.0097607616335153,0.4504967629909515,0.1283740401268005,-0.7210097908973694,0.0652088150382042,0.1038680300116539,0.0,0.0,0.0587791204452514,0.4256975650787353
0.0110392570495605,0.4344738721847534,0.1226616650819778,-0.712363064289093,0.0703372955322265,0.1025696620345115,0.0,0.0,0.1249115467071533,0.0735794305801391
0.0123565671965479,0.4182778596878052,0.1262260377407074,-0.7200911641120911,0.0757881999015808,0.1090180724859237,0.0,0.0,0.3421180248260498,0.700218915939331
0.0136153222993016,0.4023796319961548,0.1217673793435096,-0.7068030834197998,0.0798603221774101,0.0814421251416206,0.0,0.0,0.7078386545181274,0.4909037351608276
0.0149768833070993,0.3867418766021728,0.1312854439020156,-0.6952796578407288,0.0846845358610153,0.0964839905500412,0.0,0.0,0.8075425624847412,0.4465508460998535
0.0163237564265728,0.3715555667877197,0.1295331716537475,-0.6752458214759827,0.0897894874215126,0.1020990833640098,0.0,0.0,0.6166300773620605,0.4639257192611694
0.0176575668156147,0.3564022779464721,0.128034308552742,-0.6738101243972778,0.095091238617897,0.1060351356863975,0.0,0.0,0.6884691715240479,0.3814010620117187
0.0188208576291799,0.3415789008140564,0.111412264406681,-0.6591393351554871,0.0999689400196075,0.0975538939237594,0.0,0.0,0.8828539848327637,0.9109978675842284
0.0199957843869924,0.3276824057102203,0.1141979470849037,-0.6178460717201233,0.1032356843352317,0.0653348043560981,0.0,0.0,0.5882910490036011,0.3184579610824585
0.0212296489626169,0.3136633336544037,0.1195595636963844,-0.6233368515968323,0.1070278882980346,0.0758441388607025,0.0,0.0,0.3868725299835205,0.7386839389801025
0.0224772449582815,0.3001807630062103,0.1222315207123756,-0.5994089841842651,0.1095421016216278,0.0502843931317329,0.0,0.0,0.7940878868103027,-0.237950325012207
0.0235733035951852,0.2868935167789459,0.1073874235153198,-0.5907061100006104,0.111742727458477,0.0440124385058879,0.0,0.0,0.2251124382019043,-0.0965507626533508
0.0245502479374408,0.27378910779953,0.0956437587738037,-0.5825737714767456,0.1137867048382759,0.0408794656395912,0.0,0.0,0.6090903282165527,0.3209384679794311
0.0254913326352834,0.2610388100147247,0.091757446527481,-0.5668599605560303,0.116126611828804,0.0467983074486255,0.0,0.0,0.779801607131958,0.3215553760528564
0.02619094774127,0.2490656524896621,0.0680964738130569,-0.5322875380516052,0.1179808154702186,0.0370838977396488,0.0,0.0,0.9578750133514404,0.0508358478546142
0.026896858587861,0.2375729233026504,0.0681663453578949,-0.510981023311615,0.1203927919268608,0.0482395216822624,0.0,0.0,0.9708058834075928,0.1062476634979248
0.027505874633789,0.2262134402990341,0.0585116855800151,-0.5050618052482605,0.1227723211050033,0.0475904308259487,0.0,0.0,0.9380793571472168,0.0350549221038818
0.0281452182680368,0.2148820012807846,0.0610204860568046,-0.5038610696792603,0.1256729066371917,0.0580116100609302,0.0,0.0,0.9895377159118652,-0.0318132042884826
0.0286922454833984,0.2035974860191345,0.0518170297145843,-0.5017798542976379,0.1285478472709655,0.0574985556304454,0.0,0.0,0.9755231142044068,-0.5038508176803589
0.0290629379451274,0.1931646168231964,0.033056017011404,-0.4640362560749054,0.1325431317090988,0.0799058228731155,0.0,0.0,0.8923535346984863,0.1803460121154785
0.029395580291748,0.183585062623024,0.0286828074604272,-0.426171600818634,0.1371090710163116,0.0913187563419342,0.0,0.0,0.9300930500030518,0.5243624448776245
0.0294944755733013,0.174855500459671,0.006625538226217,-0.388284832239151,0.1403577029705047,0.0649730041623115,0.0,0.0,0.9006500244140625,0.5008759498596191
0.0294167511165142,0.1661077886819839,-0.0097020808607339,-0.3889687657356262,0.1422764211893081,0.0383744910359382,0.0,0.0,0.9436062574386596,-0.1874700784683227
0.0292460434138774,0.1581967622041702,-0.0193485226482152,-0.3518205285072326,0.1445543617010116,0.0455589070916175,0.0,0.0,0.875944972038269,0.6973483562469482
0.0289040561765432,0.1506864428520202,-0.0349189601838588,-0.3338629901409149,0.1452774405479431,0.0144617157056927,0.0,0.0,0.7116068601608276,0.9587645530700684
0.0284626968204975,0.1436706334352493,-0.0429801456630229,-0.3117014169692993,0.1441273987293243,-0.0230009090155363,0.0,0.0,0.0474698543548584,0.9572768211364746
0.0280133243650198,0.1367779374122619,-0.0420035235583782,-0.306063711643219,0.1411951631307602,-0.0586442835628986,0.0,0.0,-0.1557261943817138,0.9187452793121338
0.0276358611881732,0.1293487846851349,-0.0328216925263404,-0.3297272026538849,0.1362888216972351,-0.0981270968914032,0.0,0.0,0.164186954498291,0.8610934019088745
0.0273024551570415,0.1217336058616638,-0.0268289539963006,-0.337872177362442,0.1298007071018219,-0.1297619044780731,0.0,0.0,0.0566157102584838,0.2576168775558471
0.0269835479557514,0.1139590591192245,-0.0257668010890483,-0.3450145721435547,0.1237090677022934,-0.1218331232666969,0.0,0.0,0.6613056659698486,0.9587056636810304
0.0268231388181448,0.1065301299095153,-0.0083256345242261,-0.3295554518699646,0.1160386428236961,-0.153408482670784,0.0,0.0,0.6072396039962769,-0.1483663320541381
0.0267417915165424,0.0991426780819892,-0.0011587648186832,-0.3278059065341949,0.1091105714440345,-0.1385617852210998,0.0,0.0,0.6291100978851318,-0.0455387234687805
0.0265630725771188,0.0923050493001937,-0.0109795499593019,-0.3034052550792694,0.1022679358720779,-0.1368525922298431,0.0,0.0,0.5679343938827515,-0.0530875921249389
0.0263289455324411,0.0859923437237739,-0.0167548954486846,-0.2801259160041809,0.0956686437129974,-0.131985992193222,0.0,0.0,0.8597397804260254,-0.4256772994995117
0.0261518470942974,0.0802669376134872,-0.0118130622431635,-0.2540972530841827,0.0898213982582092,-0.1169448718428611,0.0,0.0,0.667660117149353,-0.3086637258529663
0.026035975664854,0.0744933933019638,-0.0062591829337179,-0.2562906444072723,0.0845446214079856,-0.1055354923009872,0.0,0.0,0.6540126800537109,-0.7093811631202698
0.0257538799196481,0.0689112544059753,-0.0242912359535694,-0.2478790134191513,0.0806570798158645,-0.0777510181069374,0.0,0.0,0.5119771957397461,0.1372871398925781
0.0254756920039653,0.0639646872878074,-0.0243514310568571,-0.2196645736694336,0.0772190243005752,-0.0687610730528831,0.0,0.0,0.5312914848327637,-0.4256206750869751
0.0251260753720998,0.0592501498758792,-0.0314700044691562,-0.2093581855297088,0.0737678930163383,-0.0690226778388023,0.0,0.0,0.6535600423812866,-0.1760302782058715
0.0245852470397949,0.0551586002111434,-0.0500990264117717,-0.181656152009964,0.0698230788111686,-0.0788960754871368,0.0,0.0,0.2271912097930908,0.3783055543899536
0.0240651126950979,0.0512951463460922,-0.0484090186655521,-0.171546921133995,0.0662553906440734,-0.0713539570569992,0.0,0.0,-0.0993257761001586,0.9139877557754515
0.0236036293208599,0.0468905307352542,-0.0409376956522464,-0.1955383718013763,0.0611017346382141,-0.1030732542276382,0.0,0.0,0.3483070135116577,0.2173821926116943
0.0230316165834665,0.0428405366837978,-0.0517394356429576,-0.1797879785299301,0.0557047091424465,-0.1079402565956115,0.0,0.0,0.0889666080474853,0.3926513195037842
0.0224203113466501,0.0387265309691429,-0.0556635670363903,-0.1826493144035339,0.0502962060272693,-0.108170211315155,0.0,0.0,0.4486926794052124,0.590015172958374
0.0217142105102539,0.0348442643880844,-0.0637517124414444,-0.172330692410469,0.0435274504125118,-0.135375291109085,0.0,0.0,0.1517746448516845,0.6679134368896484
0.0209248550236225,0.0309496261179447,-0.0706398114562034,-0.17287677526474,0.0353318490087986,-0.1639118045568466,0.0,0.0,0.3429911136627197,0.1080648899078369
0.020199965685606,0.0273815020918846,-0.0646448731422424,-0.1584187299013137,0.0275849010795354,-0.1549391448497772,0.0,0.0,0.3560112714767456,0.2218308448791504
0.0195175167173147,0.0237157437950372,-0.0606777146458625,-0.162802368402481,0.0201165098696947,-0.1493677794933319,0.0,0.0,0.3219097852706909,-0.0813561677932739
0.0189409255981445,0.0204150527715683,-0.0506808683276176,-0.1466201245784759,0.0132259046658873,-0.1378117948770523,0.0,0.0,0.0976725816726684,-0.3082258701324463
0.0183459278196096,0.0173334460705518,-0.052479188889265,-0.136915922164917,0.0063012400642037,-0.1384934484958648,0.0,0.0,0.2008600234985351,0.1774988174438476
0.017856216058135,0.0146303512156009,-0.0424759984016418,-0.1201211884617805,-0.0001121663153753,-0.1282682567834854,0.0,0.0,-0.0074654221534729,0.00339937210083
0.017373751848936,0.0113732907921075,-0.0417832396924495,-0.1447731554508209,-0.0064986902289092,-0.127730593085289,0.0,0.0,0.0655466318130493,-0.5262351632118225
0.0168569572269916,0.0083576655015349,-0.0462810285389423,-0.1340610384941101,-0.0118254404515028,-0.1065349131822586,0.0,0.0,0.0335180759429931,-0.1576365828514099
0.016395092010498,0.0055260751396417,-0.0409910157322883,-0.125897616147995,-0.0169589985162019,-0.1026710644364357,0.0,0.0,-0.1715764999389648,0.0583710670471191
0.0159462932497262,0.0021402693819254,-0.0396921262145042,-0.1505483090877533,-0.0220794510096311,-0.1024090498685836,0.0,0.0,0.2022925615310669,-0.5479692220687866
0.0154798505827784,-0.0004116201307624,-0.0616691000759601,-0.113261803984642,-0.0072660301811993,0.2962544560432434,1.0,0.0,0.7227345705032349,0.8028557300567627
0.015030289068818,-0.0021655701566487,-0.0735035166144371,-0.0780570283532142,0.0209311693906784,0.5639678239822388,1.0,1.0,0.521648645401001,0.9877915382385254
0.014557552523911,-0.0032369517721235,-0.060999821871519,-0.0481668189167976,0.0332374162971973,0.2445300072431564,1.0,1.0,0.6770217418670654,0.9999982118606568
0.0140656474977731,-0.0035391473211348,-0.0446135476231575,-0.0133446985855698,0.0286770369857549,-0.0912545397877693,0.0,1.0,-0.3580788373947143,-0.0752322077751159
0.0136982919648289,-0.0033800743985921,-0.0354663915932178,0.0070851612836122,0.0273945145308971,-0.0256872083991765,1.0,1.0,-0.884731650352478,0.9784964323043824
0.0134808542206883,-0.002874853555113,-0.0178510192781686,0.0225149746984243,0.023548673838377,-0.0769348070025444,1.0,1.0,-0.9177664518356324,0.9087979793548584
0.0133395195007324,-0.0021403932478278,-0.0085688326507806,0.0327161215245723,0.0180343203246593,-0.1103065758943557,1.0,1.0,-0.8914899826049805,0.2112668752670288
0.0131933214142918,-0.0013565444387495,-0.008663828484714,0.0348935835063457,0.0121356025338172,-0.117989145219326,1.0,1.0,-0.6816188097000122,-0.0325996279716491
0.0130518916994333,-0.0006316328071989,-0.0085898749530315,0.0322497375309467,0.0066468925215303,-0.109786607325077,1.0,1.0,-0.6740605235099792,-0.1706762313842773
