x_pos,y_pos,x_vel,y_vel,angle,ang_vel,leg_1,leg_2,main_booster,lat_booster
-0.0016097069019451,1.4029220342636108,-0.1624740064144134,-0.3554645776748657,0.0013449235120788,0.0264986343681812,0.0,0.0,0.0734289402475389,0.6881381596971977
-0.0032132149208337,1.3946913480758667,-0.1598728597164154,-0.365810215473175,0.0008736423333175,-0.0094259325414896,0.0,0.0,-0.1444035548403519,0.7175561413728977
-0.0048325536772608,1.3857526779174805,-0.1592502295970916,-0.3972782492637634,-0.0017777505563572,-0.0530330054461956,0.0,0.0,-0.7100639730892682,-0.7513274793446449
-0.0066062929108738,1.37610924243927,-0.1760537326335907,-0.4285927712917328,-0.0030768262222409,-0.0259838607162237,0.0,0.0,0.3686053506569375,0.9730453828670472
-0.0082611087709665,1.3665761947631836,-0.1619154512882232,-0.4237035512924194,-0.0066087604500353,-0.0706454664468765,0.0,0.0,0.5878944730541493,-0.9662215264349828
-0.0099207879975438,1.357121467590332,-0.1641369014978408,-0.4202116131782532,-0.0084157008677721,-0.0361423343420028,0.0,0.0,0.0854197911919267,-0.7817281217478618
-0.0117362020537257,1.3475347757339478,-0.1808981299400329,-0.4260845184326172,-0.0090501569211483,-0.0126904621720314,0.0,0.0,-0.622430341830501,-0.8376960327761318
-0.013680363073945,1.3372488021850586,-0.1946879476308822,-0.4571544528007507,-0.0087719587609171,0.0055642216466367,0.0,0.0,0.8207227709751517,-0.8266620873354031
-0.0157736781984567,1.327653884887695,-0.2109333276748657,-0.4264324605464935,-0.0071958727203309,0.031524684280157,0.0,0.0,-0.4037870642838417,-0.6444988552361999
-0.0179943088442087,1.3173609972000122,-0.2246687859296798,-0.4574490189552307,-0.0046223304234445,0.0514758042991161,0.0,0.0,0.5662982675865842,-0.9688284166257644
-0.020271111279726,1.3072121143341064,-0.232083112001419,-0.4510545134544372,-0.0002671790716703,0.0871108323335647,0.0,0.0,-0.129740084779375,0.675991122495854
-0.0225619319826364,1.2963594198226929,-0.2317518889904022,-0.4823401570320129,0.0023699679877609,0.0527477040886879,0.0,0.0,0.5282478338131209,0.7546780042422128
-0.0247333534061908,1.285779595375061,-0.218357115983963,-0.4702122807502746,0.0035707422066479,0.0240179151296615,0.0,0.0,-0.8800887801931321,-0.8202936530160254
-0.0270322803407907,1.2744896411895752,-0.2324179857969284,-0.5017912983894348,0.0060578943230211,0.049747671931982,0.0,0.0,-0.8744709557393704,-0.7258435697863371
-0.0294440276920795,1.2625044584274292,-0.2446716576814651,-0.5326908826828003,0.009527139365673,0.0693911239504814,0.0,0.0,0.8265955242846919,-0.7575368227729151
-0.0318533889949321,1.2503021955490112,-0.2461821138858795,-0.5423585176467896,0.0147115718573331,0.1036980375647544,0.0,0.0,0.0094126076132032,0.7074944598660713
-0.0341830253601074,1.2381935119628906,-0.236806720495224,-0.5382088422775269,0.0185161139816045,0.0760976299643516,0.0,0.0,0.6728145870992195,-0.957440073213627
-0.036496352404356,1.2259459495544434,-0.2373261749744415,-0.5444221496582031,0.0244372524321079,0.1184337139129638,0.0,0.0,-0.0182996085353699,-0.7864452593484899
-0.0389235503971576,1.2130022048950195,-0.2500521242618561,-0.575417160987854,0.0316901095211505,0.1450703144073486,0.0,0.0,-0.8496097187070757,0.7268030091084232
-0.0413607582449913,1.1993587017059326,-0.2498410940170288,-0.6065177917480469,0.0377527028322219,0.1212627068161964,0.0,0.0,-0.3323780328170449,0.7172176876364166
-0.0437870025634765,1.1850223541259766,-0.247105985879898,-0.6372864842414856,0.0421851016581058,0.0886561274528503,0.0,0.0,0.8086357619339473,-0.86759814335953
-0.0463435165584087,1.1707019805908203,-0.2620352208614349,-0.6366614103317261,0.0485023707151412,0.1263568103313446,0.0,0.0,0.3562451443130832,0.989762795737968
-0.0487737655639648,1.1563624143600464,-0.2476627081632614,-0.637470006942749,0.053089864552021,0.091758131980896,0.0,0.0,0.0876485577956012,-0.6676095163577702
-0.051266860216856,1.1416213512420654,-0.2555498778820038,-0.6553910970687866,0.0592698156833648,0.123610034584999,0.0,0.0,-0.4823912418380094,0.7443457439158518
-0.0537645332515239,1.1261847019195557,-0.2551032602787018,-0.6862962245941162,0.0645521283149719,0.1056555658578872,0.0,0.0,-0.0492058919200493,-0.6898827413541431
-0.0563763603568077,1.1100220680236816,-0.2685160040855407,-0.7186694741249084,0.0718084573745727,0.1451267302036285,0.0,0.0,-0.7291019073440008,0.6397931911059354
-0.0589826591312885,1.0931676626205444,-0.2669597268104553,-0.7494052052497864,0.0780811235308647,0.1254533231258392,0.0,0.0,-0.8253953700980092,-0.7047238593941714
-0.0616997703909873,1.0756114721298218,-0.2801040410995483,-0.7807417511940002,0.0863885879516601,0.1661491245031356,0.0,0.0,0.9126939373026384,0.8824837697442636
-0.0646315589547157,1.0586888790130615,-0.2998155653476715,-0.7525121569633484,0.0929740741848945,0.1317095458507537,0.0,0.0,-0.8386117959453865,-0.986041429499594
-0.0676819831132888,1.0410504341125488,-0.3141199350357055,-0.7845229506492615,0.1019773036241531,0.1800642758607864,0.0,0.0,-0.915516341979433,0.6102806103502337
-0.0707198157906532,1.0227255821228027,-0.3119961023330688,-0.8150171041488647,0.1101306676864624,0.1630676090717315,0.0,0.0,-0.0784588192802524,0.6249770104246763
-0.0737487822771072,1.003703474998474,-0.3104507625102997,-0.8460042476654053,0.1176304295659065,0.1499952971935272,0.0,0.0,-0.2653298069937404,0.9912865013827452
-0.0767435058951377,0.9840015172958374,-0.30574631690979,-0.8761501908302307,0.1238713860511779,0.1248190626502037,0.0,0.0,0.1441673422987339,0.8873589544877567
-0.0797799080610275,0.9639657735824584,-0.3085871636867523,-0.8908995389938354,0.1288000643253326,0.0985735729336738,0.0,0.0,0.8773821446442989,0.7179896120911555
-0.0828595161437988,0.9443053603172302,-0.3120133280754089,-0.8741531372070312,0.1328320652246475,0.0806395858526229,0.0,0.0,-0.0695338533434661,0.6179281686920676
-0.0859153717756271,0.9239582419395448,-0.3088639378547668,-0.9046103954315186,0.1360985785722732,0.0653301328420639,0.0,0.0,-0.4574584963089694,0.8023885700336011
-0.0889342278242111,0.90291827917099,-0.3041592240333557,-0.9353213906288148,0.1383580267429351,0.0451893843710422,0.0,0.0,-0.3127667176586624,0.8856023523392216
-0.0919015854597091,0.881199061870575,-0.2976507246494293,-0.9653805494308472,0.139271393418312,0.018267422914505,0.0,0.0,-0.0617923950055419,-0.8775434513863083
-0.0949625968933105,0.8587731122970581,-0.3094345033168793,-0.9970295429229736,0.1426009386777877,0.0665908232331276,0.0,0.0,-0.4190940948284596,-0.9678742071167336
-0.0981133431196212,0.8356317281723022,-0.3208250999450683,-1.0290634632110596,0.1483387947082519,0.1147570237517356,0.0,0.0,0.5516604123259004,0.7609646865407167
-0.1014385223388671,0.8128697276115417,-0.3371226191520691,-1.01211678981781,0.1529333293437957,0.0918902903795242,0.0,0.0,0.9987057447433472,0.9957499504089355
-0.1046322807669639,0.7903989553451538,-0.3228455185890198,-0.999053418636322,0.1564055383205413,0.0694437697529792,0.0,0.0,0.995678186416626,0.9661819934844972
-0.1076919585466384,0.767826497554779,-0.3083403408527374,-1.003477931022644,0.1587766259908676,0.0474218055605888,0.0,0.0,0.998694896697998,0.9977432489395142
-0.1106530204415321,0.7455482482910156,-0.2973121404647827,-0.9902672171592712,0.1599821597337722,0.0241109207272529,0.0,0.0,0.9999866485595704,0.9979813098907472
-0.1136535629630088,0.7230913639068604,-0.2997843027114868,-0.9980608224868774,0.1597156524658203,-0.0053302510641515,0.0,0.0,0.9982491731643676,0.995673894882202
-0.1165849715471267,0.7005553841590881,-0.2916130125522613,-1.0014362335205078,0.1581854969263076,-0.0306031070649623,0.0,0.0,0.9998910427093506,0.9981899261474608
-0.1194468513131141,0.6781522631645203,-0.2834256291389465,-0.995397686958313,0.1554247587919235,-0.0552147813141346,0.0,0.0,0.9998629093170166,0.993067979812622
-0.1225403770804405,0.6565379500389099,-0.3049639463424682,-0.9601873755455016,0.1510431319475174,-0.0876326188445091,0.0,0.0,0.9999213218688964,0.9994165897369384
-0.1258775740861892,0.6356240510940552,-0.3276558816432953,-0.9289013147354126,0.1449909508228302,-0.1210437566041946,0.0,0.0,0.9723438024520874,0.9973042011260986
-0.1292516738176345,0.6149192452430725,-0.3299467265605926,-0.9195060729980468,0.1375399529933929,-0.1490195840597152,0.0,0.0,0.9377330541610718,0.9991483688354492
-0.1324524879455566,0.5945637226104736,-0.3115479946136474,-0.9039241671562196,0.1290399134159088,-0.1700006574392318,0.0,0.0,0.9613491296768188,0.9994332790374756
-0.1357603967189788,0.5748163461685181,-0.320755660533905,-0.8768239617347717,0.1190640404820442,-0.1995176523923874,0.0,0.0,0.8860948085784912,0.9952468872070312
-0.1389074325561523,0.5551584362983704,-0.3035416007041931,-0.8728333115577698,0.1079728901386261,-0.2218231409788131,0.0,0.0,0.3188298940658569,0.9982907772064208
-0.1420367211103439,0.5357729196548462,-0.3004007637500763,-0.8607178330421448,0.0955433994531631,-0.2485899627208709,0.0,0.0,0.9177250862121582,0.9998650550842284
-0.1449425667524337,0.5165684223175049,-0.2769995331764221,-0.8527207970619202,0.0820871442556381,-0.2691251933574676,0.0,0.0,-0.3024343848228454,0.9987168312072754
-0.1477738320827484,0.4966687262058258,-0.2685118913650512,-0.8836938142776489,0.0676189959049224,-0.2893632650375366,0.0,0.0,0.979972004890442,0.9735994338989258
-0.1504597663879394,0.4775291979312897,-0.2528820633888244,-0.8500126004219055,0.0520917735993862,-0.3105448186397552,0.0,0.0,0.8984808921813965,0.99190092086792
-0.1529211997985839,0.4588761329650879,-0.2293906211853027,-0.8285272121429443,0.0355361513793468,-0.3311124742031097,0.0,0.0,0.8838961124420166,0.9928375482559204
-0.1552316695451736,0.4409517347812652,-0.2131107151508331,-0.7963060736656189,0.0178201794624328,-0.3543192148208618,0.0,0.0,-0.5621662139892578,0.997922420501709
-0.1574612557888031,0.4223403632640838,-0.2039349526166916,-0.8270559310913086,-0.0009613309521228,-0.3756303787231445,0.0,0.0,0.9435992240905762,0.4149181842803955
-0.1596173346042633,0.4036844074726105,-0.1975412368774414,-0.8292587995529175,-0.0187940057367086,-0.3566536903381347,0.0,0.0,0.7194831371307373,0.8142067193984985
-0.1617965698242187,0.3854310810565948,-0.1986872851848602,-0.8116092681884766,-0.0377872884273529,-0.3798656165599823,0.0,0.0,0.9356398582458496,0.2501779794692993
-0.1637938469648361,0.3673796653747558,-0.1818660348653793,-0.8028314113616943,-0.0554383806884288,-0.3530220091342926,0.0,0.0,0.9139668941497804,-0.7016610503196716
-0.1657627075910568,0.3496957719326019,-0.1812048107385635,-0.7866031527519226,-0.0709474086761474,-0.3101806640625,0.0,0.0,0.9086854457855223,-0.7601330876350403
-0.1677336692810058,0.3320043385028839,-0.1836597919464111,-0.7869744896888733,-0.0842474997043609,-0.2660014629364013,0.0,0.0,0.9858342409133912,0.0231534242630004
-0.1697770059108734,0.3146928548812866,-0.1909064650535583,-0.7702096104621887,-0.097560316324234,-0.2662563920021057,0.0,0.0,0.9963808059692384,-0.1972647905349731
-0.1716773957014084,0.2982203960418701,-0.1774250119924545,-0.7329784631729126,-0.110076792538166,-0.2503294646739959,0.0,0.0,0.95224130153656,-0.3745708465576172
-0.1734266281127929,0.2815458476543426,-0.1634615659713745,-0.7419764995574951,-0.1214675530791282,-0.22781503200531,0.0,0.0,0.9941201210021972,-0.6777649521827698
-0.1750516891479492,0.2657145857810974,-0.1532009243965149,-0.7043925523757935,-0.1307340860366821,-0.1853307783603668,0.0,0.0,0.9986553192138672,0.1224751472473144
-0.1766979247331619,0.2500549852848053,-0.1554695069789886,-0.6968117952346802,-0.1398489624261856,-0.1822976171970367,0.0,0.0,0.9987472295761108,-0.0511684417724609
-0.1783225983381271,0.2349328398704528,-0.1534973233938217,-0.6729608178138733,-0.1487989127635955,-0.1789989620447158,0.0,0.0,0.99263334274292,0.582866907119751
-0.1797339469194412,0.2202037125825882,-0.1317993104457855,-0.6555862426757812,-0.1581227481365203,-0.1864767968654632,0.0,0.0,0.9996029138565063,-0.2074160575866699
-0.1811209619045257,0.206322968006134,-0.129333958029747,-0.6179441213607788,-0.1674880683422088,-0.1873064935207367,0.0,0.0,0.9959820508956908,0.1029821634292602
-0.1822867393493652,0.1927491277456283,-0.10832279920578,-0.6042353510856628,-0.1757626682519912,-0.1654920876026153,0.0,0.0,0.9984562397003174,0.2703404426574707
-0.1833928078413009,0.1791815906763076,-0.1028531193733215,-0.6039383411407471,-0.1835455298423767,-0.1556571274995803,0.0,0.0,0.9995291233062744,-0.2956646680831909
-0.1843293160200119,0.1654684841632843,-0.0869538187980651,-0.610312819480896,-0.1902670115232467,-0.1344299465417862,0.0,0.0,0.9980599880218506,-0.5268672704696655
-0.1852527558803558,0.1516746431589126,-0.0872593969106674,-0.6137216091156006,-0.1953748315572738,-0.1021564751863479,0.0,0.0,0.9993065595626832,-0.1947637200355529
-0.1859833747148513,0.138592392206192,-0.068618930876255,-0.5820267200469971,-0.1998484581708908,-0.0894727855920791,0.0,0.0,0.9998122453689576,-0.469239592552185
-0.1864070892333984,0.1262290626764297,-0.0390491858124733,-0.5499326586723328,-0.2031927704811096,-0.0668861120939254,0.0,0.0,0.9999624490737916,-0.5498591065406799
-0.1867982894182205,0.1146773919463157,-0.0371623933315277,-0.5136774182319641,-0.2051690965890884,-0.03952656686306,0.0,0.0,0.9976600408554076,-0.7117120027542114
-0.1873140335083007,0.1030712947249412,-0.0512845925986766,-0.5158668756484985,-0.205454871058464,-0.0057158581912517,0.0,0.0,0.9999878406524658,-0.766039252281189
-0.187626451253891,0.0921753048896789,-0.0332901291549205,-0.4839843511581421,-0.2033917307853698,0.0412627048790454,0.0,0.0,0.9995677471160888,-0.4964516162872314
-0.1879044473171234,0.0816356539726257,-0.0299571696668863,-0.4681335091590881,-0.2012146860361099,0.0435408055782318,0.0,0.0,0.9999912977218628,-0.5130845904350281
-0.1881132125854492,0.0716332271695137,-0.0245273299515247,-0.4440594017505646,-0.1975371390581131,0.0735505074262619,0.0,0.0,0.9999908208847046,0.1261955499649047
-0.1881574690341949,0.0621762610971927,-0.0086902631446719,-0.4197458028793335,-0.1932457834482193,0.0858271121978759,0.0,0.0,0.99833083152771,-0.2339475750923156
-0.1879511773586273,0.0530211292207241,0.0151920448988676,-0.4061951637268066,-0.1877860724925995,0.1091941446065902,0.0,0.0,0.9999276399612428,0.3860577344894409
-0.1876283586025238,0.0437651500105857,0.0260354671627283,-0.4106014668941498,-0.1815135031938552,0.1254514008760452,0.0,0.0,0.9845181703567504,0.4236266613006592
-0.1870984137058258,0.0344892106950283,0.045549638569355,-0.4113716185092926,-0.1740457862615585,0.1493540704250335,0.0,0.0,0.99999737739563,0.7159881591796875
-0.1861947029829025,0.0254666190594434,0.0832012146711349,-0.4001795947551727,-0.1668609231710434,0.1436970680952072,0.0,0.0,1.0,0.8377282619476318
-0.1849572211503982,0.0163784362375736,0.1171801835298538,-0.4031974673271179,-0.1602872610092163,0.1314733028411865,1.0,0.0,0.9982171058654784,-0.6248607039451599
-0.1835781037807464,0.0088067390024662,0.1116532236337661,-0.3340514600276947,-0.1337119787931442,0.5319976806640625,1.0,1.0,0.8491058349609375,0.8901321887969971
-0.1817996948957443,0.0031652664765715,0.1494354307651519,-0.249112993478775,-0.1087098568677902,0.4960814416408539,1.0,1.0,0.8903038501739502,0.8569381237030029
-0.1797535866498947,-0.0008343720692209,0.1815415918827057,-0.1762573719024658,-0.0859277918934822,0.4555068016052246,1.0,1.0,0.6024847030639648,0.6738138198852539
-0.1775250434875488,-0.0038872265722602,0.2013791501522064,-0.1345988661050796,-0.0647548958659172,0.4233521521091461,1.0,1.0,0.422635555267334,0.1155567169189453
-0.1753138601779937,-0.005793061107397,0.2002263367176056,-0.0839473456144332,-0.0441512018442153,0.411994993686676,1.0,1.0,-0.2353649139404297,-0.8331908583641052
-0.1731667518615722,-0.0072748209349811,0.1939451992511749,-0.0653876140713691,-0.0237004961818456,0.4089431166648865,1.0,1.0,-0.5377340316772461,-0.8815856575965881
-0.171112060546875,-0.0084122205153107,0.1863130033016204,-0.050369132310152,-0.0048247864469885,0.3774528205394745,1.0,1.0,-0.8521016240119934,-0.9893674850463868
-0.1691821068525314,-0.009259476326406,0.1765478998422622,-0.0376886278390884,0.0113739371299743,0.3239244818687439,1.0,1.0,-0.9342043399810792,-0.9998515844345092
-0.1673564016819,-0.0098506351932883,0.1703141182661056,-0.0264172423630952,0.0234421081840991,0.2413276731967926,1.0,1.0,-0.9179331064224244,-0.9987161755561828
-0.1656515151262283,-0.0101880216971039,0.1618167459964752,-0.0151556460186839,0.0319857560098171,0.1708472073078155,1.0,1.0,-0.837623119354248,-0.9961836338043212
-0.1640667915344238,-0.0102596543729305,0.1527402102947235,-0.0033191964030265,0.0376254580914974,0.1127765551209449,1.0,1.0,-0.902656614780426,-0.9909157156944276
-0.1625895500183105,-0.0100559135898947,0.1444823145866394,0.0089687872678041,0.0408223383128643,0.0639256462454795,1.0,1.0,-0.8366360664367676,-0.9874825477600098
-0.1612248420715332,-0.0095740817487239,0.1345459669828415,0.0213615000247955,0.0427151620388031,0.0378481671214103,1.0,1.0,-0.8754636645317078,-0.9923884272575378
-0.1599707603454589,-0.0088581470772624,0.1237186938524246,0.0317722037434577,0.0443773232400417,0.0332377925515174,1.0,1.0,-0.858909547328949,-0.9831306338310242
-0.1587884873151779,-0.0079686548560857,0.1166982278227806,0.0394886322319507,0.0458834618330001,0.0301199946552515,1.0,1.0,-0.7744759321212769,-0.9396625757217408
-0.1576771736145019,-0.0070052053779363,0.1092108488082885,0.0427604839205741,0.047776635736227,0.0378612391650676,1.0,1.0,-0.7903804183006287,-0.9861363768577576
-0.1566786766052246,-0.0063585066236555,0.1046023517847061,0.0288903061300516,0.0430848971009254,-0.0938368663191795,1.0,1.0,-0.8097291588783264,-0.984703004360199
-0.1557611525058746,-0.0059178378432989,0.0950101763010025,0.0196767915040254,0.0398552455008029,-0.0645940452814102,1.0,1.0,-0.7024577260017395,-0.9540784358978271
-0.1548983603715896,-0.0056824111379683,0.0880610272288322,0.0105101158842444,0.0380945987999439,-0.035213928669691,1.0,1.0,-0.8335289359092712,-0.9272700548171996
-0.1540985107421875,-0.0056217219680547,0.0805016010999679,0.002709935652092,0.0375885777175426,-0.0101223792880773,1.0,1.0,-0.7673425078392029,-0.8046178221702576
-0.1533659994602203,-0.005649259313941,0.0731285661458969,-0.0012282046955078,0.0377142056822776,0.0025106712710112,1.0,1.0,-0.5969220995903015,-0.8054739236831665
-0.1526966094970703,-0.0056757950223982,0.0668222904205322,-0.0011836185585707,0.0378274172544479,0.0022619972005486,1.0,1.0,-0.7355412244796753,-0.4318089485168457
-0.1520291268825531,-0.0056105996482074,0.0672991126775741,0.0029098172672092,0.0372783653438091,-0.0109827490523457,1.0,1.0,-0.771382212638855,-0.6432416439056396
-0.151432603597641,-0.0054670479148626,0.0607913136482238,0.0064069018699228,0.0361572429537773,-0.0224237069487571,1.0,1.0,-0.6258657574653625,-0.6293512582778931
-0.1509061753749847,-0.0052382731810212,0.0544077344238758,0.0102102160453796,0.0344133339822292,-0.034879095852375,1.0,1.0,-0.7040272355079651,-0.5832736492156982
-0.1504354476928711,-0.004928424488753,0.0494418889284133,0.0138223208487033,0.0320767425000667,-0.0467321500182151,1.0,1.0,-0.7212542295455933,-0.4939988851547241
-0.1499658524990081,-0.0045427228324115,0.0498839877545833,0.0172008872032165,0.0291872415691614,-0.0577891953289508,1.0,1.0,-0.6190414428710938,-0.3620883226394653
-0.1494951248168945,-0.0041321660391986,0.0501823239028453,0.0183054246008396,0.0261119473725557,-0.0615045316517353,1.0,1.0,-0.7951615452766418,-0.4913443326950073
-0.1490213423967361,-0.0037416005507111,0.0503536388278007,0.0174070205539464,0.0231766626238822,-0.058703988790512,1.0,1.0,-0.6277939677238464,-0.4852396845817566
-0.1485431641340255,-0.0033998512662947,0.0504437275230884,0.015225738286972,0.0205923337489366,-0.0516850538551807,1.0,1.0,-0.6280168890953064,-0.3149357438087463
-0.1480599343776703,-0.0031162523664534,0.0505086258053779,0.0126325776800513,0.0184287019073963,-0.0432715490460395,1.0,1.0,-0.6812183856964111,-0.410863995552063
