x_pos,y_pos,x_vel,y_vel,angle,ang_vel,leg_1,leg_2,main_booster,lat_booster
-0.0014631270896643,1.402942180633545,-0.1483275592327118,-0.3545694947242737,0.0018031226936727,0.0355714932084083,0.0,0.0,-0.8444224785748293,0.6135161163874533
-0.0028202056419104,1.394302487373352,-0.1362186968326568,-0.3839859962463379,0.0023175261449068,0.0102897528558969,0.0,0.0,0.6336621031912106,-0.6439495056626799
-0.0040386198088526,1.3855750560760498,-0.1240889206528663,-0.3878924548625946,0.0045356317423284,0.0443661138415336,0.0,0.0,-0.6225398353554974,-0.6470204046445427
-0.0052786828018724,1.3761627674102783,-0.1278798282146453,-0.418337345123291,0.008365879766643,0.0766119435429573,0.0,0.0,0.5370917371014343,0.8824135611116675
-0.0062880516052246,1.3669840097427368,-0.1033270508050918,-0.4079644083976745,0.0107360770925879,0.0474084168672561,0.0,0.0,0.2577365334633175,-0.9949831703570408
-0.0072340010665357,1.3577423095703125,-0.0991207286715507,-0.4107764661312103,0.0152171552181243,0.0896295458078384,0.0,0.0,0.3566725725974262,0.8490806972324451
-0.008125496096909,1.3485310077667236,-0.0920519977807998,-0.4094244837760925,0.018083231523633,0.0573269128799438,0.0,0.0,0.2302002808952101,-0.8663859505758283
-0.0089580537751317,1.3393642902374268,-0.0880910530686378,-0.4074746668338775,0.0228691659867763,0.0957270637154579,0.0,0.0,-0.1598512514602865,-0.7812980602322733
-0.0098537448793649,1.3295222520828247,-0.0961127206683158,-0.4375416338443756,0.0293334145098924,0.1292971074581146,0.0,0.0,-0.9474080438365328,0.8118999044325221
-0.0106942178681492,1.3190064430236816,-0.089068092405796,-0.4674795567989349,0.0342965759336948,0.0992723107337951,0.0,0.0,-0.2065604980663644,-0.9558542019285255
-0.0116157531738281,1.3078062534332275,-0.0989201664924621,-0.4979563057422638,0.0409959182143211,0.1339990645647049,0.0,0.0,0.3844261949329801,0.6534725880898514
-0.012463092803955,1.2965935468673706,-0.0904370322823524,-0.4985024333000183,0.0466431342065334,0.1129547581076622,0.0,0.0,-0.7474591381981817,0.8814939404950569
-0.0132583621889352,1.2847094535827637,-0.0831956416368484,-0.5283006429672241,0.0502849258482456,0.0728421583771705,0.0,0.0,-0.6654182667074735,-0.6816789943071357
-0.014140510931611,1.272133708000183,-0.0932317823171615,-0.5591014623641968,0.0552523434162139,0.0993575304746627,0.0,0.0,0.286750818503998,0.933764783591936
-0.0149050708860158,1.2598638534545898,-0.0798124521970748,-0.5454505681991577,0.0585778020322322,0.066515251994133,0.0,0.0,0.9532584365161104,0.7543283626593588
-0.0155442235991358,1.2474470138549805,-0.0662436634302139,-0.5519565939903259,0.0608808249235153,0.0460647232830524,0.0,0.0,-0.9164152462449022,-0.9313222457953032
-0.0163013450801372,1.23435378074646,-0.0796153098344802,-0.5820854902267456,0.0647488683462143,0.077368177473545,0.0,0.0,-0.5149545973620364,0.6041207809584911
-0.017066765576601,1.2205791473388672,-0.0790960565209388,-0.612313985824585,0.0672779977321624,0.0505872890353202,0.0,0.0,0.1722050197782465,0.9375203680246744
-0.0177898406982421,1.2069995403289795,-0.0731524676084518,-0.6035804152488708,0.0681138038635253,0.0167173910886049,0.0,0.0,-0.1419839370723352,-0.6211802793251564
-0.0186477657407522,1.1927317380905151,-0.0882032066583633,-0.6342379450798035,0.0705043449997901,0.0478149503469467,0.0,0.0,0.4730283521926892,0.709645972120113
-0.0194567684084177,1.178809404373169,-0.0822800695896148,-0.6188356280326843,0.0718708038330078,0.0273318793624639,0.0,0.0,0.9420089373155645,0.8792332239079756
-0.020308494567871,1.1649872064590454,-0.0849797576665878,-0.6143129467964172,0.0716819539666175,-0.0037773754447698,0.0,0.0,-0.2814451595416363,0.9020268816453636
-0.0211684219539165,1.1504909992218018,-0.0837749689817428,-0.6441718935966492,0.069478265941143,-0.0440774150192737,0.0,0.0,0.1660705325325968,0.7762121677181916
-0.0220250133424997,1.1356463432312012,-0.0821017473936081,-0.6596035361289978,0.0659523159265518,-0.0705256164073944,0.0,0.0,-0.6120901418669442,-0.8300473202518004
-0.0230662338435649,1.1201138496398926,-0.1027936562895774,-0.6902738809585571,0.0646417364478111,-0.0262138787657022,0.0,0.0,-0.7185910147503964,-0.7297180797827763
-0.0242856983095407,1.1038748025894165,-0.1226204633712768,-0.7217608094215393,0.0653108060359954,0.0133814336732029,0.0,0.0,-0.3281701883714556,0.7529630333426341
-0.0255565643310546,1.0869643688201904,-0.1264226585626602,-0.7515433430671692,0.0646495297551155,-0.0132255349308252,0.0,0.0,-0.369757003743689,0.7414427028561338
-0.0268964767456054,1.0693843364715576,-0.1323293894529342,-0.7812719941139221,0.0630121827125549,-0.0327470228075981,0.0,0.0,0.7715307220743752,0.9209946450112974
-0.0284891128540039,1.0523653030395508,-0.1556866765022277,-0.7562506198883057,0.0594731159508228,-0.0707812681794166,0.0,0.0,0.2088529777941929,-0.8126023991620381
-0.030305003747344,1.0351883172988892,-0.1798142492771148,-0.7633530497550964,0.0577227100729942,-0.0350081771612167,0.0,0.0,-0.0594069818875093,-0.9741808508370634
-0.0323187820613384,1.0173338651657104,-0.2016983330249786,-0.793544590473175,0.058035559952259,0.0062570325098931,0.0,0.0,0.291009453823585,0.7263997080070568
-0.0344884879887104,0.9993049502372742,-0.2159077227115631,-0.801240861415863,0.0569975525140762,-0.0207603853195905,0.0,0.0,-0.0979011479472331,0.6474319848369633
-0.0367417335510253,0.9806041717529296,-0.2233398258686065,-0.8310787081718445,0.0550361536443233,-0.039228081703186,0.0,0.0,0.6890857047933328,-0.6675456349050363
-0.0392679199576377,0.9617571830749512,-0.2520166933536529,-0.8376176357269287,0.0544345527887344,-0.0120320692658424,0.0,0.0,0.6980784909583739,-0.6658379681181884
-0.0419952385127544,0.943192422389984,-0.2736952006816864,-0.8251357674598694,0.0553912445902824,0.0191338025033473,0.0,0.0,0.2808504529658671,-0.9065439375992936
-0.0449437126517295,0.9248260855674744,-0.2978447377681732,-0.8163939118385315,0.0583542473614215,0.0592602267861366,0.0,0.0,-0.8369069052251827,0.9327618638312214
-0.0479560866951942,0.9057791233062744,-0.3026437163352966,-0.846580445766449,0.0597363002598285,0.0276412107050418,0.0,0.0,0.1664010268304987,0.9373323762770792
-0.0510313995182514,0.8868716359138489,-0.3072463870048523,-0.8403198719024658,0.0594517402350902,-0.005691226106137,0.0,0.0,-0.7576394573222947,-0.9023569611625154
-0.0543204322457313,0.8672854900360107,-0.3307467997074127,-0.8705717325210571,0.0612732097506523,0.0364293381571769,0.0,0.0,0.0894570904164662,-0.8985791939658535
-0.0578215606510639,0.8476142287254333,-0.3539704978466034,-0.874441385269165,0.0650805085897445,0.0761463120579719,0.0,0.0,-0.5706657638691983,-0.812403651429489
-0.061538316309452,0.8272606730461121,-0.3776358664035797,-0.9048691987991332,0.0709857791662216,0.1181056052446365,0.0,0.0,0.7268061637878418,0.973975658416748
-0.0652130097150802,0.8070656657218933,-0.371872991323471,-0.8977704644203186,0.0753472000360488,0.0872284621000289,0.0,0.0,-0.2347867488861084,0.9226820468902588
-0.0689440742135047,0.7861883640289307,-0.3755596876144409,-0.9280088543891908,0.0777732208371162,0.0485207661986351,0.0,0.0,0.6844016313552856,0.9848495721817015
-0.0726677924394607,0.765455424785614,-0.3731881380081177,-0.9215062260627748,0.0785789117217063,0.0161137077957391,0.0,0.0,0.5522670745849609,0.9738107919692992
-0.0765221565961837,0.7444467544555664,-0.3844433128833771,-0.9336660504341124,0.077598251402378,-0.0196132138371467,0.0,0.0,0.9954174757003784,0.9429954290390016
-0.08041562885046,0.7233660221099854,-0.3867736458778381,-0.9367921352386476,0.0750510618090629,-0.0509438887238502,0.0,0.0,0.9979920387268066,0.9913365840911864
-0.0843339934945106,0.7024243474006653,-0.3876097798347473,-0.9305302500724792,0.0708676129579544,-0.0836689323186874,0.0,0.0,0.9758384227752686,0.9557785987854004
-0.0885411277413368,0.6822957396507263,-0.4144863188266754,-0.8943261504173279,0.0647066310048103,-0.123219683766365,0.0,0.0,0.9163448810577391,0.988905668258667
-0.0930459052324295,0.6628539562225342,-0.4421718120574951,-0.8637447357177734,0.0564911514520645,-0.1643096655607223,0.0,0.0,0.575137734413147,0.9993995428085328
-0.0976679772138595,0.6434593796730042,-0.4520471096038818,-0.861631453037262,0.046457689255476,-0.200669527053833,0.0,0.0,0.5525741577148438,0.9945626258850098
-0.1022292152047157,0.6242043972015381,-0.4443188607692718,-0.8554564118385315,0.0347907915711402,-0.2333379238843917,0.0,0.0,-0.22088623046875,0.9994271993637084
-0.1068658828735351,0.6042797565460205,-0.4502342343330383,-0.885281503200531,0.0215175151824951,-0.2654652595520019,0.0,0.0,0.2606251239776611,0.9984197616577148
-0.1114802360534668,0.5841845870018005,-0.4461997449398041,-0.89296954870224,0.0064760125242173,-0.3008303046226501,0.0,0.0,0.6965279579162598,0.9998605251312256
-0.1161644905805587,0.5646492838859558,-0.4513735175132751,-0.8682445287704468,-0.0103589445352554,-0.3366990685462951,0.0,0.0,0.6445388793945312,0.9960179328918456
-0.1207448989152908,0.5451563596725464,-0.4393632411956787,-0.8665815591812134,-0.0287893582135438,-0.3686086535453796,0.0,0.0,-0.4362269639968872,0.999909520149231
-0.1254066526889801,0.5249789357185364,-0.4460116028785705,-0.8972851634025574,-0.0487054958939552,-0.3983230590820312,0.0,0.0,-0.4119950532913208,0.9997553825378418
-0.1301247626543045,0.504127562046051,-0.4495309293270111,-0.927599310874939,-0.0707335025072097,-0.4405602812767029,0.0,0.0,0.9904073476791382,0.9961090087890624
-0.1346707344055175,0.483792632818222,-0.4308652281761169,-0.905062973499298,-0.0942446961998939,-0.4702241420745849,0.0,0.0,0.8389363288879395,0.9944684505462646
-0.1391070336103439,0.4641377627849579,-0.4182835519313812,-0.8753418326377869,-0.119413211941719,-0.5033702254295349,0.0,0.0,0.945793628692627,0.9249045848846436
-0.1436060965061187,0.4452003538608551,-0.4227841794490814,-0.8440544009208679,-0.1464253216981887,-0.5402426719665527,0.0,0.0,0.8965983390808105,0.9807876348495485
-0.1480506956577301,0.4261818528175354,-0.4157515466213226,-0.8483404517173767,-0.175120010972023,-0.5738944411277771,0.0,0.0,0.9992198944091796,0.4914634227752685
-0.1526145040988922,0.407777190208435,-0.4274493753910064,-0.8216601610183716,-0.2042006552219391,-0.5816131830215454,0.0,0.0,0.9860775470733644,0.4548659324645996
-0.1570547074079513,0.3895684778690338,-0.4160934090614319,-0.8133715987205505,-0.2324223965406417,-0.564434826374054,0.0,0.0,0.9892213344573976,0.0342352390289306
-0.1614450514316558,0.3717548847198486,-0.4115788340568542,-0.7962892055511475,-0.2603445053100586,-0.5584425926208496,0.0,0.0,0.9944133758544922,-0.4566326141357422
-0.1658492088317871,0.3539662659168243,-0.4133759438991546,-0.7956485152244568,-0.2880585789680481,-0.5542813539505005,0.0,0.0,0.993620991706848,-0.2632462978363037
-0.1703414916992187,0.33659428358078,-0.4218924939632416,-0.7777414917945862,-0.3163034617900848,-0.564897894859314,0.0,0.0,0.9769561290740968,-0.4677599668502807
-0.1746380776166916,0.3199972808361053,-0.4028399884700775,-0.7437431812286377,-0.3442738950252533,-0.5594092011451721,0.0,0.0,0.9464426040649414,-0.6765323877334595
-0.1789197921752929,0.3031798899173736,-0.4033114910125732,-0.7536030411720276,-0.3704586327075958,-0.5236949324607849,0.0,0.0,0.9899671077728271,-0.69549161195755
-0.1829930245876312,0.2871434986591339,-0.3842751383781433,-0.7188934087753296,-0.394970953464508,-0.4902462959289551,0.0,0.0,0.9719319343566896,-0.4503939151763916
-0.1870999336242675,0.2712787091732025,-0.3875336349010467,-0.7117416858673096,-0.4198630154132843,-0.4978415071964264,0.0,0.0,0.9192585945129396,-0.7058747410774231
-0.1911885291337967,0.2559224367141723,-0.3871683180332184,-0.68913733959198,-0.4434215426445007,-0.4711708128452301,0.0,0.0,0.9246070384979248,-0.7698287963867188
-0.1951324492692947,0.2408869117498397,-0.3745960593223572,-0.6746763586997986,-0.4651608169078827,-0.4347853660583496,0.0,0.0,0.855553388595581,-0.7463363409042358
-0.1989887207746505,0.2265976816415786,-0.3672593533992767,-0.641360342502594,-0.4855377674102783,-0.4075388014316559,0.0,0.0,0.8422640562057495,-0.857166588306427
-0.2026718109846115,0.2124680876731872,-0.3519876897335052,-0.6338393092155457,-0.5038374066352844,-0.3659925460815429,0.0,0.0,0.9205931425094604,-0.853325605392456
-0.2063816487789154,0.1983299851417541,-0.3564192652702331,-0.6338077187538147,-0.5203169584274292,-0.3295904695987701,0.0,0.0,0.9249893426895142,-0.8603111505508423
-0.2100373208522796,0.1839820891618728,-0.3529494106769562,-0.6425714492797852,-0.5347246527671814,-0.2881537675857544,0.0,0.0,0.845693826675415,-0.8640246987342834
-0.2137423455715179,0.1695167571306228,-0.3595966398715973,-0.6472635865211487,-0.547280490398407,-0.2511150240898132,0.0,0.0,0.932197093963623,-0.8390975594520569
-0.2171752005815506,0.1556242853403091,-0.3340604305267334,-0.621230959892273,-0.5579664707183838,-0.2137193232774734,0.0,0.0,0.9736528396606444,-0.8212818503379822
-0.2202031165361404,0.1422650963068008,-0.2953986823558807,-0.5968456864356995,-0.5665922164916992,-0.17251518368721,0.0,0.0,0.9669488668441772,-0.7631609439849854
-0.223026230931282,0.1296260952949524,-0.2761527895927429,-0.5643635392189026,-0.5738083720207214,-0.1443221569061279,0.0,0.0,0.9956655502319336,-0.898510754108429
-0.2259860932826995,0.1169976070523262,-0.2912822961807251,-0.563306450843811,-0.5793514251708984,-0.1108607202768325,0.0,0.0,0.993905544281006,-0.7587774991989136
-0.2285742312669754,0.1048950552940368,-0.2556610107421875,-0.539271891117096,-0.5830732583999634,-0.0744367763400077,0.0,0.0,0.9990954399108888,-0.3502152562141418
-0.231028750538826,0.0930832475423812,-0.2418810576200485,-0.5265447497367859,-0.5873024463653564,-0.0845838338136673,0.0,0.0,0.9993448257446288,-0.5403751134872437
-0.2332683503627777,0.0817083939909935,-0.2212562263011932,-0.5067535638809204,-0.5905129909515381,-0.0642107427120208,0.0,0.0,0.999769687652588,-0.7849193215370178
-0.2352456152439117,0.0707729160785675,-0.1964620649814605,-0.4865821599960327,-0.5920127630233765,-0.0299953483045101,0.0,0.0,0.999199151992798,-0.3282560706138611
-0.2368886917829513,0.0599430911242961,-0.1634978652000427,-0.481692761182785,-0.5929810404777527,-0.0193655937910079,0.0,0.0,0.999864101409912,-0.0084751844406127
-0.2386165559291839,0.0507099255919456,-0.1849054545164108,-0.4047805666923523,-0.5793508291244507,0.2714608311653137,1.0,0.0,0.996476411819458,-0.7450013756752014
-0.2398503720760345,0.0414306260645389,-0.1431213915348053,-0.4040054082870483,-0.5562088489532471,0.4628570973873138,1.0,0.0,0.9997724294662476,-0.5284921526908875
-0.2406642884016037,0.0333174094557762,-0.1128667369484901,-0.3489673733711242,-0.5148124098777771,0.835345447063446,1.0,0.0,0.9999442100524902,0.132881760597229
-0.2409796714782714,0.0259398315101861,-0.0846188813447952,-0.3093213737010956,-0.4549043178558349,1.1990758180618286,1.0,0.0,0.9979054927825928,0.6383328437805176
-0.2407405376434326,0.019764170050621,-0.0443487279117107,-0.2541190683841705,-0.3809762597084045,1.478695034980774,1.0,0.0,0.9969894886016846,0.4773843288421631
-0.2400652468204498,0.0144885154440999,-0.0091465814039111,-0.2161822170019149,-0.3004096150398254,1.611549735069275,1.0,1.0,0.9242085218429564,0.980226755142212
-0.2389927804470062,0.0102047063410282,0.0484004542231559,-0.1796920299530029,-0.2426554709672927,1.1519672870635986,1.0,1.0,0.9165117740631104,0.9690804481506348
-0.2377773225307464,0.0063463663682341,0.0861940756440162,-0.1660805195569992,-0.2069021016359329,0.7150002121925354,0.0,1.0,0.922392964363098,0.9948596954345704
-0.2365545332431793,0.0032851076684892,0.1085625141859054,-0.1342022567987442,-0.1930947601795196,0.2761375606060028,0.0,1.0,0.829180121421814,0.9776456356048584
-0.2350643575191497,0.0017965531442314,0.148904874920845,-0.066167451441288,-0.192886546254158,0.0042976299300789,1.0,1.0,-0.4264596700668335,-0.1684942245483398
-0.2336025685071945,0.0007184123969636,0.1491880267858505,-0.0483290366828441,-0.195825308561325,-0.0586578026413917,1.0,1.0,0.1387065649032592,-0.2833173871040344
-0.2321168929338455,0.0009180760243907,0.1512067019939422,0.0085144871845841,-0.1984299570322036,-0.0520285591483116,1.0,1.0,-0.5854290723800659,-0.485234260559082
-0.2306208163499832,0.001496753655374,0.1497137397527694,0.0256947558373212,-0.1984954327344894,-0.0012522360775619,1.0,1.0,-0.65349280834198,-0.6889329552650452
-0.2291758060455322,0.0023994778748601,0.1414945423603058,0.0405165627598762,-0.1954400986433029,0.0611443594098091,1.0,1.0,-0.6746104955673218,-0.6354935169219971
-0.2277947962284088,0.0035109496675431,0.1342643201351165,0.0499003641307354,-0.1915615797042846,0.0775938630104065,1.0,1.0,-0.7414347529411316,-0.6239372491836548
-0.2264825850725174,0.0046946262009441,0.1281301081180572,0.0530029460787773,-0.1884391754865646,0.0624664239585399,1.0,1.0,-0.8548860549926758,-0.5690534114837646
-0.2252427637577057,0.0058338139206171,0.12188670784235,0.0508938021957874,-0.186316967010498,0.0424618124961853,1.0,1.0,-0.8037899732589722,-0.0649971961975097
-0.2240171879529953,0.006821546703577,0.1217591315507888,0.0440007261931896,-0.1854982823133468,0.0163944009691476,1.0,1.0,-0.8448454141616821,-0.302363634109497
-0.2227972447872162,0.0076048229821026,0.1212368831038475,0.0349037200212478,-0.184723824262619,0.0155094116926193,1.0,1.0,-0.7162901759147644,-0.6549849510192871
-0.2216279506683349,0.0081794951111078,0.1150809153914451,0.0257675629109144,-0.182854488492012,0.0374027341604232,1.0,1.0,-0.737152099609375,-0.50051349401474
-0.2204959839582443,0.0085772490128874,0.1111834645271301,0.0179226100444793,-0.1808296591043472,0.0405123010277748,1.0,1.0,-0.7886734008789062,-0.1191228628158569
-0.2193734645843505,0.0088402489200234,0.1107988506555557,0.0118602458387613,-0.1793564409017563,0.0294825341552495,1.0,1.0,-0.6912758350372314,-0.3475812673568725
-0.2182581424713134,0.0090358350425958,0.1102654337882995,0.0088397543877363,-0.1780685037374496,0.0257771424949169,1.0,1.0,-0.6432438492774963,-0.2506449222564697
-0.2171484529972076,0.0092314220964908,0.1096153035759925,0.0088513297960162,-0.1766970157623291,0.0274470709264278,1.0,1.0,-0.6256364583969116,-0.4564769864082336
-0.2160440385341644,0.0094830133020877,0.1089145541191101,0.0113624157384037,-0.1751576960086822,0.0308014042675495,1.0,1.0,-0.8085314631462097,-0.5744466185569763
-0.2149869948625564,0.00984160695225,0.1035531759262085,0.0161859225481748,-0.1729957163333892,0.0432493202388286,1.0,1.0,-0.6472311019897461,-0.4797863364219665
-0.2139404267072677,0.0103060575202107,0.1030817404389381,0.0208210349082946,-0.1714106947183609,0.0317102298140525,1.0,1.0,-0.7868722677230835,-0.408343493938446
-0.2129023075103759,0.0108693931251764,0.102506086230278,0.0251893308013677,-0.1700931787490844,0.0263589769601821,1.0,1.0,-0.7180438041687012,-0.1282081604003906
-0.2118705809116363,0.0115084741264581,0.1018362492322921,0.0285568516701459,-0.1687493771314621,0.0268830209970474,1.0,1.0,-0.7518275380134583,-0.2691301107406616
-0.2108443230390548,0.0121901128441095,0.1011320799589157,0.0304641705006361,-0.1672522723674774,0.0299469772726297,1.0,1.0,-0.6066700220108032,-0.2607178688049316
-0.2098236083984375,0.0128786182031035,0.1004452258348465,0.0307821985334157,-0.1656220108270645,0.0326082110404968,1.0,1.0,-0.7633822560310364,-0.2149363160133361
-0.2088088095188141,0.0135424472391605,0.0997954457998275,0.0296929217875003,-0.1639385968446731,0.0336709357798099,1.0,1.0,-0.7499311566352844,-0.3667604923248291
-0.207800343632698,0.0141594978049397,0.0991755947470665,0.0276087801903486,-0.1622695326805114,0.033383585512638,1.0,1.0,-0.6832209229469299,-0.4769711494445801
-0.2067984640598297,0.0147194005548954,0.0985674709081649,0.0250584762543439,-0.1606425195932388,0.0325431413948535,1.0,1.0,-0.6360999941825867,-0.6221797466278076
-0.2058493643999099,0.0152271604165434,0.0927887335419654,0.0227957256138324,-0.1585156172513961,0.0425381027162075,1.0,1.0,-0.670271098613739,-0.4175968170166015
