x_pos,y_pos,x_vel,y_vel,angle,ang_vel,leg_1,leg_2,main_booster,lat_booster
-0.0014928817981854,1.403261423110962,-0.1520930826663971,-0.3403845727443695,0.0025049515534192,0.0494681783020496,0.0,0.0,-0.3156220912933349,0.9301931858062744
-0.0028744698502123,1.3952586650848389,-0.1393680423498153,-0.3556760847568512,0.0037018710281699,0.0239411853253841,0.0,0.0,-0.3184197545051574,0.7160158157348633
-0.0041538239456713,1.3868879079818726,-0.1281519830226898,-0.3720434308052063,0.0039201793260872,0.0043666316196322,0.0,0.0,-0.0953852534294128,0.4562407732009887
-0.0053982734680175,1.3781538009643557,-0.1254306435585022,-0.3881809115409851,0.0048894067294895,0.0193864218890666,0.0,0.0,-0.0980008244514465,0.4892282485961914
-0.0066066742874681,1.3690568208694458,-0.1225879043340683,-0.4043156504631042,0.0066086812876164,0.0343886092305183,0.0,0.0,-0.2864112854003906,0.815502405166626
-0.0076992036774754,1.359596610069275,-0.1097457036375999,-0.4204587340354919,0.0070973862893879,0.009774918667972,0.0,0.0,-0.0266510248184204,0.6439516544342041
-0.0087044714018702,1.34977388381958,-0.1005374565720558,-0.4365639984607696,0.0071100047789514,0.0002525510208215,0.0,0.0,-0.3526282906532287,0.7360935211181641
-0.0095977783203125,1.339591145515442,-0.0882612615823745,-0.4525600075721741,0.00605422956869,-0.021117566153407,0.0,0.0,0.3766200542449951,0.409785509109497
-0.0104643823578953,1.330091118812561,-0.0863115787506103,-0.4222140610218048,0.0057005127891898,-0.0070748045109212,0.0,0.0,-0.918726086616516,0.1681677103042602
-0.0112892147153615,1.3202282190322876,-0.0828712731599807,-0.4383568167686462,0.0060953171923756,0.007897088304162,0.0,0.0,-0.7326416969299316,0.3506327867507934
-0.0120707508176565,1.3100022077560425,-0.0793212503194809,-0.454487681388855,0.0072381366044282,0.0228584390133619,0.0,0.0,-0.299463152885437,0.3580392599105835
-0.0128082279115915,1.299413561820984,-0.075664222240448,-0.4706214964389801,0.0091280629858374,0.0378022119402885,0.0,0.0,-0.7502070069313049,-0.1093953251838684
-0.0135005954653024,1.2884619235992432,-0.0719030350446701,-0.4867562353610992,0.0117640895769,0.052725363522768,0.0,0.0,-0.8878565430641174,0.1398576498031616
-0.0141468998044729,1.277147650718689,-0.0680409148335456,-0.5028914213180542,0.015145088545978,0.0676262006163597,0.0,0.0,-0.7756579518318176,-0.5061278939247131
-0.014776611700654,1.2654752731323242,-0.0679231733083725,-0.5188333988189697,0.020038679242134,0.0978803783655166,0.0,0.0,-0.8070605993270874,0.4517552852630615
-0.0153583530336618,1.2534403800964355,-0.0638716071844101,-0.5349708199501038,0.0256743021309375,0.1127229481935501,0.0,0.0,-0.6444628238677979,0.1798640489578247
-0.0158911701291799,1.2410430908203125,-0.059729091823101,-0.5511088967323303,0.0320511385798454,0.1275480538606643,0.0,0.0,-0.7681378722190857,0.6259222030639648
-0.0163129810243845,1.2282813787460327,-0.0478265918791294,-0.567320704460144,0.0376317128539085,0.1116217821836471,0.0,0.0,-0.5378425717353821,0.6088812351226807
-0.0166286472231149,1.2151663303375244,-0.0365224964916706,-0.5830286145210266,0.0425461642444133,0.0982976481318473,0.0,0.0,-0.8189986348152161,0.4073550701141357
-0.0168927200138568,1.2016888856887815,-0.0321217961609363,-0.5991679430007935,0.0481976941227912,0.1130405440926551,0.0,0.0,-0.8443669080734253,0.4882158041000366
-0.0171047206968069,1.1878494024276731,-0.027646031230688,-0.6153080463409424,0.054584015160799,0.1277381479740142,0.0,0.0,-0.9192925095558168,0.7748491764068604
-0.0172012336552143,1.173648715019226,-0.0152604635804891,-0.6313592791557312,0.060133758932352,0.1110047921538353,0.0,0.0,-0.6621607542037964,0.2007838487625122
-0.0172442439943552,1.159085988998413,-0.0106417573988437,-0.6475006341934204,0.066415749490261,0.125650867819786,0.0,0.0,-0.5225566625595093,0.8339303731918335
-0.0171591751277446,1.1441594362258911,0.0032951082102954,-0.6636451482772827,0.0715770721435546,0.1032358855009079,0.0,0.0,-0.7699998021125793,0.3981974124908447
-0.0170193668454885,1.1288708448410034,0.008039828389883,-0.6797870397567749,0.0774668902158737,0.117806889116764,0.0,0.0,-0.8183276057243347,0.7548031806945801
-0.0167780872434377,1.113208293914795,0.018592907115817,-0.6964102387428284,0.0829418450593948,0.1094991117715835,0.0,0.0,-0.853253960609436,0.816236138343811
-0.0164165496826171,1.0971970558166504,0.03156029433012,-0.7118737101554871,0.0875035300850868,0.0912336558103561,0.0,0.0,-0.6031320691108704,0.7431188821792603
-0.0159530639648437,1.0808374881744385,0.0421855375170707,-0.7273346781730652,0.0916261449456214,0.0824521631002426,0.0,0.0,-0.4774206876754761,0.8720946311950684
-0.0153794288635253,1.0641309022903442,0.0538535788655281,-0.7427412271499634,0.0951057001948356,0.0695912986993789,0.0,0.0,-0.4578297138214111,0.6871709823608398
-0.0146962162107229,1.0470670461654663,0.0654201805591583,-0.7585777640342712,0.0979828238487243,0.0575426407158374,0.0,0.0,-0.3374114036560058,0.4536751508712768
-0.0139554981142282,1.0296413898468018,0.0704473778605461,-0.7747165560722351,0.1015763282775878,0.0718699097633361,0.0,0.0,-0.4435659646987915,0.878894567489624
-0.0130965234711766,1.011857986450195,0.0830982327461242,-0.7905688881874084,0.1043595001101493,0.0556635670363903,0.0,0.0,0.1869204044342041,0.6043194532394409
-0.0122579578310251,0.9945745468139648,0.0816672667860984,-0.7683055400848389,0.106537364423275,0.0435571298003196,0.0,0.0,0.632810115814209,0.0747179985046386
-0.0114618297666311,0.9774509072303772,0.0770034566521644,-0.7612411379814148,0.1091322004795074,0.0518962331116199,0.0,0.0,0.1308492422103881,0.0680691003799438
-0.0106431003659963,0.9606073498725892,0.0784928351640701,-0.7488521337509155,0.112483836710453,0.067032977938652,0.0,0.0,-0.043006956577301,0.6825211048126221
-0.0097113605588674,0.9434164762496948,0.0905100256204605,-0.7642433643341064,0.115132637321949,0.0529762208461761,0.0,0.0,0.1119091510772705,0.8988751173019409
-0.0087061878293752,0.926324427127838,0.098953440785408,-0.7597679495811462,0.1166846677660942,0.0310407523065805,0.0,0.0,-0.1006425619125366,0.2567696571350097
-0.0076429368928074,0.9088704586029052,0.1040692329406738,-0.7759071588516235,0.1189315468072891,0.0449376031756401,0.0,0.0,0.295087456703186,0.8670861721038818
-0.006567764095962,0.8920539617538452,0.1063379645347595,-0.7474946975708008,0.1201046332716941,0.0234617702662944,0.0,0.0,0.3324744701385498,0.8418123722076416
-0.0054018022492527,0.8756234049797058,0.1163958087563514,-0.7302654385566711,0.1203097403049469,0.0041021686047315,0.0,0.0,-0.2366293668746948,0.5983169078826904
-0.0041399002075195,0.8588427901268005,0.1262817680835724,-0.7457908391952515,0.1202116981148719,-0.0019609131850302,0.0,0.0,-0.4559932947158813,0.6981493234634399
-0.0027545928023755,0.8417108058929443,0.1396353989839553,-0.7613317370414734,0.1191116049885749,-0.0220016445964574,0.0,0.0,-0.479434609413147,-0.1972650289535522
-0.0013123512035235,0.8242169618606567,0.1446511298418045,-0.7774706482887268,0.1186824962496757,-0.008582167327404,0.0,0.0,-0.3107318878173828,-0.4309413433074951
0.000186347955605,0.8063611388206482,0.1496292054653167,-0.7936094999313354,0.1189183965325355,0.0047181532718241,0.0,0.0,-0.1801596879959106,0.3337688446044922
0.0017409324645996,0.7881434559822083,0.1545634567737579,-0.8097482919692993,0.1198128908872604,0.0178898889571428,0.0,0.0,-0.4829506874084472,-0.202279508113861
0.0033509253989905,0.7695638537406921,0.1594476252794265,-0.8258870840072632,0.1213590502738952,0.0309230592101812,0.0,0.0,-0.4781331419944763,0.3749928474426269
0.0050157546065747,0.7506222724914551,0.1642752885818481,-0.8420260548591614,0.1235493868589401,0.0438068434596061,0.0,0.0,-0.7156525254249573,-0.0503049492835998
0.0067345621064305,0.7313189506530762,0.1690398901700973,-0.8581652045249939,0.1263758838176727,0.0565296411514282,0.0,0.0,0.4379647970199585,-0.2219023704528808
0.0083056446164846,0.7126526236534119,0.1541723310947418,-0.8298624157905579,0.1292955577373504,0.0583936348557472,0.0,0.0,0.1026870012283325,0.2472699880599975
0.0098712919279932,0.6941269636154175,0.153079479932785,-0.8236746191978455,0.1327679753303527,0.0694484710693359,0.0,0.0,0.4710118770599365,0.1884931325912475
0.0115477563813328,0.6760206818580627,0.1629512161016464,-0.8051421642303467,0.1374391913414001,0.093424491584301,0.0,0.0,0.1268558502197265,0.6174657344818115
0.0132102016359567,0.6583046317100525,0.1622606217861175,-0.787754476070404,0.1414079517126083,0.0793751031160354,0.0,0.0,0.3239394426345825,0.5982805490493774
0.0150140766054391,0.6407830119132996,0.1768338680267334,-0.7790839076042175,0.1449562609195709,0.0709659904241561,0.0,0.0,-0.0790538787841796,0.4771770238876343
0.0168661121279001,0.6228996515274048,0.1810732781887054,-0.7952240705490112,0.1490778774023056,0.082432672381401,0.0,0.0,0.1937320232391357,0.6471195220947266
0.0188824646174907,0.605212926864624,0.19806769490242,-0.7864364981651306,0.1526442319154739,0.0713268667459487,0.0,0.0,-0.054513394832611,-0.6544803977012634
0.0208853725343942,0.587148129940033,0.1946583688259124,-0.8034682869911194,0.1582751721143722,0.1126187443733215,0.0,0.0,0.479748010635376,0.9404563903808594
0.022986888885498,0.5698279738426208,0.2057842016220092,-0.7702581882476807,0.1626449674367904,0.0873957797884941,0.0,0.0,0.4389973878860473,0.6926981210708618
0.0252205841243267,0.5530639290809631,0.2196317911148071,-0.7454801797866821,0.166378766298294,0.0746760591864585,0.0,0.0,-0.5462416410446167,-0.1498801708221435
0.0274950973689556,0.5359382629394531,0.2232237160205841,-0.7616204023361206,0.1706100851297378,0.0846262648701667,0.0,0.0,0.191208004951477,-0.2189251780509948
0.0296584125608205,0.5192744731903076,0.2118860930204391,-0.7411307096481323,0.175066664814949,0.0891318097710609,0.0,0.0,0.4150036573410034,0.1715633869171142
0.0318470001220703,0.5027289390563965,0.2137534916400909,-0.7359650135040283,0.180186241865158,0.1023915633559227,0.0,0.0,0.4355412721633911,0.6879208087921143
0.0339201912283897,0.4867135286331177,0.2033270895481109,-0.7122877240180969,0.18419049680233,0.0800847187638282,0.0,0.0,0.1167752742767334,0.3378856182098388
0.0360447876155376,0.4708749055862427,0.2076726257801056,-0.7045442461967468,0.18899966776371,0.0961833894252777,0.0,0.0,-0.0558696985244751,0.7483959197998047
0.0382608398795127,0.4546928703784942,0.2179810106754303,-0.7196685671806335,0.1926437020301818,0.0728803724050521,0.0,0.0,0.0520001649856567,-0.573576033115387
0.0404187217354774,0.4385092854499817,0.2106346189975738,-0.7199487686157227,0.1978235691785812,0.1035972833633422,0.0,0.0,0.8539053201675415,0.540480375289917
0.0423700325191021,0.4229086935520172,0.1911308914422989,-0.6939001083374023,0.2018470615148544,0.0804698690772056,0.0,0.0,0.3827546834945678,0.3397274017333984
0.0442195907235145,0.4080041348934173,0.180569589138031,-0.663028359413147,0.2062775939702987,0.0886103212833404,0.0,0.0,0.4580949544906616,0.957014799118042
0.0461948402225971,0.3931541442871094,0.1946654617786407,-0.6604050993919373,0.2091630548238754,0.0577092841267585,0.0,0.0,0.6038292646408081,-0.1581836342811584
0.0480430610477924,0.3791661560535431,0.1815712302923202,-0.6221522092819214,0.2124410718679428,0.0655605569481849,0.0,0.0,-0.1261355280876159,0.8520185947418213
0.0499639511108398,0.3648302257061004,0.1900281310081482,-0.6374475359916687,0.2145194262266159,0.0415672808885574,0.0,0.0,0.436414361000061,0.1610937118530273
0.0516953468322753,0.3509694337844848,0.1712406426668167,-0.616316020488739,0.2164442837238311,0.0384971424937248,0.0,0.0,0.8917385339736938,0.2490068674087524
0.05331926420331,0.3378014862537384,0.1601419299840927,-0.5855721235275269,0.2187193483114242,0.0455012694001197,0.0,0.0,0.4640567302703857,0.6471302509307861
0.0547157302498817,0.325349897146225,0.1387753188610077,-0.5535317659378052,0.2195948660373687,0.0175107456743717,0.0,0.0,0.8429700136184692,0.914765477180481
0.056136131286621,0.3135320842266083,0.1427144706249237,-0.5251372456550598,0.2189120650291443,-0.0136556820943951,0.0,0.0,0.9079365730285645,-0.6005948185920715
0.0573744773864746,0.3019792735576629,0.1233237236738205,-0.5135331749916077,0.2194295078516006,0.0103489551693201,0.0,0.0,0.7904393672943115,0.8239905834197998
0.0586792007088661,0.2906186580657959,0.1313690096139907,-0.5047815442085266,0.2185186445713043,-0.0182175673544406,0.0,0.0,0.8930895328521729,0.2823860645294189
0.0598601326346397,0.279452919960022,0.1191256791353225,-0.4961009323596954,0.2174815088510513,-0.020742978900671,0.0,0.0,0.9872381687164308,0.0070559978485107
0.0608182922005653,0.2693184614181518,0.0968728438019752,-0.4502641558647156,0.2164098173379898,-0.0214336048811674,0.0,0.0,0.9969916343688964,0.6098268032073975
0.061701200902462,0.2603203356266022,0.0902997106313705,-0.3996254205703735,0.2143736034631729,-0.0407243371009826,0.0,0.0,0.971543312072754,-0.9172874093055724
0.0621467605233192,0.2523274421691894,0.0450705885887146,-0.3551645278930664,0.2138556689023971,-0.0103586297482252,0.0,0.0,0.9855515956878662,0.6365437507629395
0.0623785033822059,0.2445116192102432,0.0254651606082916,-0.3470417559146881,0.211544781923294,-0.0462176799774169,0.0,0.0,0.8772662878036499,0.93988299369812
0.0625225082039833,0.2376975119113922,0.018585467711091,-0.3022553324699402,0.2073219716548919,-0.0844563022255897,0.0,0.0,0.4502327442169189,0.76869797706604
0.0625014305114746,0.231250062584877,0.0038922489620745,-0.2857239544391632,0.2012753784656524,-0.1209315434098243,0.0,0.0,0.5264492034912109,0.945917010307312
0.0623448379337787,0.2253694385290146,-0.0075544007122516,-0.2602809071540832,0.193111315369606,-0.1632814109325409,0.0,0.0,-0.0260452032089233,0.7780321836471558
0.0622166618704795,0.219147577881813,-0.0029818089678883,-0.2752734124660492,0.1832360625267028,-0.1975057721138,0.0,0.0,0.0336796045303344,0.2555668354034424
0.0620427131652832,0.213115394115448,-0.0076052672229707,-0.2669176161289215,0.1734118014574051,-0.1964851915836334,0.0,0.0,-0.3148840069770813,0.1857120990753173
0.0618323311209678,0.2067210078239441,-0.0110027007758617,-0.2830546200275421,0.1633631438016891,-0.200973242521286,0.0,0.0,-0.385252833366394,0.2732515335083008
0.0615824684500694,0.1999644190073013,-0.0146888364106416,-0.299191802740097,0.1530679017305374,-0.2059047967195511,0.0,0.0,-0.0285354256629943,-0.6866660118103027
0.0612495429813861,0.1928361058235168,-0.0237501338124275,-0.315861314535141,0.1435431391000747,-0.1904954016208648,0.0,0.0,0.181572675704956,-0.0273966789245605
0.0609293952584266,0.1857855468988418,-0.0226291306316852,-0.3124805986881256,0.1341914683580398,-0.1870338022708892,0.0,0.0,0.1442782878875732,-0.2512418031692505
0.0604873672127723,0.1791453957557678,-0.0344831161201,-0.2942730486392975,0.1245142221450805,-0.1935452669858932,0.0,0.0,0.1389648914337158,-0.6141387820243835
0.0599042885005474,0.1729211658239364,-0.0495274402201175,-0.2759221494197845,0.1157709956169128,-0.1748644411563873,0.0,0.0,-0.0987811684608459,-0.6032318472862244
0.0592291839420795,0.1663300842046737,-0.0593149289488792,-0.2923233807086944,0.1076386272907257,-0.1626471579074859,0.0,0.0,0.0979912281036377,-0.2032460570335388
0.0585408210754394,0.1597107499837875,-0.0605968236923217,-0.2936207950115204,0.0994568765163421,-0.1636349707841873,0.0,0.0,-0.220844030380249,-0.6958702802658081
0.0577337257564067,0.1527178436517715,-0.0736079066991806,-0.3103408515453338,0.0924093350768089,-0.1409507095813751,0.0,0.0,0.313383936882019,0.2380589246749878
0.0568684563040733,0.1463959068059921,-0.079334482550621,-0.2805493474006653,0.0852834358811378,-0.1425180286169052,0.0,0.0,-0.0311232805252075,0.8545210361480713
0.0560036674141883,0.1397193521261215,-0.0772190615534782,-0.2962328493595123,0.0761177688837051,-0.1833136975765228,0.0,0.0,-0.1163567304611206,-0.2925028800964355
0.0550723075866699,0.132680594921112,-0.0834521576762199,-0.3123694360256195,0.066535972058773,-0.1916357725858688,0.0,0.0,-0.0924432873725891,-0.0722576379776001
0.0540720932185649,0.1252797693014145,-0.0898962095379829,-0.3285069465637207,0.0565259978175163,-0.2001995593309402,0.0,0.0,-0.4328285455703735,-0.8958690166473389
0.0529236793518066,0.117516741156578,-0.1062373295426368,-0.3447225391864776,0.0480165854096412,-0.1701882630586624,0.0,0.0,-0.4749643206596374,0.1919177770614624
0.0517022125422954,0.1093915104866027,-0.1130770295858383,-0.3608590066432953,0.0390570499002933,-0.1791907548904419,0.0,0.0,0.3322649002075195,0.0180391073226928
0.0503701195120811,0.101504810154438,-0.123578131198883,-0.3502959012985229,0.029544647783041,-0.1902478039264679,0.0,0.0,0.2801122665405273,-0.0071274042129516
0.0488572120666503,0.0939508527517318,-0.140764981508255,-0.3355523645877838,0.0191448330879211,-0.2079962491989135,0.0,0.0,0.4477157592773437,-0.2479665875434875
0.0471250526607036,0.0867200493812561,-0.1615747660398483,-0.3212623298168182,0.0076572308316826,-0.2297520190477371,0.0,0.0,0.7794612646102905,-0.4256088137626648
0.0454210266470909,0.0802901089191436,-0.1588163673877716,-0.2857514321804046,-0.0037885033525526,-0.2289148122072219,0.0,0.0,0.1600619554519653,-0.858725368976593
0.0436181053519248,0.073879987001419,-0.1699473708868026,-0.2849475145339966,-0.0139946658164262,-0.2041232287883758,0.0,0.0,0.7628231048583984,-0.3464714288711548
0.0418981537222862,0.0683261007070541,-0.1618733704090118,-0.2469630390405655,-0.0239851139485836,-0.1998089998960495,0.0,0.0,-0.0880318880081176,-0.728062093257904
0.0400339141488075,0.0624188743531703,-0.1773180812597274,-0.262715607881546,-0.0329785011708736,-0.1798676699399948,0.0,0.0,0.7186388969421387,-0.60546875
0.0382250770926475,0.0574839673936367,-0.1728933155536651,-0.2195263355970382,-0.0408779643476009,-0.1579892188310623,0.0,0.0,-0.1260462999343872,-0.1996039748191833
0.0363289825618267,0.0521872155368328,-0.1810925006866455,-0.2356655597686767,-0.0492951124906539,-0.1683428585529327,0.0,0.0,-0.0113698244094848,0.091382622718811
0.034344483166933,0.0465288981795311,-0.1894042789936065,-0.2518059015274048,-0.0582348741590976,-0.17879518866539,0.0,0.0,0.7733268737792969,-0.156899094581604
0.0323848724365234,0.0417691580951213,-0.186703160405159,-0.2119276672601699,-0.0674006938934326,-0.1833165884017944,0.0,0.0,-0.1217014789581298,0.2100516557693481
0.0303346626460552,0.0366481393575668,-0.1952202916145324,-0.2280699163675308,-0.0770977810025215,-0.193941444158554,0.0,0.0,0.7558296918869019,0.1893202066421508
0.0281140320003032,0.032163843512535,-0.2111207544803619,-0.19989974796772,-0.0879312381148338,-0.2166693210601806,0.0,0.0,0.5397026538848877,0.4246549606323242
0.0257241241633892,0.0280515532940626,-0.2269627749919891,-0.1835197508335113,-0.0998564735054969,-0.2385048419237136,0.0,0.0,0.4192368984222412,0.0755196809768676
0.0232709888368845,0.0243044719099998,-0.2326685190200805,-0.1674282401800155,-0.112408697605133,-0.2510443031787872,0.0,0.0,0.5068340301513672,-0.0564347505569458
0.0208021160215139,0.0209186654537916,-0.2338235676288604,-0.151516854763031,-0.1253954619169235,-0.2597350776195526,0.0,0.0,0.1165754795074462,-0.2144483923912048
0.018356705084443,0.0175180528312921,-0.231365829706192,-0.152295634150505,-0.1385203748941421,-0.2624979615211487,0.0,0.0,0.4221998453140259,-0.169886827468872
0.0159804336726665,0.0146149732172489,-0.2243120968341827,-0.1303199827671051,-0.1518057137727737,-0.2657067477703094,1.0,0.0,0.4906072616577148,0.836033821105957
0.0139301298186182,0.012798223644495,-0.2012159824371338,-0.0814533457159996,-0.1546514183282852,-0.0556145086884498,1.0,0.0,0.1035689115524292,0.9434117078781128
0.0122370719909667,0.0113341668620705,-0.1803648918867111,-0.0639751702547073,-0.1435566693544387,0.2219646722078323,1.0,0.0,-0.3576329946517944,0.9729349613189696
0.0107979774475097,0.0098859164863824,-0.166427344083786,-0.0623667240142822,-0.1210867762565612,0.4494653642177582,1.0,0.0,-0.4531126022338867,0.7864425182342529
