x_pos,y_pos,x_vel,y_vel,angle,ang_vel,leg_1,leg_2,main_booster,lat_booster
-0.0015491485828533,1.4033114910125732,-0.1568752825260162,-0.3381691873073578,0.0017593816155567,0.034704752266407,0.0,0.0,-0.4147326946258545,0.9748432636260986
-0.0030413628555834,1.3954081535339355,-0.1488081514835357,-0.3512590229511261,0.0013519146014004,-0.0081495512276887,0.0,0.0,-0.0058704614639282,0.755465030670166
-0.0044876099564135,1.38718581199646,-0.1423366367816925,-0.3654368817806244,-0.000908006564714,-0.045202549546957,0.0,0.0,0.1576663255691528,0.3570946455001831
-0.0060440064407885,1.3791755437850952,-0.1529168784618377,-0.356014221906662,-0.0035955382045358,-0.0537556819617748,0.0,0.0,-0.0550247430801391,-0.2174301147460937
-0.0076276781037449,1.37085223197937,-0.1556283384561538,-0.369937539100647,-0.0063100140541791,-0.0542946383357048,0.0,0.0,0.4513413906097412,0.619209885597229
-0.0090558053925633,1.3629289865493774,-0.1391057521104812,-0.3521680235862732,-0.0099786156788468,-0.0733786225318908,0.0,0.0,-0.4168862104415893,0.5267094373703003
-0.0104722026735544,1.354691982269287,-0.1368910819292068,-0.3661268353462219,-0.0146761042997241,-0.0939581245183944,0.0,0.0,-0.3840961456298828,-0.1574370861053466
-0.0119170192629098,1.3461421728134155,-0.1397164762020111,-0.3800443410873413,-0.0193978082388639,-0.0944427996873855,0.0,0.0,0.2234039306640625,0.2499237060546875
-0.0133876800537109,1.3382091522216797,-0.1422256231307983,-0.3526505529880523,-0.0241861827671527,-0.0957762226462364,0.0,0.0,-0.3406054973602295,0.0648795366287231
-0.0148875238373875,1.329962968826294,-0.1451201140880584,-0.3665789365768432,-0.028997654095292,-0.0962379947304725,0.0,0.0,0.2717952728271484,0.3624947071075439
-0.0163372047245502,1.322087287902832,-0.1404019296169281,-0.3501231074333191,-0.0335169397294521,-0.0903939381241798,0.0,0.0,0.133418321609497,-0.6573793888092041
-0.0178016666322946,1.314440369606018,-0.1432638466358184,-0.3399385511875152,-0.0366782210767269,-0.0632311552762985,0.0,0.0,-0.3898695111274719,0.1065435409545898
-0.019296359270811,1.3064804077148438,-0.1462518870830536,-0.3538602888584137,-0.039861261844635,-0.0636665672063827,0.0,0.0,0.130694031715393,0.5610650777816772
-0.0207153316587209,1.2985608577728271,-0.1376302391290664,-0.3521032333374023,-0.0440826751291751,-0.0844359397888183,0.0,0.0,-0.3301694393157959,-0.1730399131774902
-0.0221648216247558,1.2903282642364502,-0.1406646966934204,-0.3660269379615783,-0.0483232624828815,-0.0848193615674972,0.0,0.0,-0.418134331703186,0.4736210107803345
-0.0236450191587209,1.281782627105713,-0.143721729516983,-0.3799470365047455,-0.0525827668607234,-0.0851974785327911,0.0,0.0,-0.5930031538009644,0.3168892860412597
-0.0251562111079692,1.2729240655899048,-0.1467998027801513,-0.3938671052455902,-0.0568601787090301,-0.0855560600757598,0.0,0.0,-0.6653699278831482,0.4030419588088989
-0.0266984943300485,1.263752579689026,-0.1498974114656448,-0.4077879786491394,-0.0611546896398067,-0.085898146033287,0.0,0.0,0.0156959295272827,0.5367708206176758
-0.0281330104917287,1.25500226020813,-0.138132244348526,-0.3891287744045257,-0.0664236098527908,-0.1053875833749771,0.0,0.0,-0.397371768951416,0.237787127494812
-0.0295989029109478,1.2459391355514526,-0.1412626802921295,-0.4030564427375793,-0.071707509458065,-0.105687104165554,0.0,0.0,-0.8329886198043823,0.127459168434143
-0.0310963634401559,1.236563205718994,-0.1444084197282791,-0.4169763624668121,-0.0770059451460838,-0.1059780567884445,0.0,0.0,-0.4107867479324341,0.8990342617034912
-0.0325536727905273,1.2268610000610352,-0.1385316550731659,-0.4315902888774872,-0.0841431692242622,-0.142757311463356,0.0,0.0,-0.8521810173988342,0.5666992664337158
-0.0339884757995605,1.2168387174606323,-0.1348948180675506,-0.4459324479103088,-0.0926636978983879,-0.1704257130622863,0.0,0.0,-0.5453106164932251,0.3267918825149536
-0.0354551300406456,1.206504225730896,-0.138072520494461,-0.4598590433597564,-0.1011952385306358,-0.1706461012363433,0.0,0.0,-0.8802237510681152,0.054787278175354
-0.0369537360966205,1.1958576440811155,-0.1412619054317474,-0.4737858474254608,-0.1097373515367508,-0.170857086777687,0.0,0.0,-0.251612901687622,0.2158491611480713
-0.0384859070181846,1.1848775148391724,-0.1446181237697601,-0.4886609315872192,-0.1182895228266716,-0.1710434556007385,0.0,0.0,-0.5158789753913879,0.8534870147705078
-0.0399826057255268,1.1735787391662598,-0.1393400728702545,-0.5030201077461243,-0.1285635977983474,-0.2054818868637085,0.0,0.0,-0.0636515617370605,0.1573522090911865
-0.0415117256343364,1.161968231201172,-0.1425828039646148,-0.5169459581375122,-0.1388468146324157,-0.2056644409894943,0.0,0.0,0.233107328414917,0.419095516204834
-0.0430896766483783,1.1509252786636353,-0.1470243632793426,-0.4918439984321594,-0.1495889872312545,-0.2148436307907104,0.0,0.0,-0.7109739184379578,-0.328274130821228
-0.0447001457214355,1.1395705938339231,-0.150282397866249,-0.505770742893219,-0.160338819026947,-0.2149965316057205,0.0,0.0,0.1108934879302978,-0.4652106761932373
-0.0462397560477256,1.12874436378479,-0.1432726085186004,-0.4823603332042694,-0.1710373908281326,-0.2139714062213897,0.0,0.0,-0.6576467752456665,-0.4767760634422302
-0.0478118881583213,1.1176064014434814,-0.1465426236391067,-0.4962868988513946,-0.1817420870065689,-0.2140938341617584,0.0,0.0,-0.7955620884895325,-0.4742357730865478
-0.0494167320430278,1.106156826019287,-0.1498175412416458,-0.5102134346961975,-0.1924521178007125,-0.2142007648944854,0.0,0.0,-0.6232243776321411,-0.4572581052780151
-0.0510540977120399,1.0943957567214966,-0.1530966460704803,-0.5241400003433228,-0.2031667232513427,-0.214291900396347,0.0,0.0,-0.693195641040802,-0.586836040019989
-0.0527681335806846,1.0823376178741455,-0.1619171798229217,-0.5372504591941833,-0.2127365916967392,-0.1913972795009613,0.0,0.0,0.2868328094482422,-0.6816229820251465
-0.0544268600642681,1.0708481073379517,-0.1577884256839752,-0.5118306875228882,-0.2209101766347885,-0.16347137093544,0.0,0.0,-0.695412278175354,-0.6633790731430054
-0.0561721809208393,1.059061050415039,-0.1678329110145568,-0.5248961448669434,-0.2276944518089294,-0.1356853991746902,0.0,0.0,-0.4173640012741089,-0.5090296268463135
-0.0579863563179969,1.0469776391983032,-0.1756753474473953,-0.5379344820976257,-0.2335159629583358,-0.1164300888776779,0.0,0.0,0.9845051765441896,-0.6589794754981995
-0.0596978180110454,1.0361013412475586,-0.166593849658966,-0.4841246902942657,-0.2381349205970764,-0.0923795476555824,0.0,0.0,-0.5952723026275635,-0.0669715404510498
-0.0614420883357524,1.0249119997024536,-0.1698807328939438,-0.4980434775352478,-0.2427535355091095,-0.092372179031372,0.0,0.0,0.7291669845581055,-0.3224064111709595
-0.0631317123770713,1.014636754989624,-0.1639148443937301,-0.4575201869010925,-0.2478878945112228,-0.1026875525712966,0.0,0.0,-0.3601645231246948,-0.2103179097175598
-0.064854048192501,1.0040487051010132,-0.1671997606754303,-0.4714393317699432,-0.253020167350769,-0.102645456790924,0.0,0.0,-0.2822728157043457,0.0342851877212524
-0.0666090995073318,0.993147909641266,-0.1704825609922409,-0.4853584170341491,-0.2581494748592376,-0.1025860905647277,0.0,0.0,0.7404153347015381,-0.8479920625686646
-0.0682079344987869,0.9827213287353516,-0.1567364931106567,-0.4639573991298675,-0.261360228061676,-0.0642149522900581,0.0,0.0,-0.108442485332489,-0.6166515946388245
-0.0698908790946006,0.9719948172569276,-0.1664545834064483,-0.4770628809928894,-0.263240784406662,-0.0376113653182983,0.0,0.0,-0.1450567245483398,-0.3929330110549927
-0.0716064423322677,0.9609552621841432,-0.1697258651256561,-0.4909800887107849,-0.2651157975196838,-0.0375001020729541,0.0,0.0,-0.5423271059989929,-0.6449410915374756
-0.0733994469046592,0.9496171474456788,-0.1786097735166549,-0.5040429830551147,-0.2658141255378723,-0.0139667494222521,0.0,0.0,-0.4418720006942749,-0.5305260419845581
-0.0752717033028602,0.9379908442497252,-0.1878046691417694,-0.5166202783584595,-0.2652252614498138,0.0117771150544285,0.0,0.0,-0.1828293800354004,-0.0974327325820922
-0.0771764740347862,0.9260514974594116,-0.1910577714443206,-0.5305371880531311,-0.2646282613277435,0.0119398748502135,0.0,0.0,0.4431416988372803,-0.6532521843910217
-0.0790669471025466,0.9144683480262756,-0.1908978819847107,-0.514468252658844,-0.2627406120300293,0.0377538278698921,0.0,0.0,-0.9179904460906982,-0.7994723320007324
-0.08103609085083,0.9025906920433044,-0.1999804824590683,-0.5273470878601074,-0.2596106827259063,0.0625992193818092,0.0,0.0,0.1262621879577636,0.525019645690918
-0.0829096809029579,0.891132116317749,-0.1893113255500793,-0.5089228749275208,-0.2576092183589935,0.0400292500853538,0.0,0.0,0.356688380241394,0.095061182975769
-0.084635354578495,0.8798556923866272,-0.1749509871006012,-0.5007585883140564,-0.2551811039447784,0.0485625639557838,0.0,0.0,-0.9141843318939208,-0.356546401977539
-0.0863929763436317,0.8682661056518555,-0.1781547665596008,-0.5146758556365967,-0.2527408003807068,0.0488062426447868,0.0,0.0,-0.9632863402366638,-0.7199795246124268
-0.0882242172956466,0.8563768267631531,-0.186601310968399,-0.5278127193450928,-0.2491946816444397,0.0709219574928283,0.0,0.0,-0.7227992415428162,-0.21986985206604
-0.0900871306657791,0.8441745638847351,-0.1897771805524826,-0.541730523109436,-0.2456349283456802,0.0711948126554489,0.0,0.0,-0.6644737124443054,-0.0553222298622131
-0.0919813141226768,0.8316594958305359,-0.1929368823766708,-0.5556482672691345,-0.2420608699321746,0.0714814439415931,0.0,0.0,-0.9449492692947388,-0.3916028141975403
-0.093906782567501,0.818831205368042,-0.1960788518190384,-0.569566011428833,-0.2384717911481857,0.0717812031507492,0.0,0.0,-0.7733203768730164,-0.2986702919006347
-0.0958633422851562,0.8056899905204773,-0.1992014199495315,-0.5834838151931763,-0.2348671108484268,0.0720933824777603,0.0,0.0,-0.9129744172096252,-0.3179001808166504
-0.0978507027029991,0.7922357320785522,-0.2023027688264846,-0.5974016189575195,-0.2312462478876114,0.0724172964692115,0.0,0.0,-0.7003155946731567,-0.3770676851272583
-0.0998685806989669,0.7784684896469116,-0.2053809612989425,-0.6113194227218628,-0.227608636021614,0.0727521330118179,0.0,0.0,-0.920513391494751,-0.7974873781204224
-0.1019876450300216,0.764417290687561,-0.2173737287521362,-0.6236679553985596,-0.2220757454633712,0.1106579080224037,0.0,0.0,-0.7437769174575806,0.2340650558471679
-0.1041368469595909,0.7500532269477844,-0.2203996628522873,-0.6375871300697327,-0.216525137424469,0.1110121384263038,0.0,0.0,-0.1532519459724426,0.3182189464569092
-0.1063157096505165,0.7353764772415161,-0.2233956307172775,-0.651506245136261,-0.2109563946723938,0.1113748550415039,0.0,0.0,0.4196642637252807,-0.1527338027954101
-0.1084451675415039,0.7208898067474365,-0.218518927693367,-0.6430608630180359,-0.2053380757570266,0.1123664528131485,0.0,0.0,-0.1264981627464294,0.2505394220352173
-0.1106036156415939,0.7060906291007996,-0.2214469611644745,-0.6569802165031433,-0.1997009217739105,0.1127432584762573,0.0,0.0,0.124225378036499,0.2663195133209228
-0.1126609817147255,0.6918303966522217,-0.211417555809021,-0.6330322027206421,-0.1939770728349685,0.1144770383834838,0.0,0.0,0.0818228721618652,0.2527984380722046
-0.1146568283438682,0.6775237321853638,-0.2055464535951614,-0.6350832581520081,-0.1879852563142776,0.1198362931609153,0.0,0.0,0.3413527011871338,0.1978275775909423
-0.1165293678641319,0.6639195680618286,-0.193339318037033,-0.6038715243339539,-0.1818724423646927,0.1222564131021499,0.0,0.0,-0.3843920230865478,0.1071486473083496
-0.1184291839599609,0.650002658367157,-0.1960928738117218,-0.6177913546562195,-0.1757400035858154,0.1226486787199974,0.0,0.0,-0.3176897764205932,0.5241861343383789
-0.1203208938241005,0.6357660889625549,-0.194423571228981,-0.6321296691894531,-0.1704771369695663,0.1052571982145309,0.0,0.0,0.5899893045425415,0.2360415458679199
-0.122107982635498,0.6220942735671997,-0.1841221898794174,-0.6070173978805542,-0.1650576889514923,0.1083888262510299,0.0,0.0,0.4076619148254394,0.7172849178314209
-0.1238657981157302,0.6091985106468201,-0.1795855462551117,-0.5727332830429077,-0.161250963807106,0.0761341452598571,0.0,0.0,-0.0560956001281738,0.0707548856735229
-0.1256484985351562,0.5959896445274353,-0.1820989698171615,-0.5866512656211853,-0.1574248373508453,0.0765226185321807,0.0,0.0,-0.2763030529022217,0.2519509792327881
-0.127455323934555,0.5824677348136902,-0.1845402121543884,-0.6005693674087524,-0.1535795032978058,0.0769066587090492,0.0,0.0,0.1392492055892944,0.2355906963348388
-0.1292051374912262,0.5689544081687927,-0.1790572106838226,-0.6001756191253662,-0.1494983434677124,0.0816230773925781,0.0,0.0,0.1965750455856323,0.5185787677764893
-0.130925565958023,0.5554840564727783,-0.1750577986240387,-0.5983829498291016,-0.146490141749382,0.0601641647517681,0.0,0.0,-0.0409811735153198,0.3757904767990112
-0.1326677352190017,0.5417006611824036,-0.1772485077381134,-0.6123005747795105,-0.1434638053178787,0.0605264082551002,0.0,0.0,0.2572466135025024,0.801796555519104
-0.1342097222805023,0.5285052061080933,-0.1557158231735229,-0.5863186120986938,-0.1419502347707748,0.0302715804427862,0.0,0.0,-0.4630864858627319,0.4798269271850586
-0.1357714682817459,0.5149966478347778,-0.1577087789773941,-0.6002355813980103,-0.1404196470975875,0.0306117385625839,0.0,0.0,0.6121954917907715,0.7809538841247559
-0.1373844146728515,0.5016633868217468,-0.1610295176506042,-0.5926167964935303,-0.1406864821910858,-0.0053366818465292,0.0,0.0,-0.729963481426239,0.7540446519851685
-0.138951301574707,0.4880101382732391,-0.1548247635364532,-0.6069843173027039,-0.142542615532875,-0.0371228754520416,0.0,0.0,-0.0129597187042236,0.3868708610534668
-0.1405344009399414,0.4740438461303711,-0.1564719378948211,-0.6209014058113098,-0.1443840116262436,-0.0368277505040168,0.0,0.0,0.1646974086761474,0.3578684329986572
-0.1421021521091461,0.4604820907115936,-0.1547587513923645,-0.60294109582901,-0.1463903039693832,-0.0401260219514369,0.0,0.0,-0.4862144589424133,0.6637200117111206
-0.1436323225498199,0.4465993344783783,-0.149717777967453,-0.6173375248908997,-0.1496829092502594,-0.0658522322773933,0.0,0.0,-0.6589256525039673,0.4343935251235962
-0.1451747864484787,0.432403564453125,-0.150959700345993,-0.6312553286552429,-0.1529636979103088,-0.0656158849596977,0.0,0.0,-0.32117760181427,-0.1823834180831909
-0.1467280387878418,0.4178948402404785,-0.1520540416240692,-0.6451730728149414,-0.1562338024377823,-0.065402053296566,0.0,0.0,0.1850883960723877,0.2159024477005005
-0.1481799185276031,0.403485506772995,-0.1422350704669952,-0.640728771686554,-0.1591866314411163,-0.0590561926364898,0.0,0.0,0.8206305503845215,0.0509768724441528
-0.1493796408176422,0.3896564543247223,-0.1177824884653091,-0.6148577928543091,-0.161381259560585,-0.0438921935856342,0.0,0.0,0.6277506351470947,0.0815616846084594
-0.1503875702619552,0.3760565221309662,-0.0992365553975105,-0.6046095490455627,-0.1629336178302765,-0.0310473944991827,0.0,0.0,0.8183529376983643,0.1095887422561645
-0.1512719094753265,0.3633688688278198,-0.0868610292673111,-0.5640696287155151,-0.1645093262195587,-0.0315141156315803,0.0,0.0,0.8894350528717041,-0.4291492700576782
-0.1519820243120193,0.3516430556774139,-0.0696071833372116,-0.5213026404380798,-0.165917232632637,-0.0281582176685333,0.0,0.0,0.4404613971710205,0.7708075046539307
-0.1524172723293304,0.3404223322868347,-0.0407600328326225,-0.49900883436203,-0.1686816364526748,-0.0552880465984344,0.0,0.0,0.7277512550354004,-0.0616087317466735
-0.1526905000209808,0.3293668329715729,-0.0250555090606212,-0.4916162192821502,-0.1709569841623306,-0.0455066561698913,0.0,0.0,0.7470378875732422,-0.824889600276947
-0.1529946327209472,0.3188240528106689,-0.0296793226152658,-0.4686504006385803,-0.1716940551996231,-0.0147413434460759,0.0,0.0,0.0848621129989624,0.4935660362243652
-0.1531432121992111,0.3087912797927856,-0.0143694402649998,-0.4459570646286011,-0.1721758991479873,-0.0096368454396724,0.0,0.0,0.7293820381164551,-0.0441832542419433
-0.1532078683376312,0.2993321120738983,-0.0058716894127428,-0.4204795658588409,-0.172774076461792,-0.0119634540751576,0.0,0.0,0.5598289966583252,-0.4263739585876465
-0.1532517373561859,0.2906998991966247,-0.0032383159268647,-0.3837882578372955,-0.1739206910133361,-0.0229321494698524,0.0,0.0,-0.4472272992134094,-0.5898250341415405
-0.1533253639936447,0.2817677855491638,-0.0072231129743158,-0.3969971537590027,-0.1740607172250747,-0.0028005973435938,0.0,0.0,-0.3783502578735351,0.0610290765762329
-0.1533882170915603,0.2725225985050201,-0.0061445590108633,-0.4109143018722534,-0.1742088198661804,-0.0029621017165482,0.0,0.0,0.0514601469039917,-0.4872525930404663
-0.1534081399440765,0.2636820375919342,-0.0015896058175712,-0.3929625153541565,-0.1746100932359695,-0.00802543759346,0.0,0.0,0.3525733947753906,-0.4644994735717773
-0.1533635109663009,0.2551358938217163,0.0049704951234161,-0.379889577627182,-0.1751167029142379,-0.0101323137059807,0.0,0.0,-0.5464674234390259,-0.6513689756393433
-0.1533641815185547,0.2462932467460632,-0.0010921551147475,-0.3928813338279724,-0.1740769743919372,0.0207943134009838,0.0,0.0,0.083019733428955,-0.4193167686462402
-0.153385728597641,0.2376704066991806,-0.002730970736593,-0.3831702172756195,-0.1735076904296875,0.0113855693489313,0.0,0.0,-0.1446441411972046,-0.23261559009552
-0.1533894538879394,0.2287345081567764,-0.0009243217064067,-0.3970875144004822,-0.1729539930820465,0.0110739795491099,0.0,0.0,-0.3233044147491455,-0.0273836851119995
-0.1533740013837814,0.2194855362176895,0.0010085827670991,-0.4110048115253448,-0.1724172979593277,0.0107340048998594,0.0,0.0,-0.685541570186615,-0.2927285432815552
-0.1533382385969162,0.2099234163761139,0.0030607862863689,-0.4249220788478851,-0.1718989908695221,0.0103662619367241,0.0,0.0,0.5901687145233154,-0.5089583992958069
-0.1532154977321624,0.2011726200580597,0.0108148911967873,-0.3887559771537781,-0.1704411208629608,0.0291573703289031,0.0,0.0,-0.0120022892951965,-0.0719603300094604
-0.1530703604221344,0.1921087652444839,0.0130847441032528,-0.4026735126972198,-0.1690042912960052,0.0287362076342105,0.0,0.0,0.6449861526489258,0.3526507616043091
-0.1527297049760818,0.1835661083459854,0.0322991944849491,-0.3794776797294616,-0.1672384440898895,0.0353168062865734,0.0,0.0,0.1596651077270507,-0.2061026096343994
-0.1522743254899978,0.1755591779947281,0.0438255034387111,-0.3556684553623199,-0.1655196398496627,0.0343761071562767,0.0,0.0,0.218935489654541,-0.526500403881073
-0.1516900956630706,0.1681016981601715,0.0555679090321064,-0.3311269879341125,-0.1626676768064499,0.0570391193032264,0.0,0.0,0.1995136737823486,-0.7247718572616577
-0.1510175764560699,0.1608183234930038,0.0628961771726608,-0.3232338726520538,-0.1583161950111389,0.0870297402143478,0.0,0.0,-0.0604441165924072,-0.3531332015991211
-0.1503184288740158,0.1532221585512161,0.0655943676829338,-0.3371528387069702,-0.1539918482303619,0.0864870697259903,0.0,0.0,0.2294890880584716,-0.8009573221206665
-0.1497035026550293,0.1459186822175979,0.0556832179427146,-0.3240103721618652,-0.1481945812702179,0.1159454807639122,0.0,0.0,0.1638330221176147,-0.4076144695281982
-0.1490169465541839,0.1388950943946838,0.0629461780190467,-0.3116044402122497,-0.1424968391656875,0.1139548048377037,0.0,0.0,0.0250803232192993,-0.6673893332481384
-0.1482889205217361,0.1320564597845077,0.0657647475600242,-0.3032819926738739,-0.1354789584875106,0.1403575241565704,0.0,0.0,0.0948500633239746,-0.3571861982345581
-0.1474137306213379,0.125242069363594,0.0800962597131729,-0.3022051751613617,-0.1280921846628189,0.1477357447147369,0.0,0.0,0.0583339929580688,0.0973490476608276
-0.1463910043239593,0.1187550649046897,0.0945827513933181,-0.2876721620559692,-0.1204490065574646,0.1528636962175369,0.0,0.0,-0.0452250242233276,-0.8133475184440613
-0.1453988999128341,0.111974723637104,0.0899925827980041,-0.3006297051906585,-0.1112798750400543,0.1833822578191757,0.0,0.0,0.1577328443527221,0.6517125368118286
