x_pos,y_pos,x_vel,y_vel,angle,ang_vel,leg_1,leg_2,main_booster,lat_booster
-0.0015500069130212,1.4033231735229492,-0.1571551710367202,-0.3376413285732269,0.0019300162093713,0.0380840227007865,0.0,0.0,-0.513740062713623,0.8126235008239746
-0.003058910369873,1.395444393157959,-0.1511725485324859,-0.3501697182655334,0.0022162173409014,0.0057250950485467,0.0,0.0,0.0393233299255371,0.7466697692871094
-0.0044420240446925,1.3876399993896484,-0.1373434960842132,-0.3468570411205292,0.0012616479070857,-0.0190932489931583,0.0,0.0,-0.1862918138504028,0.0569307804107666
-0.0058558462187647,1.379534363746643,-0.140585571527481,-0.360254555940628,0.0004749330109916,-0.0157354921102523,0.0,0.0,-0.1793093681335449,0.75328528881073
-0.0072298049926757,1.3711297512054443,-0.134946808218956,-0.373536467552185,-0.0019445919897407,-0.0483952239155769,0.0,0.0,0.5637092590332031,0.3450933694839477
-0.0085060121491551,1.3631945848464966,-0.125990092754364,-0.3526744246482849,-0.0035579388495534,-0.032270036637783,0.0,0.0,-0.1678685545921325,0.602973461151123
-0.0097709652036428,1.3549580574035645,-0.1238926872611045,-0.3660854697227478,-0.0061291395686566,-0.0514285676181316,0.0,0.0,-0.0934497117996215,0.0476647615432739
-0.0110713960602879,1.346420168876648,-0.1276382058858871,-0.3794735968112945,-0.0085001708939671,-0.0474253520369529,0.0,0.0,0.0266271829605102,0.5090808868408203
-0.0123719219118356,1.3383660316467283,-0.1268331706523895,-0.3579776585102081,-0.0116889784112572,-0.0637819916009903,0.0,0.0,-0.1002509593963623,0.5261945724487305
-0.0136683462187647,1.3300132751464844,-0.125592291355133,-0.3712701797485351,-0.0157055519521236,-0.0803384631872177,0.0,0.0,0.0118747949600219,0.0092675685882568
-0.0149446483701467,1.321904182434082,-0.1240404248237609,-0.3604419827461242,-0.0192526970058679,-0.0709492191672325,0.0,0.0,-0.2787131071090698,0.2566394805908203
-0.0162599571049213,1.3134939670562744,-0.1281781941652298,-0.3738380074501037,-0.0225758533924818,-0.0664691478013992,0.0,0.0,-0.3951596021652221,0.2972786426544189
-0.0176152233034372,1.3047823905944824,-0.1323988586664199,-0.3872282207012176,-0.0256693456321954,-0.0618751533329486,0.0,0.0,-0.6503401398658752,0.5530827045440674
-0.0189624782651662,1.2957627773284912,-0.1306091547012329,-0.4009531736373901,-0.029751468449831,-0.0816495865583419,0.0,0.0,-0.6849512457847595,-0.3029898405075073
-0.0203510280698537,1.2864418029785156,-0.1349754333496093,-0.4143452942371368,-0.0335940606892108,-0.076858676970005,0.0,0.0,0.0403780937194824,0.8404481410980225
-0.0216280929744243,1.277083158493042,-0.1224025338888168,-0.4160705506801605,-0.0388415083289146,-0.1049584746360778,0.0,0.0,-0.4520826339721679,0.6047275066375732
-0.0228887554258108,1.2674269676208496,-0.1195230484008789,-0.4293431639671325,-0.0453153401613235,-0.1294883638620376,0.0,0.0,-0.4719046354293823,0.566847562789917
-0.0241372101008892,1.2574615478515625,-0.1171465069055557,-0.4431605041027069,-0.052930798381567,-0.1523229479789734,0.0,0.0,-0.6826545000076294,-0.0702767968177795
-0.0254289619624614,1.2471954822540283,-0.1217397823929786,-0.456555962562561,-0.0602921620011329,-0.1472403854131698,0.0,0.0,-0.7889843583106995,0.6235835552215576
-0.0267219543457031,1.236624240875244,-0.1210400909185409,-0.4701796174049377,-0.0684710592031478,-0.1635927706956863,0.0,0.0,-0.1312714219093322,-0.670754611492157
-999.0,1.2257615327835083,-0.13093301653862,-0.483119398355484,-0.0753377825021743,-0.1373469233512878,0.0,0.0,-0.2702968120574951,-0.0018168091773986
-0.029523754492402,1.2145978212356567,-0.1356640607118606,-0.4965137839317322,-0.0819443315267562,-0.1321426331996917,0.0,0.0,0.5494248867034912,0.4392516613006592
-0.0308289527893066,1.2038813829421997,-0.1246895641088485,-0.4766137897968292,-0.0877220258116722,-0.1155643463134765,0.0,0.0,0.103742241859436,0.0468407869338989
-0.0321146957576274,1.193169116973877,-0.1232386007905006,-0.476423054933548,-0.0930196791887283,-0.1059627756476402,0.0,0.0,-0.0248132944107055,0.4848209619522095
-0.0334461219608783,1.1821556091308594,-0.1280791908502578,-0.4898152649402618,-0.0980523899197578,-0.1006631478667259,0.0,0.0,0.4399640560150146,-0.2101398706436157
-0.034891415387392,1.1717541217803955,-0.1391308009624481,-0.462650865316391,-0.1034074053168296,-0.1071001663804054,0.0,0.0,-0.8492677807807922,-0.303949236869812
-0.0363831520080566,1.1610512733459473,-0.1440429240465164,-0.476040244102478,-0.1084972023963928,-0.1017961651086807,0.0,0.0,-0.1017484664916992,0.3393696546554565
-0.0379215255379676,1.1500473022460938,-0.1489797532558441,-0.4894292056560516,-0.1133219003677368,-0.0964939072728157,0.0,0.0,-0.6410170793533325,0.7421557903289795
-0.0394606590270996,1.1387401819229126,-0.1481572240591049,-0.5029823780059814,-0.1190393343567848,-0.1143483743071556,0.0,0.0,0.7876667976379395,-0.5372156500816345
-0.0410505309700965,1.127927541732788,-0.1545188724994659,-0.4809297323226928,-0.1234890669584274,-0.0889947861433029,0.0,0.0,0.1220057010650634,0.3102136850357055
-0.042604349553585,1.1176669597625732,-0.1512321531772613,-0.4563781023025512,-0.1276168823242187,-0.0825566202402114,0.0,0.0,0.284472107887268,0.6738071441650391
-0.0441765785217285,1.1076105833053589,-0.1518829762935638,-0.447415292263031,-0.1329361200332641,-0.106385089457035,0.0,0.0,0.6174647808074951,0.9878935813903807
-0.0457049384713172,1.0984317064285278,-0.1456752568483352,-0.408604234457016,-0.1400674283504486,-0.1426262557506561,0.0,0.0,-0.6141865849494934,0.660313606262207
-0.0472352989017963,1.08893620967865,-0.1449721455574035,-0.4228045046329498,-0.1481230109930038,-0.1611118018627166,0.0,0.0,-0.9218329191207886,0.0519529581069946
-0.0488137230277061,1.0791397094726562,-0.1500329673290252,-0.4361960291862488,-0.1559216976165771,-0.1559737026691436,0.0,0.0,-0.7203654646873474,-0.4603179693222046
-0.050440214574337,1.0690422058105469,-0.1551056802272796,-0.4495870471000671,-0.1634657084941864,-0.1508801132440567,0.0,0.0,-0.0096723437309265,0.5699965953826904
-0.052072811871767,1.0586302280426023,-0.1548784971237182,-0.4636929631233215,-0.1718508899211883,-0.1677036136388778,0.0,0.0,0.520830512046814,0.5301498174667358
-0.0535548217594623,1.0489368438720703,-0.1391346156597137,-0.4318994581699371,-0.1809515804052353,-0.182013913989067,0.0,0.0,-0.9510461688041688,0.8309050798416138
-0.0550238601863384,1.0389354228973389,-0.1365395784378051,-0.4458135962486267,-0.1913574039936065,-0.2081164419651031,0.0,0.0,-0.8632216453552246,0.2397099733352661
-0.0565413460135459,1.0286333560943604,-0.1416503638029098,-0.4592079222202301,-0.2015198171138763,-0.2032483071088791,0.0,0.0,-0.9811866283416748,0.050447940826416
-0.0581073760986328,1.0180306434631348,-0.1467679888010025,-0.4726016819477081,-0.2114422172307968,-0.1984485238790512,0.0,0.0,-0.9817065000534058,0.3179221153259277
-0.0597221367061138,1.0071274042129517,-0.1518915444612503,-0.4859949052333832,-0.221128299832344,-0.1937215477228164,0.0,0.0,-0.8282758593559265,-0.1461498141288757
-0.061385728418827,0.995923399925232,-0.1570202410221099,-0.4993875920772552,-0.2305818647146225,-0.1890716254711151,0.0,0.0,-0.3963491916656494,0.1312446594238281
-0.0630981475114822,0.9844186305999756,-0.162153348326683,-0.5127798318862915,-0.2398070096969604,-0.1845029592514038,0.0,0.0,-0.7006875872612,-0.158896803855896
-0.0648596733808517,0.9726127982139589,-0.1672900766134262,-0.5261715650558472,-0.2488079965114593,-0.1800194680690765,0.0,0.0,-0.3375322222709656,0.4997901916503906
-0.066670224070549,0.9605060815811156,-0.1724297255277633,-0.5395628809928894,-0.2575892210006714,-0.1756251454353332,0.0,0.0,-0.2822061777114868,0.2433050870895385
-0.0685298889875412,0.9480982422828674,-0.1775716245174408,-0.5529537200927734,-0.2661553621292114,-0.1713236272335052,0.0,0.0,0.7663558721542358,-0.463468074798584
-0.0703201293945312,0.936726987361908,-0.1703158915042877,-0.507000744342804,-0.2750672101974487,-0.1782373636960983,0.0,0.0,0.6153444051742554,-0.3085888624191284
-0.0720750838518142,0.9262199997901917,-0.1664272248744964,-0.4687118232250213,-0.2843738794326782,-0.1861339956521988,0.0,0.0,-0.1716570258140564,-0.0863649845123291
-0.0738793388009071,0.915412187576294,-0.1715725511312484,-0.4821034073829651,-0.2934804856777191,-0.1821318864822387,0.0,0.0,-0.676156759262085,-0.0583898425102233
-0.0757329016923904,0.904303252696991,-0.176717534661293,-0.4954946339130401,-0.3023922741413116,-0.1782362014055252,0.0,0.0,0.3573638200759887,-0.1774875521659851
-0.0775008201599121,0.893781304359436,-0.168139100074768,-0.4694711565971374,-0.3113335967063904,-0.1788268536329269,0.0,0.0,0.7522313594818115,0.0584050416946411
-0.079063132405281,0.8835780024528503,-0.1483166366815567,-0.4551966786384582,-0.3195549249649048,-0.1644267737865448,0.0,0.0,-0.7918260097503662,-0.553633451461792
-0.0807149857282638,0.8730989694595337,-0.158544659614563,-0.4672250747680664,-0.3264691531658172,-0.1382843554019928,0.0,0.0,0.0068460702896118,-0.1251623034477234
-0.0822351425886154,0.8626967072486877,-0.1459528505802154,-0.4637014269828796,-0.3327912092208862,-0.1264409869909286,0.0,0.0,-0.5196598768234253,-0.3062684535980224
-0.0838048011064529,0.8519930243492126,-0.1510852873325348,-0.4770893454551697,-0.3389470279216766,-0.123116634786129,0.0,0.0,-0.8163188099861145,-0.8043084144592285
-0.0854728668928146,0.8410212993621826,-0.1624109447002411,-0.4886719286441803,-0.343545138835907,-0.09196238219738,0.0,0.0,0.2336301803588867,-0.7358694076538086
-0.0869651809334755,0.8304323554039001,-0.1465616524219513,-0.4712621867656708,-0.34634730219841,-0.0560434535145759,0.0,0.0,-0.3820468187332153,-0.8853983283042908
-0.0885623916983604,0.8195810914039612,-0.1587214767932891,-0.4825223088264465,-0.3474017977714538,-0.0210900157690048,0.0,0.0,-0.0576608180999755,-0.898102879524231
-0.0902823433279991,0.8084757328033447,-0.1731066703796386,-0.4932980537414551,-0.3462319374084472,0.023396361619234,0.0,0.0,0.8599534034729004,-0.6126536130905151
-0.0918990150094032,0.7976450324058533,-0.1642524749040603,-0.4807453751564026,-0.343517392873764,0.0542909577488899,0.0,0.0,0.4192464351654053,-0.8806853294372559
-0.0935184508562088,0.787452220916748,-0.1662916541099548,-0.4519815742969513,-0.3389624655246734,0.0910982713103294,0.0,0.0,0.5944890975952148,-0.8006719946861267
-0.0949566811323165,0.7776278853416443,-0.1500735431909561,-0.4351891577243805,-0.3324326276779175,0.1305969804525375,0.0,0.0,-0.1358243227005005,-0.3213747143745422
-0.0964445099234581,0.7675021886825562,-0.1551506221294403,-0.4485786259174347,-0.3257856667041778,0.1329391747713089,0.0,0.0,0.2834277153015136,-0.0916469693183898
-0.0978762656450271,0.7575150728225708,-0.1497007757425308,-0.4424246251583099,-0.3189996778964996,0.1357199251651764,0.0,0.0,-0.1912363171577453,0.1045377254486084
-0.0993574112653732,0.7472268342971802,-0.1547546982765197,-0.4558148086071014,-0.3121088743209839,0.1378162205219268,0.0,0.0,-0.8383303284645081,-0.5608490705490112
-0.100926972925663,0.7366633415222168,-0.1647761017084121,-0.4678284823894501,-0.3040100932121277,0.1619748175144195,0.0,0.0,-0.4309666156768799,-0.3092672824859619
-0.1025457382202148,0.7257992029190063,-0.1698025315999984,-0.4812206923961639,-0.2958186864852905,0.1638280600309372,0.0,0.0,-0.444107174873352,-0.2131837010383606
-0.1042136177420616,0.7146341800689697,-0.1748128086328506,-0.4946132302284241,-0.2875406146049499,0.165561705827713,0.0,0.0,-0.6973944902420044,-0.1018019914627075
-0.1059303283691406,0.7031686305999756,-0.1798053532838821,-0.5080060362815857,-0.2791817486286163,0.1671772003173828,0.0,0.0,-0.1297409534454345,-0.7647430896759033
-0.1077620536088943,0.6914343237876892,-0.1931367218494415,-0.5196542143821716,-0.268957108259201,0.2044926583766937,0.0,0.0,0.5504438877105713,0.3853175640106201
-0.1094591170549392,0.6802329421043396,-0.1799154281616211,-0.496001660823822,-0.258529782295227,0.2085462808609008,0.0,0.0,-0.8972311019897461,0.911290168762207
-0.1111484542489051,0.668719470500946,-0.177792340517044,-0.510172963142395,-0.2494789659976959,0.1810164600610733,0.0,0.0,-0.6686303019523621,-0.1494687795639038
-0.1128858551383018,0.6569057703018188,-0.182695597410202,-0.5235676765441895,-0.2403699904680252,0.1821788102388382,0.0,0.0,-0.7657524943351746,0.5458941459655762
-0.1146326065063476,0.6447727084159851,-0.1826662570238113,-0.5379591584205627,-0.2322520613670349,0.1623586118221283,0.0,0.0,0.4650280475616455,0.1632499694824218
-0.1163022071123123,0.6327391266822815,-0.1752817034721374,-0.5335341095924377,-0.2238077074289322,0.1688871532678604,0.0,0.0,-0.554811954498291,0.3529162406921386
-0.118019200861454,0.6204052567481995,-0.1800926625728607,-0.5469284653663635,-0.2153209149837494,0.1697355508804321,0.0,0.0,-0.9851123094558716,0.1506905555725097
-0.1197834983468055,0.6077708601951599,-0.1848671287298202,-0.5603229403495789,-0.2067967057228088,0.1704842746257782,0.0,0.0,-0.3979281783103943,0.8074694871902466
-0.121522806584835,0.5948213934898376,-0.1805992275476455,-0.5746105313301086,-0.2000733762979507,0.1344666928052902,0.0,0.0,-0.1745281815528869,0.4968100786209106
-0.1233086585998535,0.5815712809562683,-0.1852893978357315,-0.5880029797554016,-0.1933219134807586,0.1350292563438415,0.0,0.0,0.2793822288513183,0.6785711050033569
-0.1251492500305175,0.5684078335762024,-0.1892713904380798,-0.5843746066093445,-0.1880848258733749,0.1047415509819984,0.0,0.0,0.7168655395507812,0.4275200366973877
-0.1268406808376312,0.5561420917510986,-0.1745736896991729,-0.5444656014442444,-0.1826344430446624,0.1090080738067627,0.0,0.0,-0.549694299697876,0.7605190277099609
-0.128528207540512,0.5435616970062256,-0.172929361462593,-0.5586205124855042,-0.1784375607967376,0.0839376896619796,0.0,0.0,0.2777490615844726,0.4975308179855346
-0.1302088797092437,0.5314652919769287,-0.1720705777406692,-0.5371400713920593,-0.1744252741336822,0.0802456587553024,0.0,0.0,0.110222578048706,-0.1718337535858154
-0.1318597793579101,0.5197641253471375,-0.1690714061260223,-0.5195904970169067,-0.1704422980546951,0.0796594321727752,0.0,0.0,-0.4380025267601013,0.8861877918243408
-0.1334750205278396,0.5077415108680725,-0.1634683907032013,-0.534113347530365,-0.1684875935316085,0.0390940569341182,0.0,0.0,-0.4825094938278198,0.57066810131073
-0.135087102651596,0.4954004287719726,-0.1619712263345718,-0.5484079718589783,-0.1677233278751373,0.0152853429317474,0.0,0.0,-0.6878246068954468,0.6265556812286377
-0.1366849839687347,0.4827392101287842,-0.1591011881828308,-0.5627977252006531,-0.1684121340513229,-0.0137761710211634,0.0,0.0,-0.6516886353492737,0.8660006523132324
-0.1382395774126052,0.4697552323341369,-0.1526171714067459,-0.5773932933807373,-0.1712645590305328,-0.0570484176278114,0.0,0.0,-0.6813516616821289,-0.6731147170066833
-0.1398747414350509,0.4564753770828247,-0.1616981327533722,-0.5904257893562317,-0.1730909049510955,-0.0365264788269996,0.0,0.0,0.4037925004959106,0.6150115728378296
-0.1413953751325607,0.4438308477401733,-0.1489906013011932,-0.5623416900634766,-0.1761675029993057,-0.0615322366356849,0.0,0.0,0.6963688135147095,0.9516289234161376
-0.1427068710327148,0.4320133924484253,-0.126215398311615,-0.5258106589317322,-0.1811104118824005,-0.0988581255078315,0.0,0.0,-0.2326239943504333,0.9344370365142822
-0.1439662873744964,0.4198747277259826,-0.1187511309981346,-0.540393590927124,-0.1883266568183899,-0.1443247646093368,0.0,0.0,-0.6557719707489014,-0.7527387142181396
-0.1453098356723785,0.4074414372444153,-0.1284164488315582,-0.553356409072876,-0.1943060457706451,-0.1195876747369766,0.0,0.0,-0.0660948753356933,-0.8188332915306091
-0.1467558890581131,0.3947254121303558,-0.1404223293066024,-0.5657128691673279,-0.1985163539648056,-0.0842060893774032,0.0,0.0,0.4716051816940307,0.0174674987792968
-0.1480079591274261,0.3828161954879761,-0.1213554143905639,-0.5298214554786682,-0.2023963779211044,-0.0776004642248153,0.0,0.0,0.863153338432312,0.1578202247619629
-0.1491865217685699,0.3715569972991943,-0.1138678044080734,-0.5009616017341614,-0.2064174711704254,-0.0804221183061599,0.0,0.0,-0.3440128564834595,0.055946946144104
-0.150393009185791,0.3599967360496521,-0.1166428104043006,-0.5143526196479797,-0.2104588001966476,-0.0808269530534744,0.0,0.0,-0.1854150295257568,-0.5766967535018921
-0.1516631096601486,0.3481505215167999,-0.1239716634154319,-0.5269347429275513,-0.213526502251625,-0.0613541081547737,0.0,0.0,-0.4411687850952148,0.151440143585205
-0.1529570519924163,0.3360031843185425,-0.1263398975133896,-0.5403251647949219,-0.2166153788566589,-0.0617774315178394,0.0,0.0,0.3535827398300171,-0.62139493227005
-0.154260829091072,0.3244977295398712,-0.1284026801586151,-0.5116477608680725,-0.2186131328344345,-0.0399550423026084,0.0,0.0,0.0557940006256103,0.762978196144104
-0.1554745733737945,0.3131410479545593,-0.1178408414125442,-0.5052693486213684,-0.2221801877021789,-0.0713409632444381,0.0,0.0,0.650763988494873,-0.343363881111145
-0.1566864997148513,0.302401065826416,-0.1171131357550621,-0.4779526591300964,-0.2263071686029434,-0.0825396329164505,0.0,0.0,-0.3009957671165466,0.5841293334960938
-0.1578792631626129,0.2913472056388855,-0.1143205761909484,-0.4920517206192016,-0.2313382178544998,-0.1006207317113876,0.0,0.0,0.3687901496887207,-0.2584000825881958
-0.1588620245456695,0.2808315753936767,-0.0936989560723304,-0.4680882394313812,-0.2359824776649475,-0.0928852185606956,0.0,0.0,-0.4725128412246704,-0.8092851042747498
-0.159910961985588,0.27002814412117,-0.1017374247312545,-0.4806600511074066,-0.2391842752695083,-0.0640359371900558,0.0,0.0,0.9398186206817628,-0.3187052607536316
-0.160588651895523,0.2601684927940368,-0.0653823912143707,-0.4385970532894134,-0.2416148334741592,-0.0486113391816616,0.0,0.0,0.949915051460266,-0.7533577084541321
-0.1611361503601074,0.2513794898986816,-0.0537740662693977,-0.3907815217971802,-0.2426012754440307,-0.019728785380721,0.0,0.0,0.7444626092910767,-0.5845393538475037
-0.1613546311855316,0.2435679733753204,-0.0224426351487636,-0.3470801413059234,-0.2419973015785217,0.0120796887204051,0.0,0.0,0.5293748378753662,0.0831502676010131
-0.1613742858171463,0.236211210489273,-0.00286594661884,-0.32681804895401,-0.2410769015550613,0.0184077583253383,0.0,0.0,-0.195809781551361,-0.421513020992279
-0.1613894402980804,0.2285532504320144,-0.0024103834293782,-0.3402075171470642,-0.2401640564203262,0.0182570274919271,0.0,0.0,-0.2943848371505737,-0.7251234650611877
-0.1614462882280349,0.2206186354160308,-0.0078742401674389,-0.3522941768169403,-0.2379343509674072,0.0445941127836704,0.0,0.0,-0.0037891864776611,-0.4327355623245239
-0.161493107676506,0.212382823228836,-0.0068810330703854,-0.3656838536262512,-0.2357058078050613,0.0445707067847251,0.0,0.0,0.510827898979187,-0.3999812602996826
-0.1615040749311447,0.2047096341848373,-0.0027872715145349,-0.34076127409935,-0.2339921742677688,0.0342727191746234,0.0,0.0,-0.2130526304244995,-0.2708775997161865
-0.1614999771118164,0.1967352479696273,-0.001279350137338,-0.3541506826877594,-0.2322720289230346,0.0344029068946838,0.0,0.0,-0.043204128742218,-0.3236134052276611
-0.1614781320095062,0.1884595304727554,0.0004740330914501,-0.3675399720668793,-0.2305410355329513,0.034619964659214,0.0,0.0,0.5588028430938721,-0.6349822282791138
-0.1613442450761795,0.1806245446205139,0.0103463260456919,-0.3477501571178436,-0.2274572700262069,0.0616753473877906,0.0,0.0,0.2775235176086426,-0.8594101071357727
-0.1610797941684723,0.1728708893060684,0.021580271422863,-0.3438619971275329,-0.2225357890129089,0.0984295755624771,0.0,0.0,0.1753734350204467,-0.4123715758323669
-0.1606157273054123,0.1655050367116928,0.0411948189139366,-0.326594740152359,-0.2172677665948867,0.1053605452179908,0.0,0.0,0.2588727474212646,-0.7541753649711609
-0.1600284576416015,0.1587580293416977,0.0519511327147483,-0.2988894879817962,-0.2104195356369018,0.136964350938797,0.0,0.0,-0.0791271328926086,-0.711168646812439
