x_pos,y_pos,x_vel,y_vel,angle,ang_vel,leg_1,leg_2,main_booster,lat_booster
-0.0014894485939294,1.4031758308410645,-0.1510221064090728,-0.3441967666149139,0.0018513411050662,0.0365260504186153,0.0,0.0,0.4026112216002346,0.8546488323935606
-0.0028288841713219,1.3955893516540527,-0.1342401355504989,-0.3371763825416565,0.0021421608980745,0.00581792043522,0.0,0.0,0.4063736241608429,-0.7605423700935681
-0.0040684700943529,1.38806414604187,-0.1261015832424163,-0.3344625830650329,0.0042667649686336,0.0424959696829319,0.0,0.0,0.2086362233300578,-0.8864713592962873
-0.0054472922347486,1.380634307861328,-0.1418454945087433,-0.3302288651466369,0.008194307796657,0.0785579159855842,0.0,0.0,-0.2373497415808521,0.7183825449173712
-0.0067250253632664,1.3727589845657349,-0.1301358193159103,-0.3500317633152008,0.0105257481336593,0.0466331839561462,0.0,0.0,0.1426576462543405,-0.9298603942923336
-0.0079364776611328,1.364997625350952,-0.1255399286746978,-0.3449820578098297,0.0148696610704064,0.0868860185146331,0.0,0.0,0.0487172515427758,-0.920883646025996
-0.0092119220644235,1.3573358058929443,-0.1339106857776641,-0.3406063914299011,0.0211762767285108,0.1261437833309173,0.0,0.0,0.8004907416000953,0.884572243459362
-0.0102221490815281,1.3502932786941528,-0.1061259657144546,-0.3130770623683929,0.0262196063995361,0.1008759588003158,0.0,0.0,-0.8416067176904154,0.5697536903335696
-0.0111590381711721,1.3428101539611816,-0.0978160873055458,-0.3326604664325714,0.030309310182929,0.0818014442920684,0.0,0.0,-0.5779897786682195,0.5475598385613669
-0.0120241167023777,1.3348839282989502,-0.0897034108638763,-0.3523439764976501,0.0334729701280593,0.0632788687944412,0.0,0.0,0.4835664567819233,0.7913351359495403
-0.0127305034548044,1.3273173570632937,-0.0725650042295456,-0.3363350033760071,0.0353738293051719,0.0380206741392612,0.0,0.0,-0.3396081363324821,0.7784730041255635
-0.0133415218442678,1.3193039894104004,-0.0614440627396106,-0.3561573922634125,0.0357182882726192,0.0068894661962985,0.0,0.0,-0.4226704918729493,0.5846926597009767
-0.0138705251738429,1.3108479976654053,-0.0520085766911506,-0.3758009672164917,0.0348250158131122,-0.0178669560700655,0.0,0.0,-0.0496401439776543,-0.7642764273113843
-0.0144280437380075,1.3019334077835083,-0.0563858076930046,-0.3962198197841644,0.035451952368021,0.0125401020050048,0.0,0.0,0.989294239942248,0.6659463663185643
-0.0147627834230661,1.2940773963928225,-0.0334562361240386,-0.3491524457931518,0.0354273281991481,-0.0004923414671793,0.0,0.0,-0.4534366374646421,-0.8709414348127651
-0.0151313785463571,1.2857593297958374,-0.0384488590061664,-0.3697321712970733,0.0370030216872692,0.0315166339278221,0.0,0.0,-0.6355927157013428,-0.9443410615414094
-0.0155370710417628,1.2770006656646729,-0.0438001453876495,-0.3893624246120453,0.040210660547018,0.0641584768891334,0.0,0.0,0.2567591732275032,0.8530695755946318
-0.0157430656254291,1.2682247161865234,-0.0224427096545696,-0.3900901675224304,0.042023941874504,0.0362692587077617,0.0,0.0,0.3477669243881169,0.6424956466386587
-0.015821075066924,1.2599964141845703,-0.0087032448500394,-0.3657348752021789,0.0429208800196647,0.0179402157664299,0.0,0.0,-0.7519738817171322,0.803050797559141
-0.0158279426395893,1.2513221502304075,-0.0003983494825661,-0.3855085968971252,0.042634293437004,-0.0057324757799506,0.0,0.0,0.5146208408571902,0.6155701274457772
-0.0156741142272949,1.2432483434677124,0.0164245665073394,-0.3588135540485382,0.0416123755276203,-0.0204402860254049,0.0,0.0,0.1329052380210731,-0.8486781009707902
-0.0155775072053074,1.2351717948913574,0.0087696630507707,-0.3589798510074615,0.0424874164164066,0.017502624541521,0.0,0.0,-0.887618580835265,-0.5501491977846462
-0.0155040742829442,1.2266438007354736,0.0053807934746146,-0.3790821135044098,0.0444274544715881,0.0388042069971561,0.0,0.0,0.8742204300100651,-0.7751117069619583
-0.015412044711411,1.2181909084320068,0.0052863396704196,-0.3758035004138946,0.0483097806572914,0.0776533409953117,0.0,0.0,-0.8662872380824695,0.9707091160144088
-0.0152541156858205,1.2092963457107544,0.0131375510245561,-0.3954001069068908,0.0509277731180191,0.0523647181689739,0.0,0.0,-0.0137635518447443,-0.8414044701850056
-0.0151729583740234,1.199930191040039,0.0031510062981396,-0.4164531826972961,0.0558409355580806,0.0982635244727134,0.0,0.0,0.7913477137876892,-0.8477686486205109
-0.0151947978883981,1.1912956237792969,-0.0090854940935969,-0.3840333819389343,0.0626670122146606,0.1365213245153427,0.0,0.0,-0.2636909708604988,-0.8183671783498967
-0.015294075012207,1.1822144985198977,-0.0190477930009365,-0.4040190577507019,0.0716944709420204,0.1805491149425506,0.0,0.0,-0.0364362970218334,0.7176257372837538
-0.0153493881225585,1.172696232795715,-0.0137557219713926,-0.4234424531459808,0.0798241272568702,0.1625935137271881,0.0,0.0,-0.0947926657241862,0.5865755751280439
-0.0153621677309274,1.162733554840088,-0.0085764704272151,-0.443193107843399,0.087052047252655,0.1445584893226623,0.0,0.0,-0.0362260238312883,-0.5497617012258854
-0.0154212955385446,1.1523239612579346,-0.0145032629370689,-0.4631758034229278,0.0955666229128837,0.1702914088964462,0.0,0.0,-0.9392085671424866,0.990412712097168
-0.015417861752212,1.1414706707000732,-0.0067446446046233,-0.4828391373157501,0.1025930643081665,0.1405293494462967,0.0,0.0,-0.8598564863204956,0.7189879417419434
-0.0153736118227243,1.1301836967468262,-0.0016425112262368,-0.5020706057548523,0.1086107045412063,0.1203529834747314,0.0,0.0,-0.7788545489311218,0.9792885780334472
-0.0152690885588526,1.1184511184692385,0.0059128599241375,-0.5217850804328918,0.1131175830960273,0.0901376381516456,0.0,0.0,-0.9295273423194884,0.9624347686767578
-0.0150979040190577,1.1062854528427124,0.0143322963267564,-0.5409061908721924,0.1158852204680442,0.0553528480231761,0.0,0.0,-0.7039203643798828,0.3793473243713379
-0.0149391172453761,1.0936716794967651,0.0128542650490999,-0.5608537197113037,0.1188879758119583,0.0600549206137657,0.0,0.0,-0.942754566669464,0.8664631843566895
-0.0147289279848337,1.0806167125701904,0.0194302126765251,-0.5803464651107788,0.1204747483134269,0.0317353345453739,0.0,0.0,-0.8392128348350525,0.013124942779541
-0.0145340915769338,1.0671133995056152,0.0176545158028602,-0.6002936959266663,0.1222986876964569,0.0364786088466644,0.0,0.0,-0.8872661590576172,0.0730142593383789
-0.014355850405991,1.053161859512329,0.0157409645617008,-0.6202410459518433,0.1243605837225914,0.041237898170948,0.0,0.0,-0.8276235461235046,0.5463396310806274
-0.0141509054228663,1.0387710332870483,0.0193276163190603,-0.6396880745887756,0.125518724322319,0.0231627486646175,0.0,0.0,-0.675718367099762,0.7508056163787842
-0.0139173511415719,1.0239474773406982,0.0231940895318985,-0.6588442325592041,0.1256796866655349,0.0032192454673349,0.0,0.0,-0.3731204867362976,0.5497022867202759
-0.013652229681611,1.0086839199066162,0.0274475775659084,-0.6782964468002319,0.1247580349445343,-0.0184330530464649,0.0,0.0,-0.6245868802070618,0.1333652734756469
-0.013408469967544,0.9929722547531128,0.0250563975423574,-0.6982436776161194,0.1240760535001754,-0.0136395692825317,0.0,0.0,0.1545718908309936,0.4640135765075683
-0.0131641384214162,0.9773749709129332,0.024555642157793,-0.693206250667572,0.1239547580480575,-0.0024259076453745,0.0,0.0,-0.2441926002502441,0.8530371189117432
-0.0128800394013524,0.9613308906555176,0.0298899803310632,-0.7129484415054321,0.1224893778562545,-0.0293078925460577,0.0,0.0,-0.3150936365127563,0.503777027130127
-0.0125772478058934,0.9448412656784058,0.0326001904904842,-0.7326835989952087,0.1201831474900245,-0.0461243093013763,0.0,0.0,-0.1477164626121521,0.307262659072876
-0.012299632653594,0.9279032945632936,0.0298427753150463,-0.7526310682296753,0.1181159615516662,-0.0413438342511653,0.0,0.0,0.3364690542221069,0.5855550765991211
-0.0121808052062988,0.9115185141563416,0.0151055362075567,-0.7279583215713501,0.1149133816361427,-0.0640515461564064,0.0,0.0,-0.6909931302070618,0.3248703479766845
-0.012088680639863,0.894685685634613,0.0122015932574868,-0.7479060292243958,0.1119486689567565,-0.0592946112155914,0.0,0.0,-0.2283576726913452,0.5763869285583496
-0.0119799617677927,0.8774101138114929,0.014732819981873,-0.7675157189369202,0.1081120818853378,-0.0767316818237304,0.0,0.0,-0.1543721556663513,0.4769887924194336
-0.0118991853669285,0.8596863150596619,0.0117033654823899,-0.7874637246131897,0.1045116037130355,-0.0720093995332717,0.0,0.0,0.8238085508346558,0.238899827003479
-0.0119949337095022,0.8427175879478455,-0.0058883451856672,-0.7539119124412537,0.1008520945906639,-0.0731901302933693,0.0,0.0,-0.140191912651062,0.5222487449645996
-0.0120709417387843,0.8253052830696106,-0.0029090507887303,-0.7735769748687744,0.0961971059441566,-0.0930994600057601,0.0,0.0,-0.2609665393829345,0.376272439956665
-0.012176513671875,0.8074446320533752,-0.0060928245075047,-0.7935252785682678,0.0917746126651763,-0.0884499549865722,0.0,0.0,0.469095230102539,-0.5190889239311218
-0.0122504234313964,0.7897952795028687,-0.0045673353597521,-0.7842433452606201,0.0889751389622688,-0.0559897534549236,0.0,0.0,0.9077489376068116,0.7732827663421631
-0.0124614713713526,0.7724993824958801,-0.0166877005249261,-0.7684530019760132,0.0845992118120193,-0.0875182002782821,0.0,0.0,0.2874355316162109,-0.2347824573516845
-0.0126827238127589,0.7556926012039185,-0.0182797629386186,-0.7467514872550964,0.0807897523045539,-0.0761892944574356,0.0,0.0,0.0510170459747314,0.010770559310913
-0.0128822326660156,0.7390896677970886,-0.0167384594678878,-0.7377384901046753,0.0776120647788047,-0.0635537952184677,0.0,0.0,0.0942728519439697,0.1683734655380249
-0.0131059642881155,0.7228596210479736,-0.0196313112974166,-0.7211959362030029,0.0748868882656097,-0.0545032992959022,0.0,0.0,-0.4992095232009887,-0.13589608669281
-0.0133616449311375,0.7061811685562134,-0.0230292454361915,-0.7411425709724426,0.0723831802606582,-0.0500740930438041,0.0,0.0,0.3442186117172241,0.6039590835571289
-0.0135774612426757,0.6895098090171814,-0.018156399950385,-0.740782618522644,0.0689877346158027,-0.0679089576005935,0.0,0.0,-0.3490029573440552,0.4130234718322754
-0.0138256074860692,0.672390341758728,-0.0216042958199977,-0.7607294917106628,0.0658089816570282,-0.0635751187801361,0.0,0.0,-0.2408047318458557,0.247807502746582
-0.0141063686460256,0.654822051525116,-0.0250740442425012,-0.7806761264801025,0.0628443285822868,-0.0592930987477302,0.0,0.0,0.3631267547607422,-0.2899546027183532
-0.0144321443513035,0.6375645399093628,-0.0298885647207498,-0.7668966054916382,0.0601809360086917,-0.0532677397131919,0.0,0.0,0.1026982069015502,0.5081958770751953
-0.0147609710693359,0.6202594637870789,-0.0293903890997171,-0.7689809203147888,0.056726336479187,-0.0690922141075134,0.0,0.0,0.3003828525543213,0.6572885513305664
-0.0152053833007812,0.603198230266571,-0.0396472960710525,-0.7581031918525696,0.0519871450960636,-0.0947835594415664,0.0,0.0,-0.1808121800422668,0.3626517057418823
-0.0156830791383981,0.5856886506080627,-0.0431865788996219,-0.7780505418777466,0.0474503599107265,-0.0907355397939682,0.0,0.0,0.8214387893676758,-0.2463015913963318
-0.0161192901432514,0.5682201981544495,-0.0396517068147659,-0.7762547731399536,0.0435313433408737,-0.0783805176615715,0.0,0.0,0.7411160469055176,0.0358506441116333
-0.0165997501462698,0.5516533851623535,-0.0444163605570793,-0.7362021207809448,0.0399398282170295,-0.0718303844332695,0.0,0.0,-0.1219009757041931,0.7434399127960205
-0.0170644763857126,0.5346378684043884,-0.0417602285742759,-0.7561267018318176,0.0352931395173072,-0.0929338857531547,0.0,0.0,0.6612117290496826,0.1911284923553466
-0.0176793094724416,0.5181897878646851,-0.0565413162112236,-0.730919599533081,0.0304079111665487,-0.097704604268074,0.0,0.0,0.6923907995223999,0.8563934564590454
-0.0182449333369731,0.5022554993629456,-0.0501389093697071,-0.7080716490745544,0.0240626391023397,-0.1269052624702453,0.0,0.0,-0.3604573011398315,0.1553442478179931
-0.0188447944819927,0.4858731031417846,-0.0537411160767078,-0.7280200123786926,0.017898378893733,-0.1232852339744567,0.0,0.0,0.8880373239517212,0.3284587860107422
-0.0194067005068063,0.4700343906879425,-0.050526637583971,-0.7038843631744385,0.0122995069250464,-0.1119773760437965,0.0,0.0,0.1881104707717895,-0.3368626832962036
-0.0200308803468942,0.4541687965393066,-0.056797195225954,-0.7051023840904236,0.0067614074796438,-0.1107622161507606,0.0,0.0,0.4067264795303345,0.1561194658279419
-0.0206334106624126,0.4382705986499786,-0.0550842657685279,-0.7065733671188354,0.0016598496586084,-0.1020312160253524,0.0,0.0,0.5225859880447388,0.6617090702056885
-0.0212504379451274,0.4223867654800415,-0.0553078949451446,-0.7059555053710938,-0.004658777732402,-0.1263723671436309,0.0,0.0,0.9233545064926147,-0.6223342418670654
-0.0219574924558401,0.4074456691741943,-0.0656930580735206,-0.6640713214874268,-0.0096076494082808,-0.0989774912595748,0.0,0.0,0.6480257511138916,-0.1861369609832763
-0.0226116180419921,0.393275499343872,-0.0609279498457908,-0.6298197507858276,-0.0140316653996706,-0.0884803682565689,0.0,0.0,0.7266161441802979,0.6377289295196533
-0.0233646389096975,0.3799460828304291,-0.0693762227892875,-0.5924848318099976,-0.0198788121342659,-0.1169429793953895,0.0,0.0,0.2135730981826782,0.5297956466674805
-0.0242097862064838,0.3665297329425812,-0.0774578526616096,-0.5963928699493408,-0.0268467906862497,-0.1393596827983856,0.0,0.0,0.7101254463195801,0.5083761215209961
-0.0249830242246389,0.3538933098316192,-0.0695192068815231,-0.5617772340774536,-0.0345582775771617,-0.1542299687862396,0.0,0.0,-0.2877871990203857,0.4806119203567505
-0.0257911682128906,0.3408089280128479,-0.0731502622365951,-0.581726610660553,-0.0421326495707035,-0.1514870673418045,0.0,0.0,0.200878620147705,0.2702627182006836
-0.0266533847898244,0.3280172944068908,-0.0784976705908775,-0.5687525272369385,-0.0497589968144893,-0.1525270640850067,0.0,0.0,0.4831416606903076,-0.370390772819519
-0.0275299064815044,0.3157188892364502,-0.080023169517517,-0.5468699336051941,-0.0573074854910373,-0.150969848036766,0.0,0.0,-0.4859474897384643,0.0347949266433715
-0.0284415241330862,0.3029723167419433,-0.0836480632424354,-0.5668188333511353,-0.0647331774234771,-0.1485137045383453,0.0,0.0,0.3604642152786255,-0.9162437915802002
-0.0294201858341693,0.2901952862739563,-0.0923488587141037,-0.5681191682815552,-0.0702005624771118,-0.1093474179506301,0.0,0.0,0.8998212814331055,-0.2964740991592407
-0.0302950851619243,0.2776512801647186,-0.0825739875435829,-0.5577499270439148,-0.0750613436102867,-0.0972157344222068,0.0,0.0,0.8182355165481567,-0.7735098004341125
-0.031042480841279,0.2655854225158691,-0.0718698278069496,-0.5364074110984802,-0.0779008418321609,-0.0567899122834205,0.0,0.0,0.4929343461990356,-0.8527480959892273
-0.0317235961556434,0.2535884976387024,-0.0672520399093627,-0.5332401990890503,-0.0787507072091102,-0.0169971399009227,0.0,0.0,0.9033188819885254,0.1349745988845825
-0.0323780998587608,0.2424377351999282,-0.0646601542830467,-0.4956316649913788,-0.0795320346951484,-0.0156264267861843,0.0,0.0,0.2825613021850586,-0.0368492007255554
-0.0329968445003032,0.2317157536745071,-0.0612892992794513,-0.4765633344650268,-0.0801081731915474,-0.0115227540954947,0.0,0.0,-0.0641632080078125,-0.0039184093475341
-0.0336503982543945,0.2205448895692825,-0.0648728162050247,-0.4965073764324188,-0.0805948749184608,-0.0097338948398828,0.0,0.0,0.5725826025009155,-0.2290597558021545
-0.0342182144522666,0.209378182888031,-0.0568243563175201,-0.496295303106308,-0.0805526822805404,0.0008438457734882,0.0,0.0,0.4710936546325683,-0.0554403662681579
-0.0348310470581054,0.1984462887048721,-0.0611837692558765,-0.4858692288398742,-0.0806466490030288,-0.0018795384094119,0.0,0.0,0.6567676067352295,-0.0727651119232177
-0.0353242866694927,0.1883488744497299,-0.0497008338570594,-0.4487552344799042,-0.0802722349762916,0.0074881673790514,0.0,0.0,-0.3091365694999695,-0.3116693496704101
-0.0358522422611713,0.1778025776147842,-0.053242277354002,-0.4686993658542633,-0.0798263698816299,0.008917479775846,0.0,0.0,0.6662847995758057,-0.1817282438278198
-0.0364758484065532,0.1680220961570739,-0.0622945129871368,-0.4346900284290313,-0.0798939168453216,-0.0013510669814422,0.0,0.0,-0.3141095638275146,-0.6133838295936584
-0.037175178527832,0.157800942659378,-0.0709861814975738,-0.4542199373245239,-0.0788524374365806,0.0208295602351427,0.0,0.0,0.0373741388320922,0.785323977470398
-0.0378484725952148,0.1478383690118789,-0.0668541267514228,-0.4428085088729858,-0.0793311893939971,-0.0095749469473958,0.0,0.0,-0.0230379104614257,0.5094549655914307
-0.0385212898254394,0.1374264508485794,-0.0659673064947128,-0.4628212749958038,-0.080629326403141,-0.0259627941995859,0.0,0.0,0.896196722984314,0.4150834083557129
-0.0392106063663959,0.1274236738681793,-0.0675394088029861,-0.4446410536766052,-0.0820084512233734,-0.0275826659053564,0.0,0.0,0.9761967658996582,-0.0136729478836059
-0.0400139801204204,0.1180647686123848,-0.078346349298954,-0.4160626828670501,-0.0839857757091522,-0.0395465195178985,0.0,0.0,0.9091660976409912,0.0264171361923217
-0.0409737601876258,0.1091836541891098,-0.0932085067033767,-0.3948737382888794,-0.0867237225174903,-0.054759282618761,0.0,0.0,0.9009701013565063,0.5326476097106934
-0.0417244918644428,0.1010702922940254,-0.0716599822044372,-0.3607931733131408,-0.0901046395301818,-0.0676183253526687,0.0,0.0,0.3669544458389282,-0.1685453653335571
-0.0424305908381938,0.0929575785994529,-0.0674737393856048,-0.3607589304447174,-0.0932137966156005,-0.062182992696762,0.0,0.0,0.5747959613800049,-0.3288618326187134
-0.0429644584655761,0.0854629129171371,-0.0509362928569316,-0.3332519233226776,-0.0956496149301529,-0.0487165041267871,0.0,0.0,0.3863558769226074,-0.5330168604850769
-0.0435315147042274,0.0785051882266998,-0.0553051717579364,-0.3093205988407135,-0.0970391854643821,-0.0277914348989725,0.0,0.0,0.4210119247436523,-0.2938235998153686
-0.0439378730952739,0.0721781104803085,-0.0398384407162666,-0.281253844499588,-0.0978332236409187,-0.0158806107938289,0.0,0.0,-0.0209323763847351,-0.3811730146408081
-0.0443766601383686,0.0654022768139839,-0.0431068465113639,-0.3011983036994934,-0.0986021012067794,-0.0153774619102478,0.0,0.0,0.4988203048706054,-0.3702982068061828
-0.04478120803833,0.0592843405902385,-0.0396687909960746,-0.2719613015651703,-0.0993786677718162,-0.0155318528413772,0.0,0.0,0.1664435863494873,0.3625214099884033
-0.0451197624206543,0.0535411201417446,-0.0332886055111885,-0.2552894055843353,-0.0999369993805885,-0.0111668538302183,0.0,0.0,-0.010772168636322,-0.2287044525146484
-0.0454897880554199,0.0473492257297039,-0.0364521592855453,-0.2752339243888855,-0.1004774570465087,-0.0108091253787279,0.0,0.0,0.6737959384918213,0.2846720218658447
-0.0459512695670127,0.0416620820760726,-0.0450423546135425,-0.2528383731842041,-0.1015753895044326,-0.0219587925821542,0.0,0.0,0.5290682315826416,0.4984452724456787
-0.046513270586729,0.0362551063299179,-0.0545572265982627,-0.2404201179742813,-0.1032091006636619,-0.0326742902398109,0.0,0.0,0.4352800846099853,0.8395988941192627
-0.0470100417733192,0.0311227180063724,-0.0463280081748962,-0.2283409535884857,-0.1065319702029228,-0.0664576068520546,0.0,0.0,0.4663511514663696,0.9279019832611084
-0.0473873130977153,0.026230439543724,-0.0325529277324676,-0.2178141176700592,-0.1116690933704376,-0.1027422547340393,0.0,0.0,0.6192891597747803,0.2769430875778198
-0.0476273521780967,0.0213935952633619,-0.0194406025111675,-0.2153171598911285,-0.1162052527070045,-0.0907229706645011,0.0,0.0,0.7603528499603271,-0.5332266688346863
-0.0477434173226356,0.0171841718256473,-0.0084366369992494,-0.1873375475406646,-0.1193606778979301,-0.0631087347865104,0.0,0.0,0.3886615037918091,0.4385684728622436
-0.0477861389517784,0.0135320760309696,-0.0011994434753432,-0.1625641882419586,-0.1224123239517211,-0.0610329993069171,0.0,0.0,-0.033859372138977,0.2347581386566162
