x_pos,y_pos,x_vel,y_vel,angle,ang_vel,leg_1,leg_2,main_booster,lat_booster
-0.0015338897937908,1.4030566215515137,-0.1548921763896942,-0.3494862914085388,0.0013508348492905,0.0266159139573574,0.0,0.0,0.8529729195436144,0.5686009282521419
-0.0029726028442382,1.3954219818115234,-0.1438109278678894,-0.3393164575099945,0.0012942312750965,-0.0011314684525132,0.0,0.0,0.9239517060451828,-0.8094505193087934
-0.0043171881698071,1.3879188299179075,-0.1359810382127761,-0.333471417427063,0.0027952676173299,0.0300233401358127,0.0,0.0,-0.937287033076944,0.5445692456465301
-0.0056393621489405,1.379846215248108,-0.1324131190776825,-0.3587845861911773,0.0029896362684667,0.0038877218030393,0.0,0.0,-0.5839002081821716,-0.8253905788916087
-0.0070249559357762,1.3712081909179688,-0.1396085172891616,-0.383915364742279,0.0040246001444756,0.0207013115286827,0.0,0.0,-0.6942740250929633,0.6718733587326569
-0.0083587644621729,1.362001657485962,-0.1323129534721374,-0.4091719686985016,0.0029783758800476,-0.0209265369921922,0.0,0.0,0.9191185584139744,-0.8792872006210923
-0.0098058702424168,1.3532332181930542,-0.1449012756347656,-0.3897106945514679,0.0031618317589163,0.0036695953458547,0.0,0.0,-0.2283501587522303,-0.9941185192044828
-0.0113259311765432,1.343899488449097,-0.1532310247421264,-0.4148417711257934,0.0043702078983187,0.0241698157042264,0.0,0.0,-0.2781450667586538,-0.8580739810992821
-0.0129295345395803,1.3340067863464355,-0.1628740578889846,-0.439684122800827,0.0068531990982592,0.0496642850339412,0.0,0.0,0.8939178349736785,0.9980964857092096
-0.0144764902070164,1.324802279472351,-0.1547296494245529,-0.4090872704982757,0.0068952534347772,0.0008410682203248,0.0,0.0,0.335847506491278,-0.7334810385260879
-0.0160220153629779,1.3157514333724976,-0.1557266563177108,-0.4022642076015472,0.0080513702705502,0.0231245514005422,0.0,0.0,0.3277427019322274,0.6311554178412255
-0.0174746513366699,1.306769609451294,-0.1448243856430053,-0.3991908729076385,0.007611820474267,-0.0087919067591428,0.0,0.0,0.8313860508543638,-0.9975306642420688
-0.0188671108335256,1.298388957977295,-0.1405804455280304,-0.3724814057350158,0.0089382147416472,0.0265301205217838,0.0,0.0,0.9239503592706904,-0.9963750716872124
-0.020269488915801,1.2900515794754028,-0.1432517915964126,-0.3705723583698272,0.0119225811213254,0.0596926137804985,0.0,0.0,-0.4838703023465389,0.914241063625671
-0.0216004364192485,1.2811574935913086,-0.1333832889795303,-0.3952997624874115,0.0121964188292622,0.0054772887378931,0.0,0.0,0.4732438034366104,0.904212744236689
-0.0227706916630268,1.272085666656494,-0.1151333898305893,-0.4031727910041809,0.0103387143462896,-0.0371575430035591,0.0,0.0,0.9853857645277238,-0.7129459904025471
-0.0238476749509573,1.26399827003479,-0.1072354093194007,-0.3594419062137604,0.0098754875361919,-0.0092654433101415,0.0,0.0,0.4214306694760401,0.9981874399423744
-0.0247267726808786,1.255820870399475,-0.0850610956549644,-0.3634179830551147,0.0070604886859655,-0.0563049688935279,0.0,0.0,0.3563155984362551,0.5617067481841387
-0.0254984851926565,1.2480711936950684,-0.0729141905903816,-0.3444172739982605,0.0028482372872531,-0.084253080189228,0.0,0.0,0.7455128382383645,-0.9500460392738196
-0.0264619830995798,1.2406495809555054,-0.0933628529310226,-0.3298519253730774,-0.000100348588603,-0.0589768514037132,0.0,0.0,-0.1030844917839139,-0.7292999952316723
-0.0274909976869821,1.2326653003692627,-0.1005902662873268,-0.354854553937912,-0.0023859408684074,-0.0457159243524074,0.0,0.0,0.6075661828338648,-0.788472252706711
-0.0285892486572265,1.224754810333252,-0.1086361780762672,-0.3515733778476715,-0.0035617158282548,-0.0235176086425781,0.0,0.0,0.4058021492616899,-0.8604663697066088
-0.0296497344970703,1.2169699668884275,-0.1062487736344337,-0.3459906876087188,-0.0033626717049628,0.0039813318289816,0.0,0.0,0.4868623873492956,-0.7591181602652604
-0.0307208057492971,1.2090303897857666,-0.1084700673818588,-0.3528745472431183,-0.0020191390067338,0.0268732495605945,0.0,0.0,-0.0936054129215311,0.9355558458118836
-0.0317570678889751,1.2005252838134766,-0.1030580028891563,-0.3780055940151214,-0.0025785281322896,-0.0111886207014322,0.0,0.0,-0.8552022171392868,0.983078809762386
-0.0327563285827636,1.191435933113098,-0.0973727107048034,-0.4039749801158905,-0.0051002139225602,-0.0504336580634117,0.0,0.0,-0.3411000363549477,-0.5717415866396984
-0.0338229164481163,1.181782841682434,-0.1047571450471878,-0.4290319979190826,-0.0069738551974296,-0.0374730676412582,0.0,0.0,-0.1433999748619501,0.9588405580291656
-0.0348526015877723,1.1715716123580933,-0.0990722179412841,-0.4538587629795074,-0.0108223212882876,-0.0769691243767738,0.0,0.0,0.4558439901213997,-0.5812877888469032
-0.0360687263309955,1.1618242263793943,-0.1181124299764633,-0.433249682188034,-0.0142784165218472,-0.0691220462322235,0.0,0.0,0.3876615586068401,-0.6524693221310311
-0.0373732559382915,1.1521224975585938,-0.1277429759502411,-0.4312157034873962,-0.0169559009373188,-0.0535498782992363,0.0,0.0,0.7963681021673554,0.9026640912222584
-0.038591481745243,1.1432417631149292,-0.1168423295021057,-0.3947640657424927,-0.0218720715492963,-0.0983233898878097,0.0,0.0,-0.972505271434784,0.6115150451660156
-0.0397912971675396,1.1337889432907104,-0.1134376376867294,-0.420236587524414,-0.028330048546195,-0.1291594952344894,0.0,0.0,-0.9324378967285156,0.6624279022216797
-0.0409696586430072,1.123773455619812,-0.1096499115228653,-0.4453059732913971,-0.0364066585898399,-0.1615322977304458,0.0,0.0,-0.6666262149810791,0.0597015619277954
-0.0421719551086425,1.1131913661956787,-0.1115668565034866,-0.4705469012260437,-0.0449653901159763,-0.1711749285459518,0.0,0.0,-0.6995236873626709,-0.4432841539382934
-0.043398380279541,1.1020430326461792,-0.1135011464357376,-0.4957889020442962,-0.0540059953927993,-0.1808120608329773,0.0,0.0,-0.8631190061569214,0.8698948621749878
-0.0445781722664833,1.0903292894363403,-0.1065416112542152,-0.5210628509521484,-0.0653102993965148,-0.2260863780975341,0.0,0.0,-0.2617464661598205,0.1222635507583618
-0.0457823760807514,1.0780500173568726,-0.1085051745176315,-0.5463102459907532,-0.0770956203341484,-0.2357066124677658,0.0,0.0,0.477994441986084,-0.9151016473770142
-0.0469918251037597,1.066234469413757,-0.1104481816291809,-0.5257136821746826,-0.0874946787953376,-0.207980990409851,0.0,0.0,-0.3238005638122558,-0.941936731338501
-0.0483043678104877,1.0538737773895264,-0.1222982257604599,-0.5499165058135986,-0.0963709279894828,-0.1775249242782592,0.0,0.0,-0.2037478685379028,0.3162691593170166
-0.0496416091918945,1.0409469604492188,-0.1242899149656295,-0.5751609802246094,-0.105726346373558,-0.1871085911989212,0.0,0.0,0.8398922681808472,-0.5940432548522949
-0.0510848984122276,1.028780221939087,-0.1352751553058624,-0.5414150953292847,-0.1147135123610496,-0.1797435283660888,0.0,0.0,-0.93636953830719,-0.1629605889320373
-0.0525527969002723,1.016047477722168,-0.1372755467891693,-0.566660463809967,-0.1241781711578369,-0.1892929375171661,0.0,0.0,-0.8068458437919617,-0.3356510400772095
-0.0540454871952533,1.0027490854263306,-0.1392772495746612,-0.5919068455696106,-0.1341192424297332,-0.198821559548378,0.0,0.0,0.5918352603912354,-0.9748457074165344
-0.0554637908935546,0.989633560180664,-0.1334591954946518,-0.5836842656135559,-0.1424675285816192,-0.1669657379388809,0.0,0.0,-0.9532908201217652,0.2333649396896362
-0.0569067969918251,0.9759523272514344,-0.1354563534259796,-0.6089296936988831,-0.1512898206710815,-0.1764460951089859,0.0,0.0,-0.8335188627243042,-0.5876894593238831
-0.0584174171090126,0.961708962917328,-0.1428374052047729,-0.6338977217674255,-0.1595020145177841,-0.1642438322305679,0.0,0.0,0.1893191337585449,-0.8492094278335571
-0.0599180236458778,0.9473754167556764,-0.143109992146492,-0.6378138065338135,-0.1664570569992065,-0.1391005963087082,0.0,0.0,-0.0470112562179565,-0.7615669965744019
-0.0615124702453613,0.932501256465912,-0.1538442075252533,-0.6617085337638855,-0.1720665544271469,-0.1121901646256446,0.0,0.0,-0.9560921788215636,-0.8932947516441345
-0.0632150620222091,0.9170907735824584,-0.166381299495697,-0.6853707432746887,-0.1759542971849441,-0.0777546092867851,0.0,0.0,0.1748487949371338,-0.3952253460884094
-0.0648931488394737,0.9016517996788024,-0.1634061634540558,-0.6867049336433411,-0.1803770214319229,-0.0884545892477035,0.0,0.0,-0.8694743514060974,-0.6859570145606995
-0.0666358023881912,0.8856574296951294,-0.1704416573047638,-0.7113349437713623,-0.1842150688171386,-0.0767608061432838,0.0,0.0,-0.3722350597381592,-0.625137448310852
-0.0684547424316406,0.86911541223526,-0.1789857447147369,-0.7355643510818481,-0.1871370375156402,-0.0584392771124839,0.0,0.0,-0.446566641330719,-0.9147514700889589
-0.0703558921813964,0.8520185351371765,-0.1882393360137939,-0.7601064443588257,-0.1890179216861724,-0.0376177206635475,0.0,0.0,0.2435755729675293,-0.9072715640068054
-0.0722338706254959,0.8352670669555664,-0.1872889250516891,-0.7445730566978455,-0.1895257830619812,-0.0101573718711733,0.0,0.0,0.2370965480804443,-0.8478204607963562
-0.0740061774849891,0.818466305732727,-0.1780604571104049,-0.7465904355049133,-0.1886907517910003,0.0167002454400062,0.0,0.0,-0.0028855800628662,-0.3321689367294311
-0.0758008956909179,0.8010988831520081,-0.1798613369464874,-0.7718314528465271,-0.188303917646408,0.0077365413308143,0.0,0.0,0.1645004749298095,-0.7504815459251404
-0.0774957686662674,0.7839949727058411,-0.1709994226694107,-0.7599862217903137,-0.1867792904376983,0.0304925087839365,0.0,0.0,0.0520284175872802,-0.4709929227828979
-0.0790461525321006,0.7669328451156616,-0.1565236747264862,-0.7581313252449036,-0.1852882802486419,0.0298200193792581,0.0,0.0,-0.4297877550125122,-0.261172890663147
-0.0806178078055381,0.749303936958313,-0.1582152396440506,-0.7833723425865173,-0.1842328310012817,0.0211087949573993,0.0,0.0,0.0842697620391845,0.0309650897979736
-0.0821648612618446,0.7318827509880066,-0.1550990045070648,-0.7742332816123962,-0.1838391870260238,0.0078728720545768,0.0,0.0,0.505573034286499,-0.4722994565963745
-0.0836246460676193,0.7143794298171997,-0.1461609899997711,-0.7778975963592529,-0.1836549192667007,0.0036852546036243,0.0,0.0,0.5684553384780884,-0.4203497171401977
-0.0850760489702224,0.6973175406455994,-0.1444739699363708,-0.7583867311477661,-0.1843302994966507,-0.013507735915482,0.0,0.0,-0.3264380097389221,-0.8440618515014648
-0.0865990668535232,0.6797013878822327,-0.1525537818670272,-0.7829062342643738,-0.1840739995241165,0.0051260204054415,0.0,0.0,0.7483394145965576,-0.4925247430801391
-0.0879972428083419,0.6624681353569031,-0.1397908329963684,-0.7659247517585754,-0.1841083168983459,-0.0006864253664389,0.0,0.0,0.7762808799743652,-0.0762372612953186
-0.089326187968254,0.6453014612197876,-0.1325018107891082,-0.763016939163208,-0.1845021992921829,-0.0078775780275464,0.0,0.0,0.9225069284439088,-0.6607919335365295
-0.0907495468854904,0.628639280796051,-0.1424810141324997,-0.7405226826667786,-0.1843542903661728,0.0029585435986518,0.0,0.0,0.8063993453979492,-0.1898596882820129
-0.0919946655631065,0.6127834916114807,-0.124389573931694,-0.7047125697135925,-0.1844792515039444,-0.0024992402177304,0.0,0.0,-0.4655851125717163,-0.8398727774620056
-0.0933131203055381,0.5963668823242188,-0.1327888369560241,-0.729509711265564,-0.183527410030365,0.0190367586910724,0.0,0.0,0.6500918865203857,0.1714261770248413
-0.0944642052054405,0.5806334614753723,-0.1158193945884704,-0.6991756558418274,-0.1828123033046722,0.0143022807314991,0.0,0.0,0.1130878925323486,-0.4509047269821167
-0.0956336036324501,0.5648208260536194,-0.1170117631554603,-0.7027761936187744,-0.1827409565448761,0.0014269415987655,0.0,0.0,0.7192487716674805,-0.450682520866394
-0.0967820137739181,0.5495065450668335,-0.1141309961676597,-0.680719256401062,-0.1834501177072525,-0.0141833629459142,0.0,0.0,0.1233580112457275,-0.6773409247398376
-0.0978945717215538,0.5342589020729065,-0.1115988716483116,-0.6776313781738281,-0.183098018169403,0.0070419199764728,0.0,0.0,0.6300743818283081,-0.2511906623840332
-0.0989913940429687,0.5197079181671143,-0.109139584004879,-0.6467781066894531,-0.1836457401514053,-0.0109542049467563,0.0,0.0,-0.3178579807281494,-0.2653461694717407
-0.1000983268022537,0.5045899152755737,-0.1098541840910911,-0.6720168590545654,-0.1844905614852905,-0.0168964397162199,0.0,0.0,0.8190004825592041,-0.858580470085144
-0.1012430191040039,0.4895631074905395,-0.1149881035089492,-0.6677957773208618,-0.1839739382266998,0.0103325303643941,0.0,0.0,0.7067593336105347,-0.7108386754989624
-0.1023150458931922,0.4744513928890228,-0.1090369969606399,-0.6714056730270386,-0.1821369230747223,0.0367403514683246,0.0,0.0,0.933639407157898,-0.4490448236465454
-0.1033582687377929,0.4593685865402221,-0.1057374030351638,-0.6701720356941223,-0.1807179003953933,0.0283805429935455,0.0,0.0,0.8936123847961426,-0.7339779138565063
-0.1043101325631141,0.4450851380825043,-0.0978146567940712,-0.6345033049583435,-0.178074762225151,0.0528628453612327,0.0,0.0,0.8296041488647461,-0.7952297925949097
-0.1050715446472168,0.4315669536590576,-0.0803676396608352,-0.6003085374832153,-0.1738425940275192,0.0846432447433471,0.0,0.0,0.5628180503845215,0.6235023736953735
-0.1057665795087814,0.4186470508575439,-0.072044163942337,-0.5739207863807678,-0.1713022738695144,0.0508063845336437,0.0,0.0,0.0244473218917846,0.2166717052459716
-0.106507584452629,0.405483990907669,-0.0760904848575592,-0.5847968459129333,-0.1692993193864822,0.0400590449571609,0.0,0.0,0.5757044553756714,0.2438941001892089
-0.1070838943123817,0.3928584456443786,-0.0596729293465614,-0.5609021782875061,-0.1672622114419937,0.0407421514391899,0.0,0.0,0.7063968181610107,-0.8064137101173401
-0.1077369675040245,0.3805894553661346,-0.0686279982328414,-0.5449214577674866,-0.1639427691698074,0.0663889199495315,0.0,0.0,0.3955994844436645,0.9662010669708252
-0.1082711219787597,0.368598610162735,-0.0546636395156383,-0.5327890515327454,-0.1626906991004943,0.0250412076711654,0.0,0.0,0.5906270742416382,-0.3194476366043091
-0.1087038964033126,0.3570394515991211,-0.0444020852446556,-0.5136162042617798,-0.1615641713142395,0.022530322894454,0.0,0.0,0.3680360317230224,-0.7605814337730408
-0.1090334877371788,0.3456210196018219,-0.0356785133481025,-0.5071915984153748,-0.1588487178087234,0.0543089509010314,0.0,0.0,-0.0621054768562316,-0.4961881637573242
-0.1093566864728927,0.3336349725723266,-0.0350081510841846,-0.5324265956878662,-0.1561554372310638,0.0538657419383525,0.0,0.0,0.8292973041534424,-0.4525558948516845
-0.1095010787248611,0.3217179775238037,-0.0176146905869245,-0.5293165445327759,-0.1529837399721145,0.0634338110685348,0.0,0.0,0.5878210067749023,0.0798527002334594
-0.109412670135498,0.3100146055221557,0.0049751228652894,-0.5197598934173584,-0.1491292119026184,0.0770906955003738,0.0,0.0,0.7749217748641968,0.3248035907745361
-0.1091025322675705,0.2983386218547821,0.0264094658195972,-0.5184751749038696,-0.1445277631282806,0.0920289158821106,0.0,0.0,0.8698329925537109,-0.196865975856781
-0.1086639389395713,0.2873585224151611,0.0391909480094909,-0.4875587522983551,-0.1398766785860061,0.0930214151740074,0.0,0.0,0.6246945858001709,-0.3761476874351501
-0.108077622950077,0.2769124209880829,0.0537190213799476,-0.4638187289237976,-0.1349807381629943,0.0979190915822982,0.0,0.0,-0.0739145874977111,-0.8274765610694885
-0.1075274497270584,0.2659122943878174,0.0486563891172409,-0.4883317947387695,-0.1286435574293136,0.1267435252666473,0.0,0.0,0.37215256690979,0.1126899719238281
-0.1068429946899414,0.2547319829463959,0.061534147709608,-0.4963253438472748,-0.1217668876051902,0.1375331729650497,0.0,0.0,0.2891509532928467,0.0653055906295776
-0.1061331778764724,0.2435832172632217,0.0640750378370285,-0.4949509799480438,-0.114904947578907,0.1372391730546951,0.0,0.0,0.8096306324005127,0.5062493085861206
-0.105158045887947,0.2332574278116226,0.0911347642540931,-0.4584470987319946,-0.1085667982697486,0.12676303088665,0.0,0.0,0.3053736686706543,-0.1887040734291076
-0.1041321754455566,0.2230376303195953,0.0960718542337417,-0.4537535309791565,-0.1020955443382263,0.1294249147176742,0.0,0.0,-0.1341518759727478,0.4003468751907348
-0.1030846610665321,0.2122502923011779,0.0979852527379989,-0.4789890050888061,-0.0953857228159904,0.1341963708400726,0.0,0.0,0.602805495262146,-0.3759773969650268
-0.1018658652901649,0.2018943876028061,0.1144627332687377,-0.4598069489002228,-0.0880274102091789,0.1471661627292633,0.0,0.0,0.0516088008880615,-0.643197238445282
-0.1006698608398437,0.191701278090477,0.1106412410736084,-0.4525254964828491,-0.0791536569595336,0.1774751842021942,0.0,0.0,0.2774157524108886,0.1126260757446289
-0.0994667038321495,0.1818144470453262,0.1113535165786743,-0.438966304063797,-0.0702825039625167,0.1774229854345321,0.0,0.0,-0.0876402854919433,-0.0763943195343017
-0.098237320780754,0.1713606268167495,0.1136568337678909,-0.4642051458358764,-0.0611019358038902,0.1836115568876266,0.0,0.0,0.8283054828643799,0.1369909048080444
-0.0970688834786415,0.1613481789827346,0.1078335642814636,-0.4446577727794647,-0.0521939769387245,0.1781588643789291,0.0,0.0,0.7224583625793457,-0.1162065267562866
-0.096000388264656,0.1515989601612091,0.0982306823134422,-0.4330235123634338,-0.0436730496585369,0.1704188138246536,0.0,0.0,0.4872814416885376,0.5109126567840576
-0.0947315245866775,0.1422457844018936,0.1186687350273132,-0.4154801964759826,-0.0355539992451667,0.162380501627922,0.0,0.0,0.5564007759094238,-0.3839669823646545
-0.0933624282479286,0.1328435987234115,0.1280527114868164,-0.4176908731460571,-0.0268036127090454,0.1750076413154602,0.0,0.0,0.5021588802337646,-0.1350979208946228
-0.0918118506669998,0.1239093393087387,0.1451985388994217,-0.3969273865222931,-0.017067851498723,0.194715142250061,0.0,0.0,0.5852117538452148,0.6404842138290405
-0.0901898369193077,0.1155299022793769,0.1532943844795227,-0.3723457455635071,-0.0082730017602443,0.1758971214294433,0.0,0.0,0.2682645320892334,0.1793737411499023
-0.0884201973676681,0.1075661778450012,0.1671396344900131,-0.3539143204689026,0.0014238521689549,0.1939371824264526,0.0,0.0,0.3543130159378052,-0.8564279675483704
-0.0866145119071006,0.0997490733861923,0.1685347855091095,-0.3474791646003723,0.0133013697341084,0.2375503778457641,0.0,0.0,0.6012656688690186,0.4462777376174927
-0.0847922340035438,0.0925530269742012,0.1698081195354461,-0.3199802935123443,0.0255587566643953,0.2451478540897369,0.0,0.0,0.3417356014251709,0.2494705915451049
-0.0829024314880371,0.0857524499297142,0.1759189665317535,-0.3025214970111847,0.0384637117385864,0.2580991685390472,0.0,0.0,0.0370643138885498,0.3513489961624145
-0.0809378623962402,0.0788209065794944,0.1827359199523925,-0.308475136756897,0.0520290844142437,0.2713074088096618,0.0,0.0,0.4850708246231079,0.8143287897109985
-0.0790246948599815,0.0721534341573715,0.1789715141057968,-0.2968023419380188,0.0642269030213356,0.243956446647644,0.0,0.0,0.4672114849090576,0.6220171451568604
-0.0771795287728309,0.0655958279967308,0.1732620894908905,-0.2919670939445495,0.0753619149327278,0.2227001935243606,0.0,0.0,0.6456177234649658,0.9488241672515868
-0.0752887725830078,0.0593175254762172,0.1793162077665329,-0.2795578241348266,0.0850194841623306,0.1931516826152801,0.0,0.0,0.4563019275665283,0.9234343767166138
-0.0733016952872276,0.0531867109239101,0.1903400868177414,-0.2729786932468414,0.0933128371834755,0.1658672839403152,0.0,0.0,0.959336757659912,0.9208976030349731
-0.0710733383893966,0.0471520274877548,0.2155401408672332,-0.2686786949634552,0.1005448400974273,0.1446399986743927,0.0,0.0,0.9466314315795898,-0.9784223437309264
-0.0688381195068359,0.0417655073106288,0.2135979682207107,-0.2401011288166046,0.1103984415531158,0.197071760892868,0.0,0.0,0.813190221786499,-0.9230951070785522
-0.0667046532034874,0.0371350161731243,0.2010767459869384,-0.206749752163887,0.1226010918617248,0.2440528869628906,0.0,0.0,0.3052387237548828,-0.5223284959793091
