x_pos,y_pos,x_vel,y_vel,angle,ang_vel,leg_1,leg_2,main_booster,lat_booster
-0.001527214073576,1.40304696559906,-0.1539222598075866,-0.3499190211296081,0.001069945981726,0.0210542064160108,0.0,0.0,-0.0862096224977175,-0.8665708436174588
-0.0031211853493005,1.3946149349212646,-0.1613179892301559,-0.3747532069683075,0.0029746554791927,0.0380984582006931,0.0,0.0,-0.4934759115398508,-0.6404203453382985
-0.0047592162154614,1.3856000900268557,-0.1660175025463104,-0.4006620347499847,0.0051625417545437,0.0437619574368,0.0,0.0,0.2386604397595981,-0.7446314903315615
-0.0065642357803881,1.3765660524368286,-0.1833498179912567,-0.4015292227268219,0.0079833958297967,0.0564221255481243,0.0,0.0,-0.5757334258123157,-0.9978029451777538
-0.0084372516721487,1.3669567108154297,-0.1910082995891571,-0.4271052479743957,0.0116546181961894,0.073430985212326,0.0,0.0,-0.8463279119011919,-0.6899483390520006
-0.0103591922670602,1.3567683696746826,-0.1962555348873138,-0.4528571665287018,0.0156788919121027,0.0804926082491874,0.0,0.0,-0.8608044426944077,-0.7555036592889203
-0.0123503683134913,1.3460010290145874,-0.2040506899356842,-0.4786070883274078,0.0205534771084785,0.0975007712841034,0.0,0.0,0.5845271840867521,-0.9267334183746267
-0.0142743112519383,1.33559250831604,-0.1987097114324569,-0.4627065360546112,0.0267906673252582,0.1247553378343582,0.0,0.0,0.5175191978062115,-0.6283076106480341
-0.0162898059934377,1.32576322555542,-0.2083776742219925,-0.4369887709617615,0.03354337438941,0.1350667029619217,0.0,0.0,0.4377663348401113,-0.965770384204031
-0.0184135437011718,1.316306710243225,-0.2204190045595169,-0.4204934239387512,0.041509672999382,0.1593404561281204,0.0,0.0,0.4221059035544954,-0.8413989777926165
-0.0205517765134573,1.3070416450500488,-0.2229820042848587,-0.4120592176914215,0.0505591258406639,0.1810058653354644,0.0,0.0,0.9486906766069088,0.6572757701415095
-0.0225921627134084,1.2981420755386353,-0.2113987952470779,-0.3957976102828979,0.057850394397974,0.1458387225866317,0.0,0.0,0.7251705351013895,-0.8000652077992044
-0.0246007926762104,1.2897706031799316,-0.2094291001558303,-0.3724184334278106,0.0663346871733665,0.1697015762329101,0.0,0.0,-0.9769495739575962,-0.832523188840186
-0.0266802795231342,1.2808083295822144,-0.217294692993164,-0.3987617790699005,0.0755902528762817,0.1851280927658081,0.0,0.0,-0.201110370681089,0.9438913706752078
-0.0286828037351369,1.2712888717651367,-0.2065565586090088,-0.4234167635440826,0.0818382278084755,0.1249711513519287,0.0,0.0,-0.9728845313310585,-0.7157564080615297
-0.0307456962764263,1.261177659034729,-0.2130719870328903,-0.4497737288475036,0.088565394282341,0.1345555931329727,0.0,0.0,-0.4263061657882159,0.7675121099097912
-0.0327507965266704,1.2505072355270386,-0.2046925723552703,-0.4744961559772491,0.0927273705601692,0.083246961236,0.0,0.0,-0.1174672987887017,0.8399450543366116
-0.0346900001168251,1.2392627000808716,-0.1953532695770263,-0.4998434484004974,0.0941435545682907,0.0283263716846704,0.0,0.0,0.418874391999789,-0.6428842871239246
-0.0366708748042583,1.2284811735153198,-0.2003031969070434,-0.4793192744255066,0.0963415950536727,0.0439649149775505,0.0,0.0,0.6029727637034694,0.9236360218955052
-0.0387374870479106,1.2179384231567385,-0.2062221467494964,-0.4685418903827667,0.0959028750658035,-0.0087752109393477,0.0,0.0,0.9889588551358656,-0.7629017984669597
-0.0408041961491107,1.2081893682479858,-0.2074791938066482,-0.4333402812480926,0.096703790128231,0.0160193406045436,0.0,0.0,-0.5958790909020975,0.9164642126854784
-0.0428166389465332,1.1978672742843628,-0.199501484632492,-0.4586445391178131,0.0949733629822731,-0.0346114858984947,0.0,0.0,-0.0079070564169883,-0.6974036642550148
-0.0448923110961914,1.1869598627090454,-0.2062546759843826,-0.4846890568733215,0.0936677828431129,-0.026114011183381,0.0,0.0,-0.6846160962430101,0.949513437863546
-0.0469050407409668,1.1754755973815918,-0.1971603035926818,-0.5101645588874817,0.089590810239315,-0.0815469175577163,0.0,0.0,-0.6174175221619371,0.7869031270508337
-0.0488922111690044,1.163421869277954,-0.1927419453859329,-0.5353768467903137,0.0836576595902443,-0.1186732202768325,0.0,0.0,-0.2619701393828912,0.8904666671012644
-0.0508479103446006,1.1507805585861206,-0.1875602155923843,-0.5614111423492432,0.0757239460945129,-0.1586743295192718,0.0,0.0,-0.6753557707662228,0.7605283427556584
-0.052766989916563,1.1375737190246582,-0.1816941350698471,-0.5864855647087097,0.0656144395470619,-0.2021902054548263,0.0,0.0,0.1517780519796456,0.9337118733393206
-0.054781723767519,1.1246583461761477,-0.1886948198080063,-0.5735156536102295,0.0529802106320858,-0.2526843249797821,0.0,0.0,0.2484413279719157,-0.6964438546503953
-0.0570180900394916,1.1120362281799316,-0.2114454805850982,-0.5605996251106262,0.0409345738589763,-0.2409131824970245,0.0,0.0,0.6456609931690604,0.9417338301593964
-0.059248924255371,1.0995659828186035,-0.2083180248737335,-0.5538914203643799,0.0263493470847606,-0.2917043566703796,0.0,0.0,-0.6873361108074976,-0.920277740065366
-0.0615769401192665,1.0865283012390137,-0.2191820591688156,-0.5792693495750427,0.0129071427509188,-0.2688443958759308,0.0,0.0,-0.6050353876152819,0.7822658669872293
-0.0638779625296592,1.072912096977234,-0.2144823968410492,-0.6050954461097717,-0.0025130403228104,-0.3084037005901336,0.0,0.0,0.996941252336858,0.7890254432335326
-0.0662500411272049,1.06018328666687,-0.219124361872673,-0.5658537745475769,-0.0203658062964677,-0.3570552766323089,0.0,0.0,0.2436131890855291,-0.6721904938989973
-0.0687516182661056,1.0472853183746338,-0.2327372133731842,-0.5735620260238647,-0.0375729240477085,-0.3441421389579773,0.0,0.0,-0.4149407762602151,0.6495449769046565
-0.0712291747331619,1.0338129997253418,-0.2283865511417389,-0.5993614792823792,-0.0567101091146469,-0.3827438652515411,0.0,0.0,0.1198355771571149,-0.6933162199513367
-0.0737474411725997,1.0205448865890503,-0.233288362622261,-0.5905012488365173,-0.0750466361641883,-0.3667304813861847,0.0,0.0,0.8880073998775238,-0.69506443718906
-0.0763436332345008,1.007488489151001,-0.2418326437473297,-0.5812654495239258,-0.0926660597324371,-0.3523884415626526,0.0,0.0,0.4451688729842735,-0.6833916099704886
-0.0789252296090126,0.994861364364624,-0.2412612438201904,-0.5623347759246826,-0.1094332188367843,-0.3353430032730102,0.0,0.0,0.927915595512333,-0.6921053990932116
-0.0815329551696777,0.9831520915031432,-0.2446020394563675,-0.5216811895370483,-0.1255095601081848,-0.3215269446372986,0.0,0.0,-0.5235604284488575,-0.6140157734686631
-0.0842175483703613,0.9708790183067322,-0.2529227137565613,-0.5468562245368958,-0.140978455543518,-0.309378057718277,0.0,0.0,-0.9036546456093248,0.9928415415585358
-0.0868685692548751,0.9580274224281312,-0.2474240809679031,-0.5729410648345947,-0.1586275398731231,-0.3529823422431946,0.0,0.0,-0.9170899987220764,0.6115468740463257
-0.0894938483834266,0.9445891976356506,-0.242870420217514,-0.5994724035263062,-0.1782936602830886,-0.3933222889900207,0.0,0.0,-0.7615990042686462,-0.5418946743011475
-0.0921867340803146,0.9305831789970398,-0.2500861287117004,-0.6249076724052429,-0.1975825279951095,-0.3857777714729309,0.0,0.0,-0.0228035449981689,0.1057742834091186
-0.094911478459835,0.9160061478614808,-0.2528295516967773,-0.6506137251853943,-0.2173902690410614,-0.3961551785469055,0.0,0.0,0.6664023399353027,-0.4695198535919189
-0.0976440459489822,0.9013065099716188,-0.2530186772346496,-0.6564239263534546,-0.2378945499658584,-0.4100861549377441,0.0,0.0,0.2672462463378906,-0.6263329982757568
-0.1003595367074012,0.8864074349403381,-0.2522140741348266,-0.6654300689697266,-0.2575681507587433,-0.3934724330902099,0.0,0.0,0.8674798011779785,-0.7461409568786621
-0.1029636412858963,0.8716596961021423,-0.2423450499773025,-0.6587346196174622,-0.2760515809059143,-0.3696684241294861,0.0,0.0,0.9694916009902954,-0.4989615082740783
-0.105458065867424,0.8578299880027771,-0.2304091900587082,-0.6183661818504333,-0.2956225872039795,-0.3914201557636261,0.0,0.0,0.1102634668350219,-0.9266764521598816
-0.1079991310834884,0.8442746996879578,-0.2365916222333908,-0.6061167120933533,-0.3137522041797638,-0.3625920414924621,0.0,0.0,0.2305701971054077,-0.8804768919944763
-0.1105395331978797,0.8307262063026428,-0.2379059791564941,-0.6057330369949341,-0.3305383324623108,-0.335722267627716,0.0,0.0,0.6003680229187012,-0.587749719619751
-0.1128348335623741,0.8173395991325378,-0.214563563466072,-0.5984631180763245,-0.346190482378006,-0.3130427300930023,0.0,0.0,-0.6365976333618164,-0.4744996428489685
-0.1151625663042068,0.80338054895401,-0.2175017148256302,-0.6241610646247864,-0.3622504770755768,-0.3211997151374817,0.0,0.0,-0.0267741084098815,-0.9593005776405334
-0.1175816506147384,0.7888765931129456,-0.227870374917984,-0.6482388377189636,-0.3770950734615326,-0.2968925833702087,0.0,0.0,0.361215591430664,-0.9405026435852052
-0.11985445022583,0.7747628688812256,-0.2148164212703704,-0.6306189298629761,-0.39036425948143,-0.2653834819793701,0.0,0.0,0.8623402118682861,-0.9370614290237428
-0.1218471527099609,0.760770320892334,-0.1886146664619445,-0.6248559355735779,-0.4017620384693146,-0.2279556095600128,0.0,0.0,0.467933177947998,-0.9908267855644226
-0.1238705664873123,0.746880054473877,-0.193248301744461,-0.6199524402618408,-0.4115220904350281,-0.1952007859945297,0.0,0.0,0.853704571723938,-0.9743970036506652
-0.125527948141098,0.7336277961730957,-0.1584462672472,-0.5911363363265991,-0.419398695230484,-0.1575318276882171,0.0,0.0,0.8711028099060059,-0.9589218497276306
-0.1268152296543121,0.7207900881767273,-0.1232574135065078,-0.5722016096115112,-0.4253146052360534,-0.1183179020881652,0.0,0.0,0.5707504749298096,-0.9119290113449096
-0.1278004646301269,0.70844966173172,-0.0946654677391052,-0.5496434569358826,-0.4295118153095245,-0.0839437097311019,0.0,0.0,0.6482316255569458,-0.9281386733055116
-0.1286317855119705,0.6967081427574158,-0.0807064473628997,-0.5225828289985657,-0.4321378171443939,-0.0525201447308063,0.0,0.0,0.6271322965621948,-0.8994709253311157
-0.1293559968471527,0.6848892569541931,-0.0715659260749816,-0.5255534052848816,-0.4330718517303467,-0.0186807475984096,0.0,0.0,0.5421229600906372,-0.9671890139579772
-0.1299994438886642,0.6735045313835144,-0.0650486052036285,-0.5057736039161682,-0.4323066174983978,0.0153044639155268,0.0,0.0,-0.4076683521270752,-0.9093248844146729
-0.1307247132062912,0.6615769267082214,-0.0744250267744064,-0.5295335650444031,-0.4302429258823395,0.0412739552557468,0.0,0.0,0.1885714530944824,-0.9685088396072388
-0.1313455551862716,0.6497104167938232,-0.0656802207231521,-0.526308000087738,-0.4263450503349304,0.0779574438929557,0.0,0.0,0.2664532661437988,-0.9448766112327576
-0.1319309175014495,0.6377224326133728,-0.0637904331088066,-0.5312157273292542,-0.4206518828868866,0.1138635128736496,0.0,0.0,-0.6616622805595398,-0.9149121642112732
-0.1326227188110351,0.6252118945121765,-0.0764430835843086,-0.5538840889930725,-0.4128086268901825,0.1568649113178253,0.0,0.0,-0.3194738626480102,-0.8097870349884033
-0.1333949118852615,0.6121708154678345,-0.0859083607792854,-0.5770989060401917,-0.4034539759159088,0.1870932877063751,0.0,0.0,-0.155163288116455,-0.7712101936340332
-0.1342435777187347,0.5985761284828186,-0.0947861522436142,-0.601419985294342,-0.3928324282169342,0.2124309241771698,0.0,0.0,-0.284663438796997,-0.8877556920051575
-0.1351760923862457,0.5844536423683167,-0.1047972664237022,-0.6245251893997192,-0.3805255889892578,0.2461369782686233,0.0,0.0,-0.0322906374931335,-0.1533920764923095
-0.1361327171325683,0.5697558522224426,-0.1072165817022323,-0.6502057313919067,-0.3682778775691986,0.2449541836977005,0.0,0.0,0.6391861438751221,0.1987364292144775
-0.1369558274745941,0.5554718971252441,-0.0934751257300376,-0.6320173740386963,-0.3564907610416412,0.2357424199581146,0.0,0.0,0.5845026969909668,-0.4418206214904785
-0.137565329670906,0.5414358973503113,-0.0722725838422775,-0.6210605502128601,-0.3445867598056793,0.2380800247192382,0.0,0.0,0.5434551239013672,-0.39839768409729
-0.1380428373813629,0.5279988050460815,-0.0585942044854164,-0.5946494340896606,-0.3332397937774658,0.2269392907619476,0.0,0.0,0.4699976444244385,-0.0348284840583801
-0.1383107155561447,0.5146821141242981,-0.0379857681691646,-0.58931565284729,-0.3215719759464264,0.2333565056324005,0.0,0.0,0.4309399127960205,-0.0098974108695983
-0.1385184228420257,0.5012853741645813,-0.0319126918911933,-0.59298175573349,-0.3100023865699768,0.2313915789127349,0.0,0.0,-0.3350615501403808,0.3129607439041137
-0.1387441605329513,0.4873125553131103,-0.0338040068745613,-0.6186578869819641,-0.2983781099319458,0.2324857711791992,0.0,0.0,0.8168838024139404,-0.1815051436424255
-0.138910099864006,0.4733141958713531,-0.027779558673501,-0.6198993921279907,-0.2868424654006958,0.2307131588459015,0.0,0.0,0.3035374879837036,0.4367848634719848
-0.1389206945896148,0.4596428871154785,-0.0123458551242947,-0.6054392457008362,-0.2752484083175659,0.231881096959114,0.0,0.0,0.6448535919189453,0.0135128498077392
-0.1386480331420898,0.4465353786945343,0.0154874892905354,-0.5803843140602112,-0.263180524110794,0.2413572967052459,0.0,0.0,0.1147656440734863,0.1583750247955322
-0.138317584991455,0.4336800873279571,0.0214392580091953,-0.5693089962005615,-0.2513420283794403,0.2367704808712005,0.0,0.0,0.72456955909729,0.4685657024383545
-0.1380434036254882,0.4208011925220489,0.0162720121443271,-0.5705246329307556,-0.2399922162294387,0.2269963771104812,0.0,0.0,0.2993195056915283,0.5405704975128174
-0.1375553160905838,0.4082288742065429,0.0384670011699199,-0.5571202635765076,-0.2295053452253341,0.2097373008728027,0.0,0.0,0.3363335132598877,0.1939539909362793
-0.1370496749877929,0.3957878351211548,0.0404298417270183,-0.5513888001441956,-0.2192332744598388,0.2054414749145507,0.0,0.0,0.5454312562942505,0.2777223587036133
-0.1364628821611404,0.3837151825428009,0.048575110733509,-0.5350952744483948,-0.2090209424495697,0.2042469233274459,0.0,0.0,0.1867721080780029,-0.0371047854423522
-0.1357852965593338,0.3718055486679077,0.0574743635952472,-0.5278963446617126,-0.1986583769321441,0.2072516977787017,0.0,0.0,-0.2036440968513488,0.1653803586959839
-0.1351111382246017,0.3593193292617798,0.0569063611328601,-0.5535687804222107,-0.1880939453840255,0.2112890183925628,0.0,0.0,0.6756594181060791,0.5708093643188477
-0.1343050003051757,0.3467425405979156,0.0709620490670204,-0.5577706694602966,-0.1783996224403381,0.1938864886760711,0.0,0.0,0.3769409656524658,0.3872355222702026
-0.1333631575107574,0.3340639173984527,0.0839292109012603,-0.5622972249984741,-0.1681239753961563,0.2055131494998932,0.0,0.0,0.8193197250366211,0.2284784317016601
-0.1321544647216797,0.3216980099678039,0.1096068173646926,-0.5483613610267639,-0.1568652838468551,0.2251739054918289,0.0,0.0,0.4176977872848511,0.3429278135299682
-0.1307711601257324,0.3092292547225952,0.1262584030628204,-0.5529384016990662,-0.144810289144516,0.2410998791456222,0.0,0.0,0.2921125888824463,0.7733948230743408
-0.1292414665222168,0.2970497906208038,0.1421827673912048,-0.5402979254722595,-0.1340530812740326,0.2151442766189575,0.0,0.0,0.2347447872161865,0.1344897747039795
-0.1276056319475174,0.2851319909095764,0.1524062007665634,-0.528713047504425,-0.1229290589690208,0.2224805653095245,0.0,0.0,0.4527939558029175,-0.0749712586402893
-0.1257798224687576,0.2734910547733307,0.1706040650606155,-0.5164306163787842,-0.1110311597585678,0.2379581183195114,0.0,0.0,0.3569650650024414,0.3839534521102905
-0.1238307952880859,0.2616601586341858,0.1822522729635238,-0.524925708770752,-0.0984758585691452,0.2511062026023865,0.0,0.0,0.5722460746765137,0.4135708808898926
-0.1218707114458084,0.2499841749668121,0.1832930296659469,-0.5181401371955872,-0.0858712196350097,0.2520929872989654,0.0,0.0,0.4738612174987793,0.6183884143829346
-0.1196981444954872,0.2388731092214584,0.2052946835756302,-0.4931797683238983,-0.0740339905023574,0.236744686961174,0.0,0.0,0.2400546073913574,-0.6557585597038269
-0.1175482720136642,0.2278331369161605,0.2014445066452026,-0.4900504648685455,-0.0606296434998512,0.2680867910385132,0.0,0.0,0.5142549276351929,0.2414543628692627
-0.1154489517211914,0.2173198014497757,0.1966034770011901,-0.4667733609676361,-0.047456469386816,0.2634634971618652,0.0,0.0,0.0852826833724975,0.1041526794433593
-0.1132498756051063,0.2069139033555984,0.2060044705867767,-0.4620995223522186,-0.0337182804942131,0.2747637629508972,0.0,0.0,-0.1234923601150512,0.0447784662246704
-0.1110279113054275,0.1959330141544342,0.2079767286777496,-0.4877814054489136,-0.0196759030222892,0.2808477878570556,0.0,0.0,0.7342286109924316,0.5978782176971436
-0.1088115721940994,0.1855613142251968,0.2085388153791427,-0.4608423411846161,-0.0067531536333262,0.2584551870822906,0.0,0.0,0.4582313299179077,-0.2428663372993469
-0.10658760368824,0.1752738505601883,0.2090960443019867,-0.4572124779224396,0.0063782874494791,0.2626287043094635,0.0,0.0,0.5169236660003662,-0.299943745136261
-0.1044457405805587,0.1652383953332901,0.2010746896266937,-0.4461259841918945,0.0193267781287431,0.2589698135852813,0.0,0.0,0.5472575426101685,-0.3350889682769775
-0.1024238616228103,0.1553592085838318,0.1894217729568481,-0.439286321401596,0.0319377779960632,0.2522198259830475,0.0,0.0,0.762082576751709,0.8601566553115845
-0.1002013236284256,0.1460679620504379,0.2106724977493286,-0.4132285416126251,0.0433744229376316,0.228732943534851,0.0,0.0,0.4493817090988159,0.0171853303909301
-0.0979050621390342,0.1366898119449615,0.2174783200025558,-0.4172000586986542,0.0553766749799251,0.2400450259447097,0.0,0.0,0.729135274887085,0.0918960571289062
-0.0954657569527626,0.1279449611902237,0.23076793551445,-0.3891962170600891,0.0683983191847801,0.2604329288005829,0.0,0.0,0.4010250568389892,0.1955575942993164
-0.0930532440543174,0.1196080073714256,0.2278576344251632,-0.3711943030357361,0.0816475823521614,0.2649856209754944,0.0,0.0,0.3418371677398681,0.0174839496612548
-0.0905428901314735,0.1117482036352157,0.2368059158325195,-0.3501639664173126,0.0957500115036964,0.2820487022399902,0.0,0.0,0.4255551099777221,0.5155031681060791
-0.0879284888505935,0.1040765866637229,0.2477731257677078,-0.3418917059898376,0.1093155667185783,0.2713110148906708,0.0,0.0,0.5262367725372314,-0.1193544864654541
-0.0853607207536697,0.0969539284706115,0.2428333759307861,-0.3176392614841461,0.1231658533215522,0.2770059108734131,0.0,0.0,0.4146096706390381,-0.0796585083007812
-0.0827806442975997,0.0902703627943992,0.243535116314888,-0.2983041107654571,0.1375706046819687,0.2880949676036834,0.0,0.0,-0.0550957322120666,0.4850578308105469
-0.0801554694771766,0.0830125883221626,0.2477538287639618,-0.3239918947219848,0.1522878259420395,0.2943441569805145,0.0,0.0,0.680870532989502,0.4096412658691406
-0.0777024254202842,0.0760851204395294,0.2308507263660431,-0.3094280362129211,0.1667399406433105,0.2890424728393554,0.0,0.0,0.3284146785736084,-0.0263214111328125
-0.0753721222281456,0.0691701024770736,0.2187801599502563,-0.3089943528175354,0.1810228079557418,0.2856573462486267,0.0,0.0,0.4202488660812378,-0.0977041721343994
-0.0730982795357704,0.0623910538852214,0.2129519432783126,-0.3031153678894043,0.1955254524946212,0.290052980184555,0.0,0.0,0.7218518257141113,0.1432664394378662
-0.0708556175231933,0.0558639876544475,0.2094400376081466,-0.2921125590801239,0.2104556262493133,0.298603355884552,0.0,0.0,0.7285916805267334,-0.1409299373626709
-0.0685067176818847,0.0493581630289554,0.2191964387893676,-0.2914600074291229,0.2263167351484298,0.3172223269939422,0.0,0.0,0.8187859058380127,0.0506789684295654
-0.0661700218915939,0.0434156022965908,0.217269629240036,-0.2667194008827209,0.2429694533348083,0.3330543041229248,0.0,0.0,0.5238621234893799,-0.1230460405349731
-0.0639366135001182,0.0379916056990623,0.2066173106431961,-0.2439174205064773,0.2600204050540924,0.341019719839096,0.0,0.0,0.4012589454650879,-0.3095846176147461
-0.0616647712886333,0.0323995202779769,0.2100019007921219,-0.2516849935054779,0.2776082158088684,0.3517561554908752,0.0,0.0,0.5360321998596191,0.1763737201690673
