x_pos,y_pos,x_vel,y_vel,angle,ang_vel,leg_1,leg_2,main_booster,lat_booster
-0.0015052795642986,1.4033983945846558,-0.1524226367473602,-0.3343013525009155,0.001692506368272,0.0333810113370418,0.0,0.0,-0.0950576663017273,0.169053316116333
-0.0029924393165856,1.3956736326217651,-0.15028677880764,-0.3433244526386261,0.0032483427785336,0.0311204437166452,0.0,0.0,-0.1202289462089538,0.732241153717041
-0.0043910024687647,1.3877172470092771,-0.1395192593336105,-0.3536164164543152,0.0029159430414438,-0.0066486494615674,0.0,0.0,-0.2106136679649353,0.3642914295196533
-0.0057713510468602,1.3795347213745115,-0.1375465989112854,-0.3636707663536072,0.00244015827775,-0.0095166834071278,0.0,0.0,-0.1711676120758056,0.4286742210388183
-0.0071333884261548,1.3711260557174685,-0.1355582177639007,-0.3737222254276275,0.0017954392824321,-0.0128955226391553,0.0,0.0,0.0018504858016967,0.6221907138824463
-0.0083346366882324,1.3629847764968872,-0.1181550249457359,-0.3618383109569549,-0.0001547338179079,-0.0390072427690029,0.0,0.0,-0.4346166849136352,-0.1575772762298584
-0.0095178605988621,1.3546171188354492,-0.1161330118775367,-0.3718937635421753,-0.0023191336076706,-0.0432919040322303,0.0,0.0,-0.2318435311317443,0.665733814239502
-0.0106177330017089,1.3460253477096558,-0.1058946847915649,-0.3818695843219757,-0.0063645695336163,-0.0809163674712181,0.0,0.0,-0.3366488218307495,0.0838185548782348
-0.0116995815187692,1.3372076749801636,-0.1038407087326049,-0.3919218480587005,-0.0106663759797811,-0.0860439389944076,0.0,0.0,0.0773708820343017,0.572547435760498
-0.0127140041440725,1.3288774490356443,-0.0956650003790855,-0.370278537273407,-0.0163807440549135,-0.1142978221178054,0.0,0.0,-0.7896134853363037,-0.0705586671829223
-0.013710593804717,1.320321559906006,-0.093583844602108,-0.3803382813930511,-0.0223905760794878,-0.1202074289321899,0.0,0.0,-0.632208526134491,-0.2522345185279846
-0.014689540490508,1.3115403652191162,-0.0914919450879097,-0.3903904557228088,-0.0287147630006074,-0.1264954209327697,0.0,0.0,-0.7983652353286743,-0.191517949104309
-0.0156507492065429,1.302533507347107,-0.089389644563198,-0.4004450738430023,-0.0353702940046787,-0.1331227570772171,0.0,0.0,-0.5947574377059937,-0.3702195882797241
-0.0165943149477243,1.293301343917847,-0.0872777551412582,-0.410500705242157,-0.0423734784126281,-0.1400767564773559,0.0,0.0,-0.8107794523239136,-0.38983154296875
-0.0175203327089548,1.283843994140625,-0.0851568132638931,-0.4205571115016937,-0.0497397594153881,-0.1473388373851776,0.0,0.0,-0.930495262145996,-0.814369261264801
-0.0184816364198923,1.2741557359695437,-0.0896470695734024,-0.4308204054832458,-0.0561625882983207,-0.1284680664539337,0.0,0.0,-0.9738691449165344,-0.7210968136787415
-0.0194690711796283,1.264254093170166,-0.0929823666810989,-0.4402980506420135,-0.0618709996342659,-0.1141785979270935,0.0,0.0,-0.9919235110282898,-0.572215735912323
-0.0204738620668649,1.2541253566741943,-0.0951851457357406,-0.4503918588161468,-0.0671169683337211,-0.1049289554357528,0.0,0.0,-0.7877765893936157,-0.0771970748901367
-0.0214613918215036,1.2437713146209717,-0.0930429175496101,-0.4604481160640716,-0.0727798417210578,-0.1132677346467971,0.0,0.0,-0.9528976678848268,-0.4403740167617798
-0.0224318504333496,1.233191967010498,-0.0908942967653274,-0.4705051481723785,-0.0788706392049789,-0.1218268275260925,0.0,0.0,0.1290327310562133,0.0025736093521118
-0.0232576373964548,1.2231453657150269,-0.0764082372188568,-0.446851372718811,-0.0849933996796608,-0.1224659085273742,0.0,0.0,-0.6598213911056519,-0.7157089114189148
-0.024121856316924,1.2128764390945437,-0.0812085047364234,-0.4567011296749115,-0.0901693850755691,-0.1035288944840431,0.0,0.0,-0.5484226942062378,0.1696553230285644
-0.0249691009521484,1.2023825645446775,-0.0790489017963409,-0.4667561948299408,-0.0958038792014122,-0.1126997098326683,0.0,0.0,-0.9156938791275024,-0.5234889984130859
-0.0258360859006643,1.1916626691818235,-0.0814932882785797,-0.4767797291278839,-0.1009846702218055,-0.1036249995231628,0.0,0.0,-0.2689862251281738,-0.8004752397537231
-0.026763916015625,1.1807315349578855,-0.0890838727355003,-0.4860802888870239,-0.1046676933765411,-0.0736669301986694,0.0,0.0,-0.5905894637107849,-0.7283221483230591
-0.0277475360780954,1.16956889629364,-0.0959767922759056,-0.496289998292923,-0.1070284470915794,-0.0472147241234779,0.0,0.0,-0.6067298054695129,-0.5570770502090454
-0.0287577621638774,1.1581913232803345,-0.0992635414004325,-0.5057990550994873,-0.1087738573551178,-0.034908577799797,0.0,0.0,-0.7449674606323242,-0.671008288860321
-0.0298151969909667,1.1466057300567627,-0.1051202565431594,-0.5149584412574768,-0.1093841269612312,-0.0122054060921072,0.0,0.0,0.1853277683258056,-0.4930120706558227
-0.0308884624391794,1.13563871383667,-0.1057681590318679,-0.4875354468822479,-0.1109298542141914,-0.0309146456420421,0.0,0.0,-0.5603666305541992,-0.8410897254943848
-0.0320138931274414,1.1244544982910156,-0.1122282966971397,-0.4970917999744415,-0.1112482324242591,-0.0063673756085336,0.0,0.0,-0.6450096964836121,0.5104029178619385
-0.0330812446773052,1.113044023513794,-0.1048400253057479,-0.507278323173523,-0.1131270751357078,-0.0375768169760704,0.0,0.0,-0.1032189130783081,-0.8229544162750244
-0.0342056266963481,1.101415753364563,-0.1118944659829139,-0.5168505311012268,-0.1136712655425071,-0.010883548296988,0.0,0.0,-0.5808637738227844,-0.0965152382850647
-0.03531389310956,1.089562177658081,-0.1097465902566909,-0.526904821395874,-0.1147371083498001,-0.0213172491639852,0.0,0.0,-0.5574549436569214,-0.5849157571792603
-0.0364571586251258,1.0774869918823242,-0.1140228882431984,-0.5367036461830139,-0.1150400415062904,-0.0060586221516132,0.0,0.0,-0.2964279055595398,0.7397470474243164
-0.0375245101749897,1.0651775598526,-0.1043751016259193,-0.5472672581672668,-0.1173874735832214,-0.046948779374361,0.0,0.0,-0.3459137082099914,-0.8511468172073364
-0.0386402122676372,1.0526607036590576,-0.1103288382291793,-0.5564008355140686,-0.1186171993613243,-0.0245945192873477,0.0,0.0,-0.7272655963897705,-0.8769679665565491
-0.039812184870243,1.0399270057678225,-0.1172558888792991,-0.565936803817749,-0.1185574382543563,0.0011952167842537,0.0,0.0,-0.8923693299293518,-0.080157995223999
-0.0409682281315326,1.026968002319336,-0.115129217505455,-0.5759915113449097,-0.1190354377031326,-0.0095596993342041,0.0,0.0,-0.1856924295425415,-0.10086590051651
-0.0421085357666015,1.0137839317321775,-0.1130088716745376,-0.5860462784767151,-0.1200534552335739,-0.0203605890274047,0.0,0.0,-0.8729283213615417,0.4156405925750732
-0.0432332046329975,1.000374436378479,-0.1108956113457679,-0.5961011052131653,-0.1216135472059249,-0.0312017947435379,0.0,0.0,-0.9801898002624512,-0.4277271032333374
-0.0443422310054302,0.9867399334907532,-0.1087902784347534,-0.6061561107635498,-0.1237174496054649,-0.0420780777931213,0.0,0.0,-0.7468838095664978,-0.3785587549209595
-0.0454358085989952,0.9728801250457764,-0.1066937446594238,-0.6162113547325134,-0.1263666599988937,-0.0529842749238014,0.0,0.0,-0.2276340723037719,-0.367159366607666
-0.0465140342712402,0.9587953090667723,-0.1046069487929344,-0.6262670159339905,-0.129562422633171,-0.0639153867959976,0.0,0.0,-0.94260436296463,-0.6677122712135315
-0.0476207733154296,0.944492757320404,-0.1080335229635238,-0.6359063982963562,-0.1321926862001419,-0.0526051893830299,0.0,0.0,-0.7846587300300598,-0.8968213200569153
-0.0487884506583213,0.9299693703651428,-0.1154859885573387,-0.6455956101417542,-0.1334638595581054,-0.0254239030182361,0.0,0.0,-0.9616155624389648,-0.0355475544929504
-0.0499409660696983,0.9152209162712096,-0.1134343892335891,-0.6556512117385864,-0.135283961892128,-0.0364016443490982,0.0,0.0,-0.9674975872039796,-0.9445624947547911
-0.0511456504464149,0.9002559185028076,-0.1197957396507263,-0.6651766896247864,-0.1359596699476242,-0.0135140269994735,0.0,0.0,-0.9740273356437684,-0.8550043106079102
-0.0524143204092979,0.8850910663604736,-0.1276732385158538,-0.6739175319671631,-0.1351529508829116,0.0161340832710266,0.0,0.0,-0.5030475854873657,-0.4585630297660827
-0.0536684021353721,0.8697012066841125,-0.1256677806377411,-0.6839730739593506,-0.1348954439163208,0.0051500620320439,0.0,0.0,-0.7513998746871948,-0.5460368394851685
-0.0549526214599609,0.854093611240387,-0.1292565166950225,-0.693594753742218,-0.1340582370758056,0.0167437475174665,0.0,0.0,-0.6023208498954773,0.0369461774826049
-0.056222628802061,0.8382608294487,-0.1272891908884048,-0.7036502361297607,-0.1337693780660629,0.0057772183790802,0.0,0.0,-0.6224340200424194,-0.6930654048919678
-0.0575377456843853,0.8222195506095886,-0.1327755898237228,-0.7128315567970276,-0.1325088739395141,0.0252101905643939,0.0,0.0,-0.6361986398696899,-0.5436704754829407
-0.0588742271065712,0.8059571981430054,-0.1352598071098327,-0.7226312756538391,-0.1309075057506561,0.0320277139544487,0.0,0.0,-0.285692811012268,-0.2313747406005859
-0.0601972565054893,0.7894695401191711,-0.1333629786968231,-0.7326867580413818,-0.1298515200614929,0.0211197212338447,0.0,0.0,-0.3952652215957641,-0.4922962188720703
-0.0615070350468158,0.7727568745613098,-0.1314937323331833,-0.7427420020103455,-0.1293395161628723,0.0102399419993162,0.0,0.0,-0.7314656972885132,-0.7274534106254578
-0.0628702193498611,0.7558287978172302,-0.1379822045564651,-0.7522202730178833,-0.1276879459619522,0.0330312773585319,0.0,0.0,-0.3308733701705932,-0.3115374445915222
-0.0642208084464073,0.7386753559112549,-0.1361752152442932,-0.7622756361961365,-0.1265768855810165,0.0222212299704551,0.0,0.0,-0.2210359573364257,0.1563409566879272
-0.0655591040849685,0.7212967872619629,-0.1344032138586044,-0.7723308205604553,-0.1260042488574981,0.0114528480917215,0.0,0.0,-0.0453654527664184,0.0457563400268554
-0.0668853744864463,0.7036929130554199,-0.132668986916542,-0.7823858261108398,-0.1259677112102508,0.0007309164502657,0.0,0.0,0.932715892791748,-0.7633852362632751
-0.0682398825883865,0.6872681975364685,-0.1362646967172622,-0.729923665523529,-0.1251567900180816,0.0162183530628681,0.0,0.0,-0.2986462116241455,-0.263237714767456
-0.0695831328630447,0.6706180572509766,-0.1346151679754257,-0.7399786710739136,-0.1248766109347343,0.0056033991277217,0.0,0.0,0.3664023876190185,0.0908435583114624
-0.0709258094429969,0.6546216607093811,-0.133628636598587,-0.7110039591789246,-0.1255078166723251,-0.0126239927485585,0.0,0.0,-0.1560524702072143,-0.483172059059143
-0.0722580924630165,0.6384000778198242,-0.1320771425962448,-0.7210587859153748,-0.1266634315252304,-0.0231122262775897,0.0,0.0,0.4215795993804931,-0.3836393356323242
-0.0734939575195312,0.6227341294288635,-0.121998630464077,-0.696397602558136,-0.1282461136579513,-0.0316533371806144,0.0,0.0,-0.7101520299911499,-0.202634572982788
-0.0747206658124923,0.6068431735038757,-0.120559886097908,-0.7064526081085205,-0.1303458213806152,-0.0419940873980522,0.0,0.0,-0.4632511138916015,-0.7650064826011658
-0.07601098716259,0.5907415151596069,-0.1282603442668914,-0.7156952619552612,-0.1311161667108535,-0.0154068665578961,0.0,0.0,0.5136737823486328,-0.7699099183082581
-0.0772287398576736,0.5755972862243652,-0.1220694780349731,-0.6730520129203796,-0.1308168470859527,0.0059862742200493,0.0,0.0,-0.5814221501350403,-0.2304914593696594
-0.0784390419721603,0.5602276921272278,-0.1208296194672584,-0.6831068396568298,-0.1310214549303054,-0.0040921266190707,0.0,0.0,0.0549659729003906,0.0795340538024902
-0.0795544609427452,0.5454403162002563,-0.1109097823500633,-0.6572754383087158,-0.1316451728343963,-0.0124746961519122,0.0,0.0,-0.6196564435958862,-0.0415162444114685
-0.0806639641523361,0.5304275751113892,-0.1098234206438064,-0.6673301458358765,-0.1327626407146453,-0.0223495326936244,0.0,0.0,0.4921574592590332,-0.7234975099563599
-0.0818345993757247,0.5161314606666565,-0.1167388930916786,-0.635412335395813,-0.1330848485231399,-0.006444121710956,0.0,0.0,-0.7252198457717896,0.3656880855560303
-0.0830008536577224,0.5016101598739624,-0.115822710096836,-0.6454669833183289,-0.1338894069194793,-0.0160913821309804,0.0,0.0,-0.2754291296005249,-0.3587251901626587
-0.0841636657714843,0.4868634939193725,-0.1149976402521133,-0.6555216908454895,-0.1351701915264129,-0.0256156083196401,0.0,0.0,0.6057205200195312,-0.3464124202728271
-0.0851775184273719,0.4727113842964172,-0.0999575704336166,-0.6291127800941467,-0.1365903466939926,-0.0284034814685583,0.0,0.0,0.0524235963821411,-0.3840807676315307
-0.0861769691109657,0.4587086737155914,-0.0979607850313186,-0.6225279569625854,-0.1385728567838668,-0.0396500080823898,0.0,0.0,-0.4828464984893799,-0.671367347240448
-0.0872230529785156,0.4444834589958191,-0.1033530384302139,-0.6323509216308594,-0.1398245245218277,-0.0250330660492181,0.0,0.0,0.9265482425689696,-0.4329889416694641
-0.0882507339119911,0.4306285977363586,-0.1008874624967575,-0.6159497499465942,-0.1416950970888137,-0.0374114513397216,0.0,0.0,0.6746259927749634,0.2559876441955566
-0.0891743674874305,0.4177441895008087,-0.0900120213627815,-0.5728665590286255,-0.1440456360578537,-0.0470109209418296,0.0,0.0,-0.3116897940635681,-0.5791193246841431
-0.0901390090584755,0.4046487808227539,-0.0946815386414527,-0.5821900963783264,-0.1458219438791275,-0.0355262197554111,0.0,0.0,0.3550759553909302,-0.7072013020515442
-0.0911653488874435,0.3923646211624145,-0.1016924604773521,-0.5460582971572876,-0.1467670947313308,-0.0189025774598121,0.0,0.0,-0.8978205919265747,0.9552853107452391
-0.0921383872628212,0.3798323571681976,-0.0944296792149543,-0.5572723746299744,-0.1496329754590988,-0.0573175176978111,0.0,0.0,-0.6115162968635559,-0.6525367498397827
-0.0931635871529579,0.3670915067195892,-0.1004721075296402,-0.5664706826210022,-0.1516846716403961,-0.0410341545939445,0.0,0.0,0.0799251794815063,-0.5059354305267334
-0.0942500084638595,0.3547087013721466,-0.1070620268583297,-0.5505092144012451,-0.1532577574253082,-0.031461626291275,0.0,0.0,-0.0706656575202941,0.845029354095459
-0.0952833145856857,0.3420902490615845,-0.0998290553689003,-0.5611839890480042,-0.1567536294460296,-0.069917157292366,0.0,0.0,0.0568875074386596,-0.2671583890914917
-0.09626255184412,0.3299112915992737,-0.0940149948000907,-0.5417072176933289,-0.160662904381752,-0.078185074031353,0.0,0.0,0.0285732746124267,-0.7894963026046753
-0.0971920937299728,0.3180432617664337,-0.0902855396270752,-0.5277568101882935,-0.1633372008800506,-0.0534858927130699,0.0,0.0,-0.3360069990158081,-0.942370057106018
-0.0982034653425216,0.3059583902359009,-0.0999165326356887,-0.537244439125061,-0.1645616739988327,-0.0244896467775106,0.0,0.0,0.4145848751068115,-0.1393222212791443
-0.0990910530090332,0.2941386997699737,-0.0875602141022682,-0.5254526138305664,-0.1657656580209732,-0.0240794513374567,0.0,0.0,0.4375703334808349,-0.4700257778167724
-0.0997824668884277,0.2827970385551452,-0.0681830570101738,-0.5041776299476624,-0.1667134761810302,-0.0189563762396574,0.0,0.0,-0.0926390886306762,-0.4994367361068725
-0.100486472249031,0.2712300717830658,-0.0691350921988487,-0.5142315626144409,-0.1679862886667251,-0.0254561100155115,0.0,0.0,-0.5182569622993469,-0.8201453685760498
-0.1012679114937782,0.2594599723815918,-0.0782165378332138,-0.5231072306632996,-0.1679108887910843,0.0015076675917953,0.0,0.0,0.5763370990753174,-0.2905362844467163
-0.1019135490059852,0.2485274225473404,-0.0644717961549758,-0.4859032034873962,-0.1680012196302414,-0.0018064975738525,0.0,0.0,-0.4632948040962219,-0.5870159864425659
-0.10261020809412,0.2373807281255722,-0.0702151209115982,-0.4953445494174957,-0.1674481630325317,0.0110609959810972,0.0,0.0,-0.1998393535614013,-0.5176064372062683
-0.1033566445112228,0.2260117381811142,-0.0757807940244674,-0.5051609873771667,-0.1663140654563903,0.0226823352277278,0.0,0.0,0.7618739604949951,0.0317312479019165
-0.1040846854448318,0.2152345478534698,-0.0734146907925605,-0.4789201915264129,-0.1657061278820037,0.0121585167944431,0.0,0.0,-0.4916424751281738,-0.3013544082641601
-0.1048295944929122,0.2042316943407058,-0.0748416259884834,-0.4889730811119079,-0.1653531342744827,0.007059505674988,0.0,0.0,0.7158511877059937,0.8409466743469238
-0.1054553985595703,0.1938677877187729,-0.0609621629118919,-0.4607984125614166,-0.1669742912054062,-0.0324229709804058,0.0,0.0,0.3258867263793945,-0.4964578151702881
-0.1060913056135177,0.1842475980520248,-0.0612867996096611,-0.4278274774551391,-0.1692881137132644,-0.0462765134871006,0.0,0.0,-0.3512817621231079,-0.7513272166252136
-0.1067951172590255,0.1744183450937271,-0.0691430941224098,-0.4369973838329315,-0.1705305427312851,-0.0248482841998338,0.0,0.0,0.8345534801483154,-0.3507877588272095
-0.1074348464608192,0.1656101793050766,-0.0622448101639747,-0.3916739225387573,-0.1722542494535446,-0.0344740897417068,0.0,0.0,-0.1627241969108581,-0.8593816161155701
-0.1081687957048416,0.1566022485494613,-0.0734452754259109,-0.4003469347953796,-0.172209545969963,0.0008940295083448,0.0,0.0,-0.2901543974876404,-0.0891574025154113
-0.1089221984148025,0.1473686546087265,-0.0751970708370208,-0.4103989005088806,-0.1723467409610748,-0.0027438779361546,0.0,0.0,0.6707868576049805,-0.3562332391738891
-0.1097070723772049,0.1388384401798248,-0.0776367932558059,-0.3792197406291961,-0.1731995046138763,-0.0170552656054496,0.0,0.0,-0.3597893714904785,-0.3186132907867431
-0.110511876642704,0.1300825029611587,-0.0794682800769805,-0.3892713785171509,-0.1742100119590759,-0.0202097333967685,0.0,0.0,0.8176190853118896,0.1834728717803955
-0.1110848411917686,0.1222384274005889,-0.056689728051424,-0.348698228597641,-0.1748272329568863,-0.0123445028439164,0.0,0.0,0.4461513757705688,-0.7115804553031921
-0.1116196662187576,0.1146386265754699,-0.0542519092559814,-0.337676078081131,-0.1740528643131256,0.0154869388788938,0.0,0.0,0.4679441452026367,-0.5299811959266663
-0.1119614616036415,0.1077933385968208,-0.0362292788922786,-0.3039959073066711,-0.1719957441091537,0.0411425456404686,0.0,0.0,-0.4054104089736938,0.4306197166442871
-0.1123238578438758,0.1007222533226013,-0.0381863638758659,-0.3140471875667572,-0.1700494289398193,0.038926675915718,0.0,0.0,0.1296756267547607,-0.7051587104797363
-0.112553022801876,0.0942831635475158,-0.026288503780961,-0.2857958972454071,-0.1666682958602905,0.0676224753260612,0.0,0.0,0.2705174684524536,0.1119379997253418
-0.1126712784171104,0.088263139128685,-0.0153838079422712,-0.267162412405014,-0.1631041765213012,0.0712825655937194,0.0,0.0,0.2980227470397949,-0.0773327946662902
-0.1127119064331054,0.0829681754112243,-0.0075255958363413,-0.2349581718444824,-0.1596438288688659,0.0692069381475448,0.0,0.0,-0.1250591874122619,0.0622340440750122
-0.1127737015485763,0.0774473994970321,-0.0095728076994419,-0.2450093477964401,-0.1562504172325134,0.0678683370351791,0.0,0.0,0.4917032718658447,0.6359145641326904
-0.1126644164323806,0.0722806081175804,0.0086953658610582,-0.2294007241725921,-0.1540217846632003,0.0445726215839386,0.0,0.0,0.1968401670455932,0.3803318738937378
-0.1125952750444412,0.067572221159935,0.0051409928128123,-0.2090799212455749,-0.1522496193647384,0.0354434251785278,0.0,0.0,-0.0964466333389282,0.0304914712905883
-0.1125474944710731,0.0626378133893013,0.0030439035035669,-0.2191299349069595,-0.1505142748355865,0.0347069427371025,0.0,0.0,0.422252893447876,0.6489468812942505
-0.1124176979064941,0.058189783245325,0.0126043958589434,-0.1976542621850967,-0.1501440703868866,0.0074043907225131,0.0,0.0,0.4419902563095093,0.2259756326675415
-0.112217329442501,0.0542010888457298,0.0195822808891534,-0.1772288978099823,-0.1496873646974563,0.0091341072693467,0.0,0.0,0.3872983455657959,-0.1601365804672241
-0.1118848770856857,0.050409659743309,0.0322859846055507,-0.1684124767780304,-0.148732990026474,0.0190872270613908,0.0,0.0,0.1172455549240112,0.4753286838531494
-0.1114402785897255,0.0470634810626506,0.0432059541344642,-0.1485964208841323,-0.1474749445915222,0.0251605473458766,0.0,0.0,-0.3021197319030761,0.2689154148101806
-0.1110171303153038,0.0434910617768764,0.041049413383007,-0.1586457341909408,-0.1462101191282272,0.0252960920333862,0.0,0.0,0.1841728687286377,0.3311144113540649
