x_pos,y_pos,x_vel,y_vel,angle,ang_vel,leg_1,leg_2,main_booster,lat_booster
-0.001559066819027,1.4029130935668943,-0.1583554744720459,-0.3558722734451294,0.0021895852405577,0.0432231947779655,0.0,0.0,-0.2442554946396549,0.8612546353398061
-0.003075027372688,1.3942136764526367,-0.1522785723209381,-0.3866397440433502,0.0028719652909785,0.0136496154591441,0.0,0.0,0.8997745317092742,0.9171604504525056
-0.0043749809265136,1.385493516921997,-0.1295927315950393,-0.3875617980957031,0.0024770023301243,-0.0079000676050782,0.0,0.0,0.0546768738150662,-0.8416285214671061
-0.0058493614196777,1.376536846160889,-0.1491001695394516,-0.3980806469917297,0.0041134194470942,0.0327316150069236,0.0,0.0,-0.5479900591608828,0.7058540634259932
-0.0072689056396484,1.366871356964111,-0.1423101723194122,-0.4295823872089386,0.0044594216160476,0.0069208415225148,0.0,0.0,0.3246865758101742,-0.5383381566812647
-0.0086194993928074,1.357147216796875,-0.1371852755546569,-0.4321870505809784,0.0065633808262646,0.0420830026268959,0.0,0.0,0.6396731298369747,0.9155294126650818
-0.009927081875503,1.3475717306137085,-0.1314298212528228,-0.4255784749984741,0.0072236629202961,0.0132070500403642,0.0,0.0,0.3404972720123853,-0.9396348289918448
-0.0111668584868311,1.3380756378173828,-0.1270579397678375,-0.4220669567584991,0.0102733448147773,0.0609992519021034,0.0,0.0,-0.3847104310958753,-0.6232882687721524
-0.0124444011598825,1.3278744220733645,-0.1325267851352691,-0.4534348249435425,0.0149915786460042,0.0943732410669326,0.0,0.0,-0.1809186572043477,0.9982134889850764
-0.0136249540373682,1.3169697523117063,-0.1212371960282325,-0.4846802055835724,0.0181457586586475,0.063089333474636,0.0,0.0,0.4593641919244047,-0.6263746702625029
-0.0147560117766261,1.306143045425415,-0.118162527680397,-0.4812586903572082,0.0231376830488443,0.0998477041721344,0.0,0.0,0.1098596310050596,0.9472447017510472
-0.0157333370298147,1.2951397895812988,-0.1012866273522377,-0.4890938699245453,0.0266668852418661,0.0705902278423309,0.0,0.0,-0.2779522653496251,0.9345772152193076
-0.0165833476930856,1.2834335565567017,-0.086718276143074,-0.5203067660331726,0.0283541809767484,0.0337489210069179,0.0,0.0,0.081104806921161,-0.5448121992972943
-0.0173891074955463,1.271359920501709,-0.0838730782270431,-0.5366744995117188,0.0316231027245521,0.0653841197490692,0.0,0.0,0.3466875479057505,-0.7708272656136173
-0.0180980674922466,1.2595937252044678,-0.0763403847813606,-0.5230631828308105,0.0370123498141765,0.10779470205307,0.0,0.0,0.6013634191257811,-0.5463392826580388
-0.0186908729374408,1.2475460767745972,-0.0665407255291938,-0.5356443524360657,0.0441962294280529,0.1436907947063446,0.0,0.0,-0.3951961130888435,-0.8370537304178651
-0.0192734710872173,1.2347943782806396,-0.0672228038311004,-0.5670271515846252,0.0530660152435302,0.1774118244647979,0.0,0.0,-0.8933208429207653,-0.5205963172250632
-0.019820213317871,1.2213257551193235,-0.0648439824581146,-0.5989918112754822,0.063130110502243,0.2013002336025238,0.0,0.0,0.1438536168282009,0.6839003654445238
-0.0202001575380563,1.2079980373382568,-0.0472867786884307,-0.5927600264549255,0.0723309516906738,0.1840335428714752,0.0,0.0,0.5419159510275253,-0.7382622930421684
-0.0206816680729389,1.194735050201416,-0.0591556318104267,-0.5900369882583618,0.0832453742623329,0.2183081805706024,0.0,0.0,-0.0256036610702434,0.6787661508970297
-0.0210161209106445,1.1807750463485718,-0.0431779995560646,-0.6210042238235474,0.0929188877344131,0.1934874355792999,0.0,0.0,-0.3135673668744985,0.7210276504155971
-0.0212045665830373,1.1661094427108765,-0.0275246389210224,-0.65236496925354,0.1015268787741661,0.1721753627061844,0.0,0.0,0.6043026872886499,-0.5903143665163066
-0.0212655067443847,1.1515358686447144,-0.0166581440716981,-0.6484671235084534,0.1120385080575943,0.2102513015270233,0.0,0.0,-0.3210043526971129,-0.9886813717263156
-0.0212976448237895,1.1362303495407104,-0.0159188322722911,-0.681242823600769,0.1246880739927291,0.2530137002468109,0.0,0.0,-0.4155817432248372,-0.5562351047200037
-0.0212831497192382,1.1202080249786377,-0.0130101637914776,-0.7133800387382507,0.1390980780124664,0.2882261574268341,0.0,0.0,-0.4056598837805467,-0.6521808711940917
-0.0212259292602539,1.1034469604492188,-0.0107210362330079,-0.7465633153915405,0.1555133014917373,0.3283049464225769,0.0,0.0,0.8053915182183435,-0.9447057154441394
-0.0212528221309185,1.08714497089386,-0.0213845539838075,-0.7265892028808594,0.174210250377655,0.3739389777183532,0.0,0.0,0.2059499753401563,-0.9966148560855388
-0.021462058648467,1.0709880590438845,-0.0418961904942989,-0.7206804156303406,0.1952764838933944,0.4213247895240783,0.0,0.0,0.6153507958978346,-0.9946130538570308
-0.021923255175352,1.0551846027374268,-0.0692144557833671,-0.705582320690155,0.2185618132352829,0.4657066464424133,0.0,0.0,-0.540236550118907,0.788521148936767
-0.0222075469791889,1.0386942625045776,-0.0502751246094703,-0.7362901568412781,0.2407007962465286,0.4427796006202698,0.0,0.0,-0.8002502292611935,-0.967014405814554
-0.0224448200315237,1.0214847326278689,-0.0476755201816558,-0.7689661383628845,0.2651045322418213,0.4880746901035309,0.0,0.0,0.3743551969528198,0.9818482398986816
-0.0226508136838674,1.0040957927703855,-0.0427938476204872,-0.7770279049873352,0.2878647148609161,0.4552038609981537,0.0,0.0,0.9544830322265624,0.9972479343414308
-0.0230308528989553,0.9873629212379456,-0.0582771599292755,-0.747822642326355,0.3087972104549408,0.4186502397060394,0.0,0.0,0.678739070892334,0.992546558380127
-0.0233871452510356,0.9704427123069764,-0.0541346594691276,-0.75605708360672,0.3280123174190521,0.3843018710613251,0.0,0.0,0.8083658218383789,0.9951738119125366
-0.0237418171018362,0.9538414478302002,-0.0522757284343242,-0.741754412651062,0.345599353313446,0.351740688085556,0.0,0.0,0.8032758235931396,0.9987175464630128
-0.024150276556611,0.9377570748329164,-0.056006122380495,-0.7185779213905334,0.3615409731864929,0.3188325762748718,0.0,0.0,0.1226617097854614,0.9969911575317384
-0.0244790073484182,0.9214256405830384,-0.0463655814528465,-0.729314923286438,0.3758263289928436,0.2857074439525604,0.0,0.0,0.2922159433364868,0.99888014793396
-0.0247862823307514,0.9052869081497192,-0.0425812117755413,-0.7204455137252808,0.3884311318397522,0.2520959377288818,0.0,0.0,0.1675490140914917,0.9923677444458008
-0.0251421928405761,0.8893027901649475,-0.0458039231598377,-0.713236927986145,0.3993565738201141,0.2185086458921432,0.0,0.0,-0.3738394975662231,0.9979736804962158
-0.025282859802246,0.8726592063903809,-0.0225942805409431,-0.7421343922615051,0.408496618270874,0.1828012019395828,0.0,0.0,0.370602011680603,0.9990875720977784
-0.0255633350461721,0.8561897277832031,-0.0349107012152671,-0.733981728553772,0.4158892035484314,0.1478524506092071,0.0,0.0,-0.1868801116943359,0.98946213722229
-0.0256150253117084,0.8390657901763916,-0.0100699681788682,-0.7625176906585693,0.4211868941783905,0.1059535369277,0.0,0.0,0.1649744510650634,0.9991350173950196
-0.0254645347595214,0.8216231465339661,0.0117313414812088,-0.7762231826782227,0.4247812330722809,0.0718864947557449,0.0,0.0,-0.0370251536369323,0.9997252225875854
-0.0250852592289447,0.8035257458686829,0.0365007445216178,-0.8047593235969543,0.4263315796852112,0.0310066435486078,0.0,0.0,0.1513440608978271,0.9998804330825806
-0.02460060082376,0.7850164771080017,0.0485865920782089,-0.8226043581962585,0.426200807094574,-0.0026155137456953,0.0,0.0,0.5831437110900879,0.9999016523361206
-0.0239814762026071,0.7663053870201111,0.0635500699281692,-0.831108033657074,0.424420952796936,-0.0355962738394737,0.0,0.0,0.7711467742919922,0.9999685287475586
-0.0232720375061035,0.7476285099983215,0.074073702096939,-0.8291407227516174,0.421031504869461,-0.0677887946367263,0.0,0.0,0.7738621234893799,0.9998157024383544
-0.0228349678218364,0.729442834854126,0.0486021414399147,-0.8067998886108398,0.4157475531101227,-0.1056787595152854,0.0,0.0,0.0179790258407592,0.9998116493225098
-0.0224660877138376,0.7112101316452026,0.0433121547102928,-0.8084691762924194,0.4088214635848999,-0.1385215520858764,0.0,0.0,0.4706885814666748,0.9997565746307372
-0.0220744125545024,0.6929231882095337,0.0472054556012153,-0.8104597926139832,0.4001764357089996,-0.1729005128145218,0.0,0.0,0.7485220432281494,0.996851086616516
-0.0215390212833881,0.6749074459075928,0.0630219131708145,-0.7980555891990662,0.3900413811206817,-0.2027005702257156,0.0,0.0,0.6633596420288086,0.9881737232208252
-0.021125316619873,0.6572257876396179,0.0525456480681896,-0.7828390002250671,0.3781426250934601,-0.237974926829338,0.0,0.0,0.5326076745986938,0.930849552154541
-0.0205368995666503,0.6395103335380554,0.0714264586567878,-0.7840739488601685,0.3648087978363037,-0.2666763961315155,0.0,0.0,0.6913719177246094,0.7343037128448486
-0.0200326927006244,0.6222712397575378,0.0641639977693557,-0.7627574801445007,0.3503169417381286,-0.2898368239402771,0.0,0.0,0.2790393829345703,0.6705257892608643
-0.0193354599177837,0.604947566986084,0.0843319743871688,-0.7664559483528137,0.3349958956241607,-0.306421160697937,0.0,0.0,0.6060830354690552,0.1626690626144409
-0.018724251538515,0.5875200033187866,0.0758816003799438,-0.7712042927742004,0.3195912837982178,-0.3080915808677673,0.0,0.0,0.5105199813842773,0.5875759124755859
-0.0180583000183105,0.5704942345619202,0.0820690095424652,-0.753375232219696,0.3035348653793335,-0.3211286664009094,0.0,0.0,0.5566196441650391,0.2955949306488037
-0.0173052791506052,0.5537291765213013,0.0899421498179435,-0.7421275973320007,0.2884186506271362,-0.3023236393928528,0.0,0.0,0.3350265026092529,0.0574817657470703
-0.0165303237736225,0.5372392535209656,0.0916032940149307,-0.7301607131958008,0.2739165425300598,-0.2900421321392059,0.0,0.0,0.5865887403488159,0.3573027849197387
-0.0158763881772756,0.5211018919944763,0.0795728713274002,-0.7146299481391907,0.2594066560268402,-0.2901979982852936,0.0,0.0,0.7284131050109863,0.2984154224395752
-0.0151162147521972,0.5048389434814453,0.0896855741739273,-0.72043776512146,0.2454705238342285,-0.2787228226661682,0.0,0.0,0.7021260261535645,0.0051218271255493
-0.0144778247922658,0.4888820350170135,0.0777103975415229,-0.7069424390792847,0.2313777208328247,-0.2818562388420105,0.0,0.0,0.7212598323822021,-0.0577665567398071
-0.0136835100129246,0.473048061132431,0.0924487262964248,-0.7017458081245422,0.2181961387395858,-0.263631522655487,0.0,0.0,0.5516678094863892,-0.6502441167831421
-0.0128860473632812,0.4573405981063843,0.0911466032266616,-0.6964664459228516,0.2066845297813415,-0.2302323579788208,0.0,0.0,0.7540059089660645,0.0168344974517822
-0.0120132444426417,0.4415515661239624,0.0983731374144554,-0.7002267241477966,0.1955159455537796,-0.2233721017837524,0.0,0.0,0.7629973888397217,0.1369982957839965
-0.0112377163022756,0.4259430170059204,0.0889679715037345,-0.6922479271888733,0.1840346008539199,-0.2296268492937088,0.0,0.0,0.890108585357666,-0.0994911193847656
-0.0104625700041651,0.4110759496688843,0.0885627418756485,-0.6594278216362,0.1729583442211151,-0.2215250730514526,0.0,0.0,0.8687744140625,0.0671056509017944
-0.009498119354248,0.3960123658180237,0.1068042516708374,-0.6683228611946106,0.1625957638025283,-0.2072517871856689,0.0,0.0,0.8480465412139893,-0.0847306251525878
-0.0085034370422363,0.3816600441932678,0.1094151958823204,-0.6368229985237122,0.152649313211441,-0.1989293545484542,0.0,0.0,0.96921706199646,-0.3564689755439758
-0.0075507164001464,0.3674089908599853,0.1054977923631668,-0.6323621273040771,0.1424519270658493,-0.2039476633071899,0.0,0.0,0.8729163408279419,-0.7514421343803406
-0.0067231180146336,0.3535542786121368,0.0914687290787696,-0.6149532794952393,0.1337615400552749,-0.1738075315952301,0.0,0.0,0.9693539142608644,-0.277377724647522
-0.0058034895919263,0.3400996923446655,0.1002728939056396,-0.5972567200660706,0.1254898607730865,-0.1654333174228668,0.0,0.0,0.6897245645523071,-0.9129043221473694
-0.0050559043884277,0.327189177274704,0.0812341421842575,-0.5732700228691101,0.1190556138753891,-0.1286849677562713,0.0,0.0,0.6427309513092041,-0.045740008354187
-0.0041493414901196,0.3144363164901733,0.0965590998530387,-0.5663362741470337,0.1131867989897728,-0.1173763051629066,0.0,0.0,0.7081549167633057,-0.7847597002983093
-0.0032333373092114,0.3015521764755249,0.0957860499620437,-0.5723174214363098,0.1090282574295997,-0.0831707790493965,0.0,0.0,0.4376877546310425,-0.4666730165481567
-0.0021350861061364,0.2883884906768799,0.1135345473885536,-0.5847854614257812,0.1053462401032447,-0.0736404210329055,0.0,0.0,0.7928032875061035,-0.7361871600151062
-0.0010160446399822,0.2750408053398132,0.1140234321355819,-0.5930821895599365,0.1032428368926048,-0.0420681126415729,0.0,0.0,0.7716965675354004,-0.3519999980926513
0.0001602172851562,0.2622496783733368,0.1196109652519226,-0.5683583617210388,0.1012725830078125,-0.0394052006304264,0.0,0.0,0.9455170631408693,-0.8045431971549988
0.0014311790000647,0.2501948177814483,0.1270844638347625,-0.535771906375885,0.1012854799628257,0.0002578776038717,0.0,0.0,0.8125650882720947,-0.8261005878448486
0.0025645256973803,0.2387447953224182,0.1117850765585899,-0.508999228477478,0.1028228998184204,0.0307484026998281,0.0,0.0,0.8628486394882202,-0.794404149055481
0.0035920143127441,0.2270983606576919,0.0998042970895767,-0.5178237557411194,0.1057387813925743,0.0583177581429481,0.0,0.0,0.939311981201172,-0.5431784391403198
0.0046809194609522,0.2161308377981186,0.1046062558889389,-0.4877527952194214,0.1099901720881462,0.0850276499986648,0.0,0.0,0.9041767120361328,-0.6770062446594238
0.0056707384064793,0.2054117321968078,0.09357850253582,-0.4768137335777282,0.1153677850961685,0.1075522527098655,0.0,0.0,0.8891239166259766,0.1746344566345214
0.0066608428023755,0.1951256394386291,0.0938222482800483,-0.4575689136981964,0.1205242127180099,0.1031284108757972,0.0,0.0,0.8067381381988525,-0.3782383799552917
0.0076972008682787,0.1852649003267288,0.0984637513756752,-0.4386809170246124,0.1256681829690933,0.1028795465826988,0.0,0.0,0.9319040775299072,-0.7074142098426819
0.0088526727631688,0.1757160276174545,0.1086607426404953,-0.4249904453754425,0.1325183510780334,0.1370029747486114,0.0,0.0,0.9135749340057372,0.3949072360992431
0.0101329805329442,0.1660512834787368,0.1210252419114112,-0.4301841855049133,0.1395000368356704,0.1396338194608688,0.0,0.0,0.6880825757980347,-0.609610915184021
0.0115594863891601,0.1562937647104263,0.1341932415962219,-0.4344812333583832,0.1479349583387375,0.1686983704566955,0.0,0.0,0.4571393728256225,-0.0342679023742675
0.0131889339536428,0.1466016173362732,0.1539346426725387,-0.4316814541816711,0.1569287478923797,0.1798758953809738,0.0,0.0,0.5237785577774048,-0.3139220476150512
0.0150364879518747,0.1367680579423904,0.1752398312091827,-0.438078373670578,0.1664523929357528,0.19047312438488,0.0,0.0,0.5686061382293701,-0.3023817539215088
0.0169079788029193,0.1272778362035751,0.1777528524398803,-0.4228662550449371,0.17586250603199,0.1882025301456451,0.0,0.0,0.5581378936767578,-0.5340873599052429
0.0187896732240915,0.1181349381804466,0.1777551174163818,-0.4076195955276489,0.1863081306219101,0.2089126408100128,0.0,0.0,0.4102003574371338,-0.623378336429596
0.0207772254943847,0.1091421693563461,0.1870301961898803,-0.4011972546577453,0.1980996578931808,0.2358305901288986,0.0,0.0,0.4280209541320801,-0.0974149703979492
0.0229393951594829,0.099880039691925,0.204274982213974,-0.4132933914661407,0.210134282708168,0.2406928837299347,0.0,0.0,0.9729562997817992,-0.4182277917861938
0.025057028979063,0.0907802656292915,0.2003186047077179,-0.4061037600040436,0.2216951698064804,0.2312177866697311,0.0,0.0,0.9034457206726074,-0.3672841787338257
0.0271938331425189,0.0824569091200828,0.2020249664783477,-0.3717217445373535,0.2335005849599838,0.2361082285642624,0.0,0.0,0.8742315769195557,-0.5690244436264038
0.0292515754699707,0.0743399709463119,0.1933294981718063,-0.3627767264842987,0.2461469024419784,0.2529259324073791,0.0,0.0,0.8933265209197998,-0.0697041153907775
0.0310891158878803,0.0667868703603744,0.1722398698329925,-0.3376680016517639,0.2578829228878021,0.2347200810909271,0.0,0.0,0.6768652200698853,-0.3128987550735473
0.0329703316092491,0.0595843158662319,0.1765138357877731,-0.3222032487392425,0.2697558104991913,0.2374580651521682,0.0,0.0,0.7263858318328857,-0.2305166125297546
0.034726332873106,0.0527820214629173,0.1645574569702148,-0.304399162530899,0.281078040599823,0.2264444082975387,0.0,0.0,0.7448678016662598,-0.241154670715332
0.0363150611519813,0.0463719703257083,0.148562803864479,-0.2869094014167785,0.2916849851608276,0.2121390849351883,0.0,0.0,0.8132889270782471,0.1059149503707885
0.0378548614680767,0.0400240756571292,0.1441506147384643,-0.2841317057609558,0.3018362522125244,0.2030254602432251,0.0,0.0,0.8607314825057983,0.2516992092132568
0.0392006859183311,0.0338760241866111,0.1256955415010452,-0.2751186788082123,0.3110330998897552,0.1839371472597122,0.0,0.0,0.7477436065673828,0.2719576358795166
0.0403557792305946,0.0288031436502933,0.1248948723077774,-0.2234348654747009,0.3014582693576813,-0.1912879645824432,0.0,1.0,0.9998946189880372,0.8969429731369019
0.0413425453007221,0.0252045486122369,0.127593994140625,-0.1542265117168426,0.2717121541500091,-0.5948933959007263,0.0,1.0,0.9955277442932128,-0.4424141645431518
0.0421985611319541,0.0222275108098983,0.1288216412067413,-0.1249053627252578,0.2276275604963302,-0.8817393183708191,0.0,1.0,0.9385952949523926,-0.9713751673698424
0.04291782528162,0.0201868861913681,0.1197180300951004,-0.0840442851185798,0.179391860961914,-0.9647760391235352,0.0,1.0,0.8710130453109741,-0.977140724658966
0.043398380279541,0.0187121015042066,0.0930022746324539,-0.0607450120151042,0.134407564997673,-0.8997395634651184,0.0,1.0,0.5946199893951416,-0.9841907620429992
0.0438541397452354,0.0177905652672052,0.088086187839508,-0.0376710817217826,0.0921571180224418,-0.8450095057487488,0.0,0.0,-0.9570585489273072,-0.994008719921112
0.0443688407540321,0.0161705836653709,0.0927968621253967,-0.0699625387787818,0.051259521394968,-0.8179528117179871,0.0,0.0,-0.0647825598716735,-0.9884095191955566
0.0449300780892372,0.0138640971854329,0.0959200710058212,-0.1016214340925216,0.011958216316998,-0.7860269546508789,0.0,0.0,0.9363151788711548,-0.9923685193061828
0.0456048026680946,0.012258849106729,0.1055674105882644,-0.0714680925011634,-0.0256472583860158,-0.7521101236343384,0.0,0.0,0.4292302131652832,-0.9929906725883484
0.0464130416512489,0.0105501031503081,0.1172636747360229,-0.0769630596041679,-0.0616393648087978,-0.7198429107666016,0.0,0.0,0.5080434083938599,-0.9777820706367492
0.0471714027225971,0.0090122679248452,0.1107739433646202,-0.0701496675610542,-0.0962359756231308,-0.6919327974319458,1.0,0.0,0.769773006439209,-0.89382004737854
0.0478151328861713,0.0081775281578302,0.0846622213721275,-0.0387698672711849,-0.1155898496508598,-0.3860478103160858,1.0,0.0,0.3048095703125,-0.7210409641265869
0.0485510826110839,0.0079579092562198,0.0739424079656601,-0.0098050823435187,-0.1158888339996337,-0.0059184106066823,1.0,0.0,-0.4999132752418518,-0.8822330832481384
0.0493061058223247,0.0075776791200041,0.0596030130982399,-0.0157497692853212,-0.1000769361853599,0.3162667453289032,1.0,0.0,-0.7561726570129395,-0.5850548148155212
0.0500744804739952,0.0068206167779862,0.0511863641440868,-0.0321310721337795,-0.0746316611766815,0.5089360475540161,1.0,0.0,-0.7152456641197205,0.0267083644866943
0.0508594512939453,0.0054964278824627,0.0492952279746532,-0.0576548837125301,-0.0457148998975753,0.5783717036247253,1.0,0.0,-0.0849421620368957,-0.4626498222351074
0.0516242012381553,0.0034410334192216,0.0484060198068618,-0.0907289013266563,-0.0180017035454511,0.554263710975647,1.0,0.0,0.0327508449554443,-0.6139281988143921
0.0523886680603027,0.0009705400443635,0.0470864661037921,-0.10969889909029,0.0109857376664876,0.5797487497329712,0.0,0.0,0.2586236000061035,0.9370970726013184
0.0532514564692974,-0.0008714222931303,0.0789328962564468,-0.0819390341639518,0.0182329323142766,0.1449357867240905,0.0,1.0,-0.5242910981178284,0.1876107454299926
