x_pos,y_pos,x_vel,y_vel,angle,ang_vel,leg_1,leg_2,main_booster,lat_booster
-0.0014997482066974,1.403199553489685,-0.151332825422287,-0.3431357741355896,0.0012014460517093,0.0236582700163126,0.0,0.0,-0.9351356450046836,-0.9547027077743953
-0.0030447007156908,1.3950724601745603,-0.1568560749292373,-0.3612069487571716,0.0035456346813589,0.0468885749578475,0.0,0.0,-0.1351807559088713,0.8639778998769645
-0.0044830320402979,1.3865140676498413,-0.1435337960720062,-0.380370169878006,0.0032541898544877,-0.0058298096992075,0.0,0.0,-0.346926376454354,0.8338032751881271
-0.0058451653458178,1.3775283098220823,-0.1340176314115524,-0.3993653357028961,0.0010951831936836,-0.0431845262646675,0.0,0.0,-0.5883699755594345,-0.9398350861464116
-0.0072417259216308,1.368120551109314,-0.1384077221155166,-0.4181255400180816,-0.000143044089782,-0.0247668363153934,0.0,0.0,-0.976601370302915,0.8207548557575352
-0.0085356710478663,1.3582868576049805,-0.1255819499492645,-0.437064379453659,-0.003914376720786,-0.0754335522651672,0.0,0.0,-0.3241358753643784,-0.7434389292766286
-0.0098670003935694,1.3480284214019775,-0.1303227841854095,-0.4559309780597687,-0.006692599505186,-0.0555692836642265,0.0,0.0,-0.6169678785972981,0.8001700972309815
-0.0110966684296727,1.337347149848938,-0.1176128014922142,-0.4747577905654907,-0.0119796460494399,-0.1057509779930114,0.0,0.0,0.5490900228922859,-0.657569399891694
-0.0123579027131199,1.327426552772522,-0.1215322613716125,-0.4409611523151397,-0.0165175180882215,-0.0907659158110618,0.0,0.0,-0.010199507218068,-0.824951607308181
-0.0136611936613917,1.3170878887176514,-0.1268787086009979,-0.459539532661438,-0.0199422035366296,-0.0684998780488967,0.0,0.0,0.2621549704280783,0.78705970459984
-0.0147962570190429,1.3070024251937866,-0.1080308109521865,-0.448328286409378,-0.0253559127449989,-0.1082841977477073,0.0,0.0,-0.2430694450396291,-0.7737429356057833
-0.015962790697813,1.2964926958084106,-0.1120264530181884,-0.4671791195869446,-0.0299280509352684,-0.0914509147405624,0.0,0.0,-0.7386938468303548,0.6122588463041951
-0.0170484539121389,1.2855592966079712,-0.1019344329833984,-0.4860725700855255,-0.0364851579070091,-0.1311543732881546,0.0,0.0,-0.5842433063685297,0.9282583048007612
-0.0180308334529399,1.274188995361328,-0.0890285968780517,-0.5055959224700928,-0.0455970987677574,-0.1822556257247924,0.0,0.0,0.608321691125804,0.8697241085944243
-0.0187327377498149,1.263591766357422,-0.0589962676167488,-0.4713639616966247,-0.0566860251128673,-0.2217990607023239,0.0,0.0,-0.087976261256949,0.8111005067907099
-0.0193381309509277,1.2525559663772583,-0.0469245091080665,-0.4910524189472198,-0.0701701417565345,-0.269706517457962,0.0,0.0,0.1267689409388992,-0.8204024504468872
-0.0198369026184082,1.2419757843017578,-0.0375124141573905,-0.4708538949489593,-0.0824353694915771,-0.2453267127275467,0.0,0.0,0.7992010850027118,-0.6964472216596005
-0.0201689712703228,1.2315630912780762,-0.022162614390254,-0.4634362459182739,-0.0933952257037162,-0.2192167490720749,0.0,0.0,0.5540876241319725,-0.6250151597296113
-0.0203600879758596,1.2218539714813232,-0.0090974029153585,-0.4321741759777069,-0.1033523753285408,-0.1991611570119857,0.0,0.0,-0.7312902071454261,-0.8956059840433597
-0.0206113811582326,1.2117332220077517,-0.016680184751749,-0.4504066109657287,-0.1117500737309455,-0.1679685413837433,0.0,0.0,0.5566614400585848,-0.7611062321112972
-0.0206916816532611,1.2022385597229004,-0.000895932491403,-0.422528475522995,-0.1188443675637245,-0.141898900270462,0.0,0.0,-0.8558494883935379,0.9718968039285948
-0.0206761360168457,1.1923011541366575,0.0111185805872082,-0.4424518644809723,-0.1283644884824752,-0.1904189884662628,0.0,0.0,-0.9970880542172608,0.9427656669357196
-0.020552635192871,1.181922435760498,0.0246229767799377,-0.4623754322528839,-0.1406092643737793,-0.244917631149292,0.0,0.0,0.7976259797964895,0.750982473010267
-0.0202239044010639,1.1715883016586304,0.0468859337270259,-0.4606825411319732,-0.1546082496643066,-0.2800051569938659,0.0,0.0,-0.1686213615047769,-0.7747276495092738
-0.0199526790529489,1.1608517169952393,0.0396086052060127,-0.4785274267196655,-0.1671099215745926,-0.2500558495521545,0.0,0.0,0.0364499777579701,-0.8757301134320417
-0.0197688098996877,1.150373935699463,0.0295284576714038,-0.4669698476791382,-0.1782649457454681,-0.2231005877256393,0.0,0.0,-0.3705984844089107,-0.7989140051860261
-0.0196309089660644,1.1394953727722168,0.0237051229923963,-0.4847195446491241,-0.1882271766662597,-0.1992449313402176,0.0,0.0,0.4135058737682366,0.9464061707491233
-0.0193979255855083,1.1292593479156494,0.0355820208787918,-0.4565361440181732,-0.2005791068077087,-0.2470381706953048,0.0,0.0,-0.7216917108881398,0.9165105209099738
-0.0190949440002441,1.1185925006866455,0.0443426109850406,-0.4760559499263763,-0.2147494256496429,-0.2834059596061706,0.0,0.0,-0.2332807487665893,0.8913771302669811
-0.0187136642634868,1.107479691505432,0.0542046204209327,-0.4963224232196808,-0.2310236692428589,-0.3254849314689636,0.0,0.0,-0.2185886834536117,0.6816993731907087
-0.0182655341923236,1.0959354639053345,0.0625591650605201,-0.5159675478935242,-0.2490676492452621,-0.3608792424201965,0.0,0.0,0.878685938552138,0.6153845580018366
-0.0177294723689556,1.0847101211547852,0.0730891898274421,-0.5023320913314819,-0.2689538300037384,-0.3977239727973938,0.0,0.0,-0.2023086023660361,0.840857050525627
-0.0171270370483398,1.0730514526367188,0.0813611894845962,-0.5221935510635376,-0.2906377017498016,-0.4336783289909363,0.0,0.0,0.1955671033627835,-0.6284777171414175
-0.0165390018373727,1.0613877773284912,0.0789508298039436,-0.5225368142127991,-0.311451643705368,-0.4162781834602356,0.0,0.0,-0.2705563151924206,0.6467183619067188
-0.0158933643251657,1.0492838621139526,0.0861657708883285,-0.5427541136741638,-0.3339285254478454,-0.4495380520820617,0.0,0.0,-0.6213732291607028,-0.6635725103793064
-0.0152881620451807,1.0367919206619265,0.0809894502162933,-0.5600798726081848,-0.3553819954395294,-0.4290692806243896,0.0,0.0,-0.6998733134660915,-0.6105026359619006
-0.0147256851196289,1.0239050388336182,0.0755900740623474,-0.5776698589324951,-0.3758172690868377,-0.4087058901786804,0.0,0.0,0.2731365138059409,-0.7909511925181094
-0.0139697073027491,1.0114394426345823,0.0934766829013824,-0.5588491559028625,-0.3948563635349273,-0.3807816803455353,0.0,0.0,0.8806550793533536,-0.7223045790206581
-0.0129377366974949,0.9999504089355468,0.1198818683624267,-0.5153614282608032,-0.4127623438835144,-0.3581191301345825,0.0,0.0,0.6636493672171038,0.7346905117673465
-0.01157808303833,0.9888307452201844,0.1540968269109726,-0.4996305108070373,-0.432377278804779,-0.3922985196113586,0.0,0.0,-0.1681774760548879,-0.6776085361479305
-0.0102742193266749,0.9773361682891846,0.1470374912023544,-0.5161056518554688,-0.4505582451820373,-0.3636194765567779,0.0,0.0,-0.8531307578086853,-0.9910897612571716
-0.0090291025117039,0.965459942817688,0.1397458016872406,-0.532837986946106,-0.4673178493976593,-0.3351922631263733,0.0,0.0,-0.8584377765655518,-0.9859826564788818
-0.007849121466279,0.9531970024108888,0.1317479312419891,-0.5497145056724548,-0.4825686514377594,-0.3050158619880676,0.0,0.0,-0.54034024477005,-0.99736487865448
-0.0067329406738281,0.9405565857887268,0.1238611564040184,-0.5661412477493286,-0.4962667524814605,-0.2739620208740234,0.0,0.0,-0.4848365187644958,-0.9845569729804992
-0.0057001113891601,0.927542805671692,0.1136607751250267,-0.5821853876113892,-0.50794917345047,-0.2336487025022506,0.0,0.0,-0.5659679174423218,-0.9498987793922424
-0.0047392845153808,0.9141480326652528,0.1049333214759826,-0.5986331105232239,-0.5179615616798401,-0.2002482861280441,0.0,0.0,-0.6393358111381531,-0.9768686890602112
-0.003849983215332,0.9003767967224121,0.0962342470884323,-0.6148552298545837,-0.5262796878814697,-0.1663615405559539,0.0,0.0,-0.6971146464347839,-0.9900751113891602
-0.0030479431152343,0.8862605094909668,0.085404448211193,-0.6294274926185608,-0.5322324633598328,-0.1190564185380935,0.0,0.0,-0.6142401695251465,-0.993520975112915
-0.0023375512100756,0.8717997670173645,0.0740910544991493,-0.6439031362533569,-0.5357273817062378,-0.069898709654808,0.0,0.0,-0.0190485119819641,-0.9892374873161316
-0.0017112732166424,0.8569736480712891,0.063885748386383,-0.6594358682632446,-0.5371690392494202,-0.0288332998752594,0.0,0.0,-0.5333332419395447,-0.9980453848838806
-0.0011515617370605,0.8417686223983765,0.055901251733303,-0.6757546067237854,-0.5371012091636658,0.0013568780850619,0.0,0.0,-0.6454356908798218,-0.9961342215538024
-0.0006794929504394,0.8262103796005249,0.0451997816562652,-0.6906852126121521,-0.5347970724105835,0.0460826344788074,0.0,0.0,-0.8868474364280701,-0.9956045150756836
-0.000281810760498,0.8102717399597168,0.0363226756453514,-0.70703125,-0.5308531522750854,0.0788780525326728,0.0,0.0,-0.6713225841522217,-0.994484543800354
3.376007225597277e-05,0.7939755320549011,0.0263197124004364,-0.722245991230011,-0.5248661041259766,0.119740642607212,0.0,0.0,-0.8279984593391418,-0.9904104471206664
0.0002781868097372,0.7772955894470215,0.0178496856242418,-0.7388020157814026,-0.517365038394928,0.1500209718942642,0.0,0.0,-0.93951416015625,-0.9613985419273376
0.0004252433718647,0.7602528929710388,0.0060517168603837,-0.7542044520378113,-0.5075621604919434,0.1960574686527252,0.0,0.0,-0.9256920218467712,-0.9488911628723145
0.0004996299976482,0.7428399920463562,-0.0027476579416543,-0.7701768279075623,-0.4960936307907104,0.2293706834316253,0.0,0.0,-0.8797390460968018,-0.9485051035881042
0.0005034446949139,0.7250481843948364,-0.011227773502469,-0.7866133451461792,-0.4831077754497528,0.2597178816795349,0.0,0.0,-0.8549107313156128,-0.9569819569587708
0.000430297863204,0.7068882584571838,-0.0205932613462209,-0.8025404214859009,-0.4683649837970733,0.2948558032512665,0.0,0.0,-0.833913266658783,-0.6651604771614075
0.0002839088556356,0.6883510947227478,-0.0294304639101028,-0.8189679980278015,-0.4520539045333862,0.3262218534946441,0.0,0.0,-0.7904730439186096,-0.0464623570442199
0.0001144409179687,0.6693924069404602,-0.0318634510040283,-0.8378716707229614,-0.4357442855834961,0.3261916041374206,0.0,0.0,-0.767436683177948,-0.287747323513031
-7.886886305641383e-05,0.6500119566917419,-0.0343581363558769,-0.856775164604187,-0.4194276034832001,0.3263336718082428,0.0,0.0,-0.3634343147277832,-0.1297531127929687
-0.0002964019658975,0.6302099823951721,-0.0369097106158733,-0.8756784796714783,-0.4030956029891968,0.3266400396823883,0.0,0.0,0.2947243452072143,-0.1386690139770507
-0.0003333091735839,0.6106380224227905,-0.0190505757927894,-0.8655861616134644,-0.3866550624370575,0.3288108110427856,0.0,0.0,-0.3452266454696655,0.0407555103302001
-0.0003953933774027,0.5906442999839783,-0.0217027496546506,-0.8844896554946899,-0.3701840341091156,0.3294205069541931,0.0,0.0,0.5177452564239502,-0.5061374306678772
-0.0004370689275674,0.5710763335227966,-0.0205058511346578,-0.8655603528022766,-0.3529458045959472,0.3447640538215637,0.0,0.0,0.3068959712982178,0.0404961109161376
-0.0002547264157328,0.5520310997962952,0.0016776227857917,-0.842490017414093,-0.3355851173400879,0.3472135961055755,0.0,0.0,0.6239621639251709,0.3594632148742676
7.219314284157008e-05,0.5329318642616272,0.0156316272914409,-0.8449897170066833,-0.3178012371063232,0.3556777536869049,0.0,0.0,0.4768596887588501,-0.2147799730300903
0.0006340980762615,0.514487624168396,0.0388581231236457,-0.8160505890846252,-0.2998499274253845,0.3590264022350311,0.0,0.0,0.383025050163269,0.2228255271911621
0.0012107848888263,0.4962249994277954,0.0405497029423713,-0.8082417845726013,-0.2822021245956421,0.3529568612575531,0.0,0.0,-0.1342511773109436,-0.3285959362983703
0.0017603874439373,0.4775411486625671,0.0376816801726818,-0.8271487951278687,-0.2644886076450348,0.3542704284191131,0.0,0.0,0.6585237979888916,-0.8918821215629578
0.0024116516578942,0.4593569934368133,0.045877382159233,-0.8048302531242371,-0.2448473274707794,0.392825722694397,0.0,0.0,0.046423316001892,-0.7743067145347595
0.0030156136490404,0.4415965378284454,0.0394623689353466,-0.7860076427459717,-0.2236040830612182,0.424865186214447,0.0,0.0,0.7378041744232178,-0.1628477573394775
0.0038020133506506,0.4242796897888183,0.0571745932102203,-0.7665296196937561,-0.2019261568784713,0.4335586130619049,0.0,0.0,0.694001317024231,-0.1031895875930786
0.0046072006225585,0.4071435332298279,0.0590285547077655,-0.7588196992874146,-0.1803279221057891,0.4319648742675781,0.0,0.0,-0.0603531599044799,0.1175881624221801
0.0053841592743992,0.3895883560180664,0.0560501217842102,-0.7777405381202698,-0.1586468368768692,0.433621734380722,0.0,0.0,0.9858529567718506,0.8612130880355835
0.0062223435379564,0.3722034990787506,0.0638410598039627,-0.7706536054611206,-0.1386946886777877,0.399042934179306,0.0,0.0,0.9099254608154296,-0.1864099502563476
0.0071492195129394,0.3557629287242889,0.0726014524698257,-0.7289407849311829,-0.1187002882361412,0.3998882174491882,0.0,0.0,0.8943369388580322,0.5476911067962646
0.0082983020693063,0.3402760624885559,0.0955094322562217,-0.686873733997345,-0.0994292646646499,0.3854206502437591,0.0,0.0,0.5352816581726074,-0.146682858467102
0.0093900682404637,0.3255181908607483,0.0901306644082069,-0.6547451019287109,-0.0805512368679046,0.3775607049465179,0.0,0.0,0.3265312910079956,0.238673448562622
0.0103705404326319,0.3107501566410064,0.0793609693646431,-0.6554542779922485,-0.0620638541877269,0.369747906923294,0.0,0.0,0.840644359588623,0.2968586683273315
0.0114211086183786,0.2968761324882507,0.0860518366098404,-0.6159433722496033,-0.0432785972952842,0.3757050037384033,0.0,0.0,0.3997616767883301,0.7528115510940552
0.0124269481748342,0.2833144664764404,0.0831412747502327,-0.6023263335227966,-0.0260465666651725,0.3446407914161682,0.0,0.0,0.7871499061584473,0.2961431741714477
0.0133630754426121,0.2704335451126098,0.0763371959328651,-0.5722724795341492,-0.008999764919281,0.340936005115509,0.0,0.0,0.8695050477981567,0.8824343681335449
0.0143314357846975,0.2583219110965729,0.0812800675630569,-0.5382747054100037,0.006352508906275,0.3070454895496368,0.0,0.0,0.7578263282775879,0.8503460884094238
0.0154357906430959,0.2467184662818908,0.0963190197944641,-0.5158255696296692,0.0202844645828008,0.2786396741867065,0.0,0.0,0.1477855443954467,0.0372041463851928
0.016521643847227,0.2350499927997589,0.0943218022584915,-0.5188537240028381,0.0343773104250431,0.2818570733070373,0.0,0.0,0.3945410251617431,0.6215617656707764
0.0177009589970111,0.223471000790596,0.1046529188752174,-0.5149778723716736,0.0474884174764156,0.2622223496437073,0.0,0.0,0.6386430263519287,0.6238348484039307
0.0190302841365337,0.212332472205162,0.120464876294136,-0.4954831004142761,0.0598097629845142,0.2464268952608108,0.0,0.0,0.4703538417816162,0.4984652996063232
0.0204321853816509,0.2013080269098281,0.1270731985569,-0.4905505180358886,0.0727818235754966,0.2594415545463562,0.0,0.0,0.5734419822692871,0.4768623113632202
0.0217461585998535,0.1909307986497879,0.1182576268911361,-0.4619010090827942,0.0858025848865509,0.2604149580001831,0.0,0.0,0.4082064628601074,0.5218992233276367
0.0230436325073242,0.1811099797487259,0.1175252050161361,-0.4372237920761108,0.097920723259449,0.2423625737428665,0.0,0.0,0.4398559331893921,0.7201272249221802
0.0244300849735736,0.1717627346515655,0.1276031285524368,-0.4161921143531799,0.1088732406497001,0.2190502882003784,0.0,0.0,-0.0702295303344726,0.4229089021682739
0.0257858280092477,0.1619923412799835,0.1244931370019912,-0.4350863099098205,0.119887463748455,0.2202841788530349,0.0,0.0,0.1893248558044433,0.1744272708892822
0.0270295143127441,0.1523378938436508,0.1134187951683998,-0.4300043284893036,0.1307838261127472,0.21792733669281,0.0,0.0,0.1981039047241211,0.2624602317810058
0.0282217022031545,0.1432027220726013,0.1079485267400741,-0.4070339202880859,0.1420162618160247,0.2246482819318771,0.0,0.0,0.3154522180557251,0.7103877067565918
0.0293540954589843,0.1343243867158889,0.1033868566155433,-0.3955602943897247,0.1518446803092956,0.1965682208538055,0.0,0.0,0.6710023880004883,0.2424448728561401
0.0302095413208007,0.1261869221925735,0.0762462094426155,-0.3626395761966705,0.1611325144767761,0.185756653547287,0.0,0.0,0.8406631946563721,0.1403641700744629
0.0310050006955862,0.1188003420829773,0.0697831511497497,-0.3293813169002533,0.170904591679573,0.1954414248466491,0.0,0.0,0.4673237800598144,0.9066667556762696
0.0316727645695209,0.1119858846068382,0.0588830895721912,-0.3037932217121124,0.1788271516561508,0.1584512591361999,0.0,0.0,0.5717859268188477,0.4571880102157593
0.0321054458618164,0.1057780385017395,0.0357167348265647,-0.2768371701240539,0.1864092051982879,0.1516415029764175,0.0,0.0,0.7239218950271606,0.786941647529602
0.0324442870914936,0.0999185889959335,0.0279388781636953,-0.2611792981624603,0.1923760324716568,0.1193365827202797,0.0,0.0,0.595543622970581,0.1912893056869506
0.0325304046273231,0.0944574698805809,0.0031819262076169,-0.2434286326169967,0.1978321671485901,0.1091226711869239,0.0,0.0,0.2770922183990478,0.2959579229354858
0.032391645014286,0.0891330316662788,-0.0187569968402385,-0.2373031824827194,0.2027538269758224,0.0984333306550979,0.0,0.0,-0.1740188598632812,0.9014310836791992
0.0323029533028602,0.0834144204854965,-0.0116257611662149,-0.2545430958271026,0.2055374681949615,0.0556732006371021,0.0,0.0,0.6929605007171631,0.7083905935287476
0.0322287566959857,0.0778582394123077,-0.0089110136032104,-0.2471504956483841,0.2070361673831939,0.029974291101098,0.0,0.0,0.6513724327087402,0.3560788631439209
0.0321084968745708,0.0730412825942039,-0.014166641049087,-0.2143875211477279,0.2091872543096542,0.0430216863751411,0.0,0.0,0.1828377246856689,0.8814859390258789
0.0318899154663085,0.0686375200748443,-0.0221947021782398,-0.1957699358463287,0.2095258980989456,0.0067728571593761,0.0,0.0,0.45028817653656,0.5942051410675049
0.0316622741520404,0.0649732649326324,-0.0221713371574878,-0.1627714484930038,0.2089270651340484,-0.0119766872376203,0.0,0.0,-0.0844261646270752,0.796218752861023
0.0314724929630756,0.0609061829745769,-0.0165523998439311,-0.1804190725088119,0.2064828723669052,-0.0488840788602829,0.0,0.0,0.0629578828811645,0.5119665861129761
0.0311774257570505,0.0572013705968856,-0.0259980466216802,-0.1641760766506195,0.2029476016759872,-0.0707053840160369,0.0,0.0,0.1754897832870483,0.973135232925415
0.0308618545532226,0.0539420209825038,-0.0260421726852655,-0.14411361515522,0.1973961293697357,-0.1110294088721275,0.0,0.0,0.053583025932312,0.9270617961883544
0.0305898673832416,0.0507232993841171,-0.0197582952678203,-0.1420813202857971,0.1899094879627227,-0.149732768535614,0.0,0.0,0.0631124973297119,0.5736172199249268
0.0301692970097064,0.0476553551852703,-0.0332651883363723,-0.1352504044771194,0.1810682117938995,-0.1768255084753036,0.0,0.0,0.3161756992340088,0.947242259979248
0.029600715264678,0.0447545610368251,-0.0459954552352428,-0.1276372224092483,0.1701804250478744,-0.2177557945251464,0.0,0.0,0.221929669380188,0.9314016103744508
0.0289840698242187,0.04206033796072,-0.048817865550518,-0.1183228716254234,0.1573316156864166,-0.2569762766361236,0.0,0.0,-0.3002381324768066,0.9428093433380128
0.0284127239137887,0.0389600619673728,-0.0422084741294384,-0.1362749487161636,0.1424193233251571,-0.2982458472251892,0.0,0.0,-0.3194936513900757,0.7568880319595337
0.0278821941465139,0.0354468673467636,-0.036136120557785,-0.1546142250299453,0.1255654692649841,-0.3370772004127502,0.0,0.0,-0.1767899394035339,0.641137957572937
0.0273778922855854,0.0315266214311122,-0.0318582914769649,-0.1727766245603561,0.1071113944053649,-0.3690817654132843,0.0,0.0,-0.5060698390007019,0.2950731515884399
0.0268417354673147,0.0271858796477317,-0.034887108951807,-0.1916874945163726,0.0885382667183876,-0.3714625239372253,0.0,0.0,-0.0875535011291503,-0.2809675931930542
0.0262738224118948,0.0224245637655258,-0.0379067473113536,-0.2105989158153534,0.0698384940624237,-0.3739958107471466,0.0,0.0,0.3539562225341797,-0.6483069658279419
