x_pos,y_pos,x_vel,y_vel,angle,ang_vel,leg_1,leg_2,main_booster,lat_booster
-0.0015252113807946,1.4033201932907104,-0.1543122678995132,-0.3377722501754761,0.0016004332574084,0.0315581187605857,0.0,0.0,-0.0874588734064543,0.8888479938408482
-0.0029764175415039,1.395435094833374,-0.1445871144533157,-0.3504485189914703,0.0010774105321615,-0.0104609215632081,0.0,0.0,0.5438387781705829,-0.7784816535119581
-0.0043523786589503,1.3878058195114136,-0.1387088596820831,-0.3390734791755676,0.0021776824723929,0.0220076125115156,0.0,0.0,-0.3343643444221571,-0.8984561140421886
-0.0058145523071289,1.3798691034317017,-0.1492982357740402,-0.3527494966983795,0.0052270987071096,0.0609936341643333,0.0,0.0,0.5242694866614654,-0.7671149817005167
-0.007209968753159,1.3725337982177734,-0.1442233622074127,-0.3260354399681091,0.0098602762445807,0.0926721841096878,0.0,0.0,0.9663349858856174,0.8051559902293827
-0.0083722118288278,1.3658661842346191,-0.1195453852415084,-0.2963606715202331,0.0131374662742018,0.0655500739812851,0.0,0.0,-0.8282236935880374,-0.6978861238438835
-0.009593104943633,1.3588933944702148,-0.126670703291893,-0.3099498450756073,0.0176670048385858,0.0905988067388534,0.0,0.0,-0.821381179953405,0.8935304479108497
-0.0107278823852539,1.3516215085983276,-0.1156461015343666,-0.3232238888740539,0.0198052749037742,0.0427696518599987,0.0,0.0,0.8376487306830884,0.9197525628659006
-0.011825275607407,1.3454527854919434,-0.1098455563187599,-0.2741605937480926,0.0199111420661211,0.0021179178729653,0.0,0.0,0.5600376744103808,0.83581628646541
-0.0128728868439793,1.3400154113769531,-0.1030017882585525,-0.2416360229253769,0.0181754194200038,-0.0347178801894187,0.0,0.0,0.5817293931044245,0.7982047145657618
-0.0137778278440237,1.3351322412490845,-0.0871156975626945,-0.2169947177171707,0.0148387029767036,-0.0667407363653183,0.0,0.0,-0.465313366587246,-0.9183454466139046
-0.0147479055449366,1.3299416303634644,-0.0950755923986435,-0.2306835204362869,0.0129236597567796,-0.0383041016757488,0.0,0.0,-0.1561713001490152,-0.9725686649390148
-0.0157795902341604,1.3244504928588867,-0.102569855749607,-0.2440462708473205,0.0123327849432826,-0.0118182580918073,0.0,0.0,0.7130029704768761,-0.8930645544946845
-0.0168078429996967,1.3191990852355957,-0.1039713472127914,-0.2333993911743164,0.0134608400985598,0.0225635133683681,0.0,0.0,-0.8760350260134941,-0.8917405080722265
-0.017891502007842,1.31365168094635,-0.1106919050216674,-0.2465765923261642,0.0157547667622566,0.0458826720714569,0.0,0.0,-0.4403201543280561,0.6112863204787006
-0.018919562920928,1.307794213294983,-0.1034860163927078,-0.2603408992290497,0.0164268370717763,0.0134429363533854,0.0,0.0,0.0034024537296566,0.8867356172130556
-0.0197879783809185,1.3024262189865112,-0.0855358988046646,-0.2385665774345398,0.0151410372927784,-0.0257180929183959,0.0,0.0,0.9062299947829224,-0.9642551849765584
-0.0205577854067087,1.297396183013916,-0.0777565836906433,-0.2235571891069412,0.0158989876508712,0.0151605503633618,0.0,0.0,0.8191387806466173,-0.6019439864435645
-0.0212759971618652,1.2933950424194336,-0.073921263217926,-0.1778554618358612,0.0179681871086359,0.0413877479732036,0.0,0.0,-0.6691609143829975,0.7714354626830403
-0.0219429023563861,1.2890903949737549,-0.0672403499484062,-0.1913230270147323,0.0185195785015821,0.0110290683805942,0.0,0.0,-0.586991030124028,0.7788755045446508
-0.0225364677608013,1.2844892740249634,-0.0578256845474243,-0.2044714987277984,0.0170059874653816,-0.0302745886147022,0.0,0.0,0.903521249812,-0.9907959331461772
-0.0232030861079692,1.280341386795044,-0.0669581592082977,-0.1843561977148056,0.0172957833856344,0.0057965042069554,0.0,0.0,-0.5290142978225638,0.782729284702789
-0.0237956997007131,1.2758897542953491,-0.0574490204453468,-0.1978235393762588,0.0155023215338587,-0.0358724743127822,0.0,0.0,-0.4412280443335172,0.9767267236926324
-0.0243030544370412,1.2711254358291626,-0.0465419702231884,-0.2117138057947158,0.0113526014611125,-0.0830015912652015,0.0,0.0,-0.0089664646189191,-0.8065437772017812
-0.0248904228210449,1.2660577297210691,-0.0563476309180259,-0.225212886929512,0.0089941378682851,-0.0471733137965202,0.0,0.0,0.4412090127696102,-0.6002079962758997
-0.0256704334169626,1.2615864276885986,-0.0763212218880653,-0.1987201422452926,0.0073372442275285,-0.0331380479037761,0.0,0.0,-0.3277688415251327,0.6297453403720351
-0.026401424780488,1.2568153142929075,-0.0699485093355178,-0.2120349109172821,0.0042279562912881,-0.0621858164668083,0.0,0.0,-0.540225527130193,0.985848711312958
-0.0270724296569824,1.251750946044922,-0.0622022747993469,-0.225079208612442,-0.0006087283836677,-0.0967336595058441,0.0,0.0,0.353584910912631,-0.8573324356843011
-0.0279335975646972,1.2473417520523071,-0.0826229155063629,-0.1959702670574188,-0.0040580946952104,-0.0689875036478042,0.0,0.0,0.4918261325508388,0.8339764108812937
-0.0287492759525775,1.2432855367660522,-0.0761708766222,-0.1802968382835388,-0.0093882596120238,-0.1066032275557518,0.0,0.0,-0.1495762860456777,-0.8966462588487121
-0.029634665697813,1.2389366626739502,-0.08470019698143,-0.193316176533699,-0.0131829939782619,-0.0758945047855377,0.0,0.0,0.701748000916169,-0.603385015787596
-0.0306492801755666,1.234959840774536,-0.0984162986278534,-0.1767772734165191,-0.0161862112581729,-0.0600643046200275,0.0,0.0,0.7727047001361085,-0.7587371610719836
-0.0318077094852924,1.2319798469543457,-0.1139281615614891,-0.1324642598628997,-0.0180757157504558,-0.0377902202308177,0.0,0.0,0.9337405856170162,-0.7305725012853654
-0.03309803083539,1.2293260097503662,-0.1282068043947219,-0.1179589703679084,-0.0188967268913984,-0.01642014272511,0.0,0.0,0.0967746153971844,-0.755423139752523
-0.034428883343935,1.2269954681396484,-0.1335866749286651,-0.1035766452550888,-0.0183985289186239,0.0099639128893613,0.0,0.0,0.927817864566444,-0.8695481173580886
-0.0357898697257041,1.2256921529769895,-0.1382022500038147,-0.0579030402004718,-0.0163172706961631,0.0416250973939895,0.0,0.0,0.8831206282985524,0.9823837819545924
-0.0370988845825195,1.2248568534851074,-0.1307801306247711,-0.0371250510215759,-0.0164356399327516,-0.0023673740215599,0.0,0.0,0.6996592522328573,0.6483837084111105
-0.0383021347224712,1.224894642829895,-0.1188057288527488,0.0016597507055848,-0.0179358813911676,-0.0300048552453517,0.0,0.0,0.7520138881229246,0.6396715186071535
-0.0394845977425575,1.2259752750396729,-0.1151283010840416,0.0479911565780639,-0.0210099648684263,-0.0614815652370452,0.0,0.0,-0.3778488265529476,-0.688982801231264
-0.0407197959721088,1.2267544269561768,-0.1215396374464035,0.0346001200377941,-0.0229701530188322,-0.039203718304634,0.0,0.0,-0.9365257625449634,0.8436774946088803
-0.0419008247554302,1.2272348403930664,-0.1145309209823608,0.0212897025048732,-0.0265020951628685,-0.0706386864185333,0.0,0.0,-0.9065034985542296,-0.7535904049873352
-0.0431302078068256,1.227411150932312,-0.1203720122575759,0.0077973851002752,-0.029034262523055,-0.0506432428956031,0.0,0.0,-0.9770642518997192,-0.5801063776016235
-0.0443989746272563,1.2272789478302002,-0.1251029521226883,-0.0059152822941541,-0.0307908747345209,-0.0351320430636405,0.0,0.0,-0.9100325107574464,-0.4383156895637512
-0.045668601989746,1.2268426418304443,-0.1249915584921836,-0.0194362048059701,-0.0327385999262332,-0.0389545485377311,0.0,0.0,-0.9690508842468262,-0.2890599966049194
-0.0469390861690044,1.2261021137237549,-0.1248789802193641,-0.0329572148621082,-0.034877136349678,-0.0427706949412822,0.0,0.0,-0.9662922024726868,-0.7871913313865662
-0.0482680313289165,1.2250527143478394,-0.1319994032382965,-0.0466670431196689,-0.0357607677578926,-0.0176727045327425,0.0,0.0,-0.9756338596343994,-0.2844660878181457
-0.0495977401733398,1.223698973655701,-0.1318846046924591,-0.060187853872776,-0.0368344485759735,-0.0214738138020038,0.0,0.0,-0.9970633387565612,-0.3307498693466186
-0.0509282127022743,1.222041368484497,-0.1317687928676605,-0.0737086907029151,-0.0380977429449558,-0.0252660624682903,0.0,0.0,-0.9702459573745728,-0.1895900964736938
-0.0522594451904296,1.22007954120636,-0.1316520273685455,-0.0872296020388603,-0.0395501740276813,-0.02904849126935,0.0,0.0,-0.9774118661880492,-0.1217983365058898
-0.0535913482308387,1.2178136110305786,-0.1315343976020813,-0.1007505729794502,-0.0411911867558956,-0.0328200608491897,0.0,0.0,-0.9915745854377748,0.2735600471496582
-0.0549241080880165,1.2152436971664429,-0.1314159333705902,-0.1142716109752655,-0.043020162731409,-0.0365796275436878,0.0,0.0,-0.9963862299919128,-0.3129677772521972
-0.0562574379146099,1.212369680404663,-0.1312966644763946,-0.1277927309274673,-0.0450364723801612,-0.0403259731829166,0.0,0.0,-0.991698443889618,-0.5875321626663208
-0.0576295852661132,1.209190845489502,-0.1359563767910003,-0.1413159370422363,-0.0462831817567348,-0.0249341260641813,0.0,0.0,-0.9904083013534546,0.1604145765304565
-0.05900239944458,1.205708146095276,-0.1358357518911361,-0.1548369526863098,-0.0477156788110733,-0.028649877756834,0.0,0.0,-0.998407781124115,0.6231174468994141
-0.0603145584464073,1.2019145488739014,-0.128012329339981,-0.1687076687812805,-0.0508801229298114,-0.0632888972759246,0.0,0.0,-0.9986880421638488,-0.0733066797256469
-0.0616272911429405,1.1978172063827517,-0.1278906315565109,-0.1822294741868972,-0.0542285032570362,-0.0669677034020423,0.0,0.0,-0.9568772912025452,0.5951274633407593
-0.062886044383049,1.1934168338775637,-0.120926596224308,-0.1957553327083587,-0.0591280162334442,-0.097989946603775,0.0,0.0,-0.9926937222480774,0.4134838581085205
-0.0641454681754112,1.1887128353118896,-0.1208040937781333,-0.209278404712677,-0.0642092376947403,-0.1016242131590843,0.0,0.0,-0.9693422913551332,-0.1285707950592041
-0.0654054656624794,1.1837050914764404,-0.1206812709569931,-0.2228017002344131,-0.069470889866352,-0.1052329987287521,0.0,0.0,-0.995381772518158,0.7223958969116211
-0.0666158646345138,1.1783950328826904,-0.1142779812216758,-0.2363355904817581,-0.0761664807796478,-0.1339119970798492,0.0,0.0,-0.9564597606658936,0.6237937211990356
-0.0677737221121788,1.1727700233459473,-0.1074807271361351,-0.2504415512084961,-0.0843890383839607,-0.1644511371850967,0.0,0.0,-0.967786967754364,0.6268060207366943
-0.0688905715942382,1.1668401956558228,-0.1021699756383895,-0.264115959405899,-0.0938272923231124,-0.1887650489807129,0.0,0.0,-0.9893041253089904,0.0434198379516601
-0.0700079947710037,1.1606075763702393,-0.1020471304655075,-0.2776449620723724,-0.1034395098686218,-0.1922441869974136,0.0,0.0,-0.9700062870979308,0.0028647184371948
-0.071125790476799,1.1540721654891968,-0.1019243821501731,-0.2911743223667145,-0.1132236644625663,-0.195683091878891,0.0,0.0,-0.7796491980552673,-0.2164759635925293
-0.0722439736127853,1.1472342014312744,-0.1018018275499343,-0.3047040700912475,-0.1231775432825088,-0.19907808303833,0.0,0.0,-0.9804580807685852,-0.4679360389709472
-0.0733624473214149,1.140093445777893,-0.1016795188188552,-0.3182341754436493,-0.1332988142967224,-0.2024250775575637,0.0,0.0,-0.9308452010154724,-0.108466625213623
-0.0744812041521072,1.132650375366211,-0.1015575379133224,-0.3317646980285644,-0.1435847878456115,-0.2057195901870727,0.0,0.0,-0.9509758353233336,-0.3446450233459472
-0.0756002441048622,1.124904751777649,-0.1014359593391418,-0.3452955782413482,-0.1540326327085495,-0.2089569121599197,0.0,0.0,-0.9348034858703612,-0.022853672504425
-0.0767194777727127,1.1168566942214966,-0.1013148799538612,-0.3588268458843231,-0.1646392196416854,-0.2121318280696869,0.0,0.0,-0.960577666759491,0.548312783241272
-0.0778030380606651,1.108494997024536,-0.0966878682374954,-0.372965395450592,-0.1763290762901306,-0.2337971925735473,0.0,0.0,-0.9983953833580016,-0.5093233585357666
-0.0789320915937423,1.0998456478118896,-0.1022828966379165,-0.3857243359088897,-0.1869925409555435,-0.2132691144943237,0.0,0.0,-0.9445504546165466,-0.4173966646194458
-0.0800613388419151,1.0908936262130735,-0.1021637320518493,-0.39925616979599,-0.1978036314249038,-0.2162222415208816,0.0,0.0,-0.9370520710945128,0.0902702808380127
-0.0811903923749923,1.081639528274536,-0.102045401930809,-0.4127883315086365,-0.2087580561637878,-0.2190883904695511,0.0,0.0,-0.9985538125038148,-0.7937290668487549
-0.0823733359575271,1.0720999240875244,-0.108699157834053,-0.4253644943237304,-0.2184496074914932,-0.1938311457633972,0.0,0.0,-0.8668159246444702,-0.1691094040870666
-0.0835562720894813,1.0622578859329224,-0.1085820198059082,-0.4388947784900665,-0.2282746881246566,-0.1965023577213287,0.0,0.0,-0.9930494427680968,-0.2079451084136963
-0.08473901450634,1.05211341381073,-0.1084659323096275,-0.4524253010749817,-0.2382279187440872,-0.199064239859581,0.0,0.0,-0.9139829277992249,-0.4890791773796081
-0.0859215706586837,1.0416662693023682,-0.108350969851017,-0.4659559428691864,-0.2483033686876297,-0.2015086859464645,0.0,0.0,0.2759909629821777,-0.1795282959938049
-0.0869595557451248,1.0318098068237305,-0.0937770307064056,-0.4397983253002167,-0.2585246562957763,-0.2044256925582885,0.0,0.0,-0.9990407824516296,-0.4340855479240417
-0.0879971534013748,1.0216506719589231,-0.0936647206544876,-0.4533293843269348,-0.2688551545143127,-0.2066099643707275,0.0,0.0,-0.9711191654205322,-0.3195996284484863
-0.0890344604849815,1.0111892223358154,-0.0935538560152053,-0.4668604433536529,-0.2792876958847046,-0.2086513787508011,0.0,0.0,-0.9206307530403136,-0.8782141208648682
-0.0901539772748947,1.0004510879516602,-0.1037984117865562,-0.4788311123847961,-0.287659227848053,-0.1674314439296722,0.0,0.0,-0.9493539929389954,-0.3367315530776977
-0.0912729278206825,0.9894099831581116,-0.1036892980337143,-0.4923589825630188,-0.2961173057556152,-0.1691623777151107,0.0,0.0,-0.8880437016487122,-0.907245934009552
-0.0924713164567947,0.978102207183838,-0.1136550158262252,-0.5038415193557739,-0.3024985492229461,-0.1276253908872604,0.0,0.0,-0.5243726372718811,-0.5910932421684265
-0.0937170982360839,0.9665159583091736,-0.1196153312921524,-0.5159887671470642,-0.307634174823761,-0.1027125343680381,0.0,0.0,-0.7243334054946899,-0.8456997275352478
-0.095026209950447,0.9546608328819276,-0.1275898963212967,-0.5275998711585999,-0.3110688924789428,-0.0686945021152496,0.0,0.0,-0.5495866537094116,-0.8581339716911316
-0.0963895767927169,0.9425285458564758,-0.1344237625598907,-0.5396279692649841,-0.3130587935447693,-0.0397981852293014,0.0,0.0,-0.2614872455596924,-0.9439181089401244
-0.0978222861886024,0.9301162958145142,-0.1430822312831878,-0.5516934990882874,-0.3132512867450714,-0.0038500283844769,0.0,0.0,0.5165495872497559,-0.7625187635421753
-0.0991087928414344,0.9179062843322754,-0.1300805956125259,-0.5423608422279358,-0.3117719888687134,0.0295856148004531,0.0,0.0,0.9138621091842652,-0.7718567848205566
-0.1000731438398361,0.9062790870666504,-0.0997464507818222,-0.516053318977356,-0.3083367645740509,0.0687045454978942,0.0,0.0,0.0150079727172851,0.0005481243133544
-0.1008813828229904,0.8946553468704224,-0.0845183283090591,-0.5158348679542542,-0.3045160174369812,0.0764152035117149,0.0,0.0,-0.6953690052032471,-0.5963018536567688
-0.101732924580574,0.8827528953552246,-0.0900432839989662,-0.5279766917228699,-0.2994656860828399,0.1010066494345665,0.0,0.0,0.2994542121887207,-0.3679299354553222
-0.1023841872811317,0.8713910579681396,-0.0701331123709678,-0.5039505362510681,-0.2942927479743957,0.1034596338868141,0.0,0.0,-0.8515654802322388,0.1158812046051025
-0.1030343025922775,0.8597252368927002,-0.0700446814298629,-0.5174723863601685,-0.2890993654727936,0.1038669794797897,0.0,0.0,-0.7250621914863586,-0.7137682437896729
-0.1037294417619705,0.8477684855461121,-0.0757591277360916,-0.5301920771598816,-0.2826759219169616,0.128469705581665,0.0,0.0,-0.8328388929367065,-0.250499427318573
-0.104423239827156,0.8355076909065247,-0.0756763890385627,-0.5437145829200745,-0.2762118875980377,0.1292802691459655,0.0,0.0,-0.6460415124893188,-0.0804023146629333
-0.105115607380867,0.8229432106018066,-0.0755963623523712,-0.557236909866333,-0.2696976065635681,0.130286157131195,0.0,0.0,-0.6766751408576965,-0.3904151916503906
-0.1058066338300705,0.8100747466087341,-0.0755191370844841,-0.5707591772079468,-0.2631235122680664,0.1314816921949386,0.0,0.0,-0.7976728677749634,0.0839267969131469
-0.106496050953865,0.7969024777412415,-0.0754448100924491,-0.584281325340271,-0.2564804852008819,0.1328606307506561,0.0,0.0,-0.8648486137390137,0.0851802825927734
-0.1071838364005088,0.7834263443946838,-0.0753734558820724,-0.5978034734725952,-0.2497597336769104,0.1344154775142669,0.0,0.0,-0.8280620574951172,-0.5176187753677368
-0.1079124435782432,0.7696663737297058,-0.0806687921285629,-0.6102415323257446,-0.2418106496334076,0.1589816063642501,0.0,0.0,-0.8342480659484863,0.2720160484313965
-0.1086392402648925,0.7556028962135315,-0.0806042104959487,-0.6237649321556091,-0.233767420053482,0.160864919424057,0.0,0.0,-0.8383610248565674,0.0015560388565063
-0.1093644127249717,0.7412356734275818,-0.0805428698658943,-0.6372883915901184,-0.2256224006414413,0.1629001200199127,0.0,0.0,-0.7856862545013428,0.6954612731933594
-0.1100443825125694,0.7265505194664001,-0.0750458166003227,-0.6516125202178955,-0.2184977829456329,0.1424926072359085,0.0,0.0,-0.7412226796150208,-0.1770508885383606
-0.1107226386666297,0.7115614414215088,-0.074990801513195,-0.6651346683502197,-0.2112574726343155,0.1448061764240265,0.0,0.0,-0.8366885781288147,0.3267743587493896
-0.1113990768790245,0.6962685585021973,-0.0749393850564956,-0.6786569952964783,-0.203895166516304,0.1472460478544235,0.0,0.0,-0.6851857304573059,0.188197374343872
-0.112073615193367,0.6806719899177551,-0.0748916566371917,-0.6921795010566711,-0.1964049786329269,0.1498037576675415,0.0,0.0,-0.6508387923240662,0.4547442197799682
-0.1127462387084961,0.664771556854248,-0.0748477503657341,-0.7057020664215088,-0.1887814402580261,0.1524712145328521,0.0,0.0,-0.5923123955726624,0.2203748226165771
-0.1134170517325401,0.6485673189163208,-0.0748078078031539,-0.7192248702049255,-0.1810194104909896,0.1552406102418899,0.0,0.0,0.5267535448074341,0.8333883285522461
-0.1137327179312706,0.6331762671470642,-0.0380036793649196,-0.6832789778709412,-0.1745656281709671,0.1290755718946457,0.0,0.0,-0.7150943279266357,0.5872700214385986
-0.11399507522583,0.6174674034118652,-0.0314992107450962,-0.697559118270874,-0.169290542602539,0.1055016666650772,0.0,0.0,0.0627496242523193,-0.3232099413871765
-0.114171601831913,0.6022321581840515,-0.0230563376098871,-0.6765168309211731,-0.1638853102922439,0.1081045418977737,0.0,0.0,-0.4177963733673095,-0.2282992601394653
-0.1143463104963302,0.5866928100585938,-0.0230327136814594,-0.6900373101234436,-0.1583247631788253,0.1112109273672103,0.0,0.0,0.4793121814727783,-0.499855637550354
-0.1143832206726074,0.5714403390884399,-0.0097493510693311,-0.6772549748420715,-0.1522717624902725,0.1210599765181541,0.0,0.0,0.3379025459289551,-0.1431912183761596
-0.1144402474164962,0.5566487312316895,-0.0114703886210918,-0.6568273305892944,-0.1465150713920593,0.1151338964700698,0.0,0.0,-0.4980822801589966,-0.1597070693969726
-0.1144955605268478,0.5415530204772949,-0.01146100461483,-0.6703482866287231,-0.1405936330556869,0.1184288635849952,0.0,0.0,0.2209095954895019,0.1176167726516723
-0.1145064383745193,0.5267753005027771,-0.007119558751583,-0.6562293767929077,-0.1345784217119217,0.1203040033578872,0.0,0.0,0.3110229969024658,0.7254085540771484
-0.1143791228532791,0.5123052000999451,0.0079418532550334,-0.6426922082901001,-0.1298106610774994,0.0953553542494773,0.0,0.0,0.3347349166870117,-0.512743353843689
-0.1141398400068283,0.497944176197052,0.0176753215491771,-0.637738049030304,-0.1235830038785934,0.1245533376932144,0.0,0.0,-0.1902835369110107,0.8669426441192627
-0.1138194054365158,0.4832680523395538,0.0276223719120025,-0.6519114375114441,-0.1191906556487083,0.0878467559814453,0.0,0.0,0.6948225498199463,-0.7011946439743042
-0.1134256348013877,0.469531774520874,0.0333084836602211,-0.610025942325592,-0.1131593137979507,0.1206270903348922,0.0,0.0,-0.0306133031845092,-0.0255488753318786
