x_pos,y_pos,x_vel,y_vel,angle,ang_vel,leg_1,leg_2,main_booster,lat_booster
-0.0015219688648357,1.40327250957489,-0.1544945389032364,-0.3398914933204651,0.0020551884081214,0.0405622236430645,0.0,0.0,-0.5281165242195129,0.7753322124481201
-0.0029762268532067,1.3952927589416504,-0.1460541784763336,-0.3546614944934845,0.002671398455277,0.0123260775581002,0.0,0.0,-0.5351045727729797,0.4693057537078857
-0.0044287680648267,1.3869603872299194,-0.146151915192604,-0.3703261613845825,0.0035580131225287,0.0177340619266033,0.0,0.0,-0.3739103078842163,0.8797533512115479
-0.005823993589729,1.378273606300354,-0.1392767131328582,-0.3860818743705749,0.0033108363859355,-0.0049440008588135,0.0,0.0,-0.006973922252655,0.5469081401824951
-0.0071653365157544,1.369236946105957,-0.1328087896108627,-0.4016323685646057,0.002007188508287,-0.0260752327740192,0.0,0.0,0.2100124359130859,0.5658469200134277
-0.0083504673093557,1.3604445457458496,-0.1165378913283348,-0.3907698094844818,5.817367855343037e-05,-0.0389840826392173,0.0,0.0,-0.2544072866439819,0.4494609832763672
-0.0095336912199854,1.3513002395629885,-0.1165999919176101,-0.4064160287380218,-0.0016512488946318,-0.0341913290321826,0.0,0.0,0.2754991054534912,0.070035696029663
-0.0105990413576364,1.342552900314331,-0.1055912151932716,-0.3887682259082794,-0.0025808541104197,-0.0185940936207771,0.0,0.0,-0.7895739078521729,0.3395313024520874
-0.0116626741364598,1.3334535360336304,-0.1056425794959068,-0.4044156074523926,-0.0032908271532505,-0.0142008541151881,0.0,0.0,-0.4466017484664917,0.3415151834487915
-0.0127245904877781,1.3240022659301758,-0.1056872233748436,-0.4200545251369476,-0.003791362280026,-0.0100115584209561,0.0,0.0,-0.7012031078338623,0.8387157917022705
-0.0137094501405954,1.314199447631836,-0.0962500274181366,-0.4356931447982788,-0.0059936116449534,-0.0440492257475853,0.0,0.0,-0.3320763111114502,0.8943843841552734
-0.0146137233823537,1.304042100906372,-0.0863965302705764,-0.4514562487602234,-0.0099899694323539,-0.079934537410736,0.0,0.0,-0.7396966218948364,0.7156983613967896
-0.0154479024931788,1.293535828590393,-0.0778003185987472,-0.4669933617115021,-0.0155382817611098,-0.1109764203429222,0.0,0.0,0.2644970417022705,-0.2523179650306701
-0.0162232406437397,1.283084273338318,-0.0723472386598587,-0.4645700752735138,-0.0206775795668363,-0.102795198559761,0.0,0.0,-0.5962390899658203,-0.838502824306488
-0.0170476920902729,1.2722913026809692,-0.0786890387535095,-0.4797434210777282,-0.0243978593498468,-0.0744123011827468,0.0,0.0,-0.937163472175598,-0.6832296848297119
-0.017915153875947,1.26114022731781,-0.0842297598719596,-0.4956512451171875,-0.0268807336688041,-0.0496619567275047,0.0,0.0,-0.8853522539138794,-0.704185426235199
-0.0188241004943847,1.24964702129364,-0.0895847305655479,-0.5108315348625183,-0.0281715430319309,-0.0258185509592294,0.0,0.0,0.2551383972167969,-0.7146178483963013
-0.0196589473634958,1.238219976425171,-0.0838816240429878,-0.5078657865524292,-0.0277757197618484,0.0079169049859046,0.0,0.0,-0.8841089010238647,0.1370919942855835
-0.0204928405582904,1.226440668106079,-0.0838697329163551,-0.5235100984573364,-0.0273011364042758,0.0094926953315734,0.0,0.0,-0.8573212623596191,-0.4184695482254028
-0.0213258750736713,1.2143096923828125,-0.0838511064648628,-0.5391508936882019,-0.0267641246318817,0.0107414228841662,0.0,0.0,-0.4364016056060791,-0.0869529247283935
-0.0221582408994436,1.201826572418213,-0.0838269740343093,-0.5547921061515808,-0.0261829011142253,0.0116253877058625,0.0,0.0,-0.8472778797149658,0.1243653297424316
-0.0229901317507028,1.188991665840149,-0.0837971195578575,-0.5704336166381836,-0.0255755577236413,0.0121480301022529,0.0,0.0,-0.5210871696472168,-0.7639453411102295
-0.0238688476383686,1.1758055686950684,-0.0897069349884986,-0.5860210061073303,-0.0237691942602396,0.0361305326223373,0.0,0.0,-0.5910937786102295,0.7123363018035889
-0.0246846191585063,1.162257432937622,-0.0817955210804939,-0.6021393537521362,-0.0235550459474325,0.0042834477499127,0.0,0.0,-0.2759021520614624,-0.1419827938079834
-0.0255002025514841,1.1483572721481323,-0.081747755408287,-0.6177809834480286,-0.023368576541543,0.0037298675160855,0.0,0.0,-0.8834640979766846,0.0813456773757934
-0.0263160709291696,1.13408362865448,-0.0817283242940902,-0.6343761682510376,-0.0232289806008338,0.0027919390704482,0.0,0.0,-0.8857187628746033,-0.1990426182746887
-0.0271320343017578,1.1194581985473633,-0.0816707611083984,-0.6500157713890076,-0.0231537669897079,0.001504237181507,0.0,0.0,-0.0259161591529846,-0.4972753524780273
-0.0279481895267963,1.104480862617493,-0.0816089883446693,-0.6656553745269775,-0.0231603626161813,-0.0001319678558502,0.0,0.0,-0.4860801696777344,-0.4891002774238586
-0.0287646297365427,1.0891518592834473,-0.081543356180191,-0.6812950372695923,-0.0232657548040151,-0.0021077003329992,0.0,0.0,-0.1406980752944946,-0.3488746285438537
-0.0295816417783498,1.073470950126648,-0.0814742594957351,-0.696934700012207,-0.0234863702207803,-0.0044122925028204,0.0,0.0,-0.1885223388671875,-0.6339260935783386
-0.0304476730525493,1.057447075843811,-0.087487980723381,-0.7121612429618835,-0.022615922614932,0.0174090228974819,0.0,0.0,0.3458186388015747,-0.3503090143203735
-0.0313696861267089,1.041608810424805,-0.0926435142755508,-0.7039171457290649,-0.0221849121153354,0.0086204474791884,0.0,0.0,0.034439206123352,-0.1272359490394592
-0.0323331840336322,1.026173114776611,-0.0963777527213096,-0.6860313415527344,-0.0221538003534078,0.0006221577059477,0.0,0.0,-0.5382839441299438,-0.1036259531974792
-0.0332976356148719,1.010385513305664,-0.0962988585233688,-0.7016712427139282,-0.0222971606999635,-0.0028673077467828,0.0,0.0,-0.0185839533805847,-0.519433319568634
-0.0343031883239746,0.9942486882209778,-0.1012339740991592,-0.7171884179115295,-0.0216228067874908,0.013487085700035,0.0,0.0,-0.8228994011878967,-0.3101375102996826
-0.0353098884224891,0.9777597784996032,-0.1011527627706527,-0.7328281998634338,-0.0211481433361768,0.0094929840415716,0.0,0.0,-0.4729752540588379,-0.4297685623168945
-0.0363179221749305,0.960919201374054,-0.1010710448026657,-0.7484680414199829,-0.0208846777677536,0.0052693570032715,0.0,0.0,0.0467990636825561,0.0238651037216186
-0.0372932441532611,0.9444493055343628,-0.0976821854710578,-0.7319936752319336,-0.0207315776497125,0.0030619716271758,0.0,0.0,-0.2599543333053589,-0.0046854615211486
-0.0382699966430664,0.9276275038719176,-0.0976008027791976,-0.7476335167884827,-0.0208103824406862,-0.0015760663663968,0.0,0.0,0.3015404939651489,-0.8960689306259155
-0.0392837524414062,0.9111747145652772,-0.1028768867254257,-0.731216311454773,-0.0193289723247289,0.0296282675117254,0.0,0.0,-0.4785871505737304,0.7231857776641846
-0.040252111852169,0.894374668598175,-0.096882939338684,-0.7466615438461304,-0.0192801933735609,0.000975580245722,0.0,0.0,-0.2657763957977295,-0.2977526187896728
-0.0412222854793071,0.8772229552268982,-0.0968053489923477,-0.7623013854026794,-0.0194891449064016,-0.0041792280972003,0.0,0.0,0.0395491123199462,-0.4733986854553222
-0.0421294197440147,0.860013484954834,-0.090518981218338,-0.7648640275001526,-0.019680393859744,-0.0038251760415732,0.0,0.0,0.5930440425872803,0.0687397718429565
-0.042932890355587,0.8432138562202454,-0.0803181380033493,-0.7466490864753723,-0.0197006575763225,-0.0004050936549901,0.0,0.0,-0.4952868223190307,-0.511600136756897
-0.0437816604971885,0.8260577321052551,-0.0856778025627136,-0.7624874114990234,-0.0189132988452911,0.015747332945466,0.0,0.0,-0.3412421941757202,-0.0912511348724365
-0.0446327216923236,0.808549702167511,-0.0856113284826278,-0.7781273722648621,-0.0184096619486808,0.0100728115066885,0.0,0.0,0.5728764533996582,-0.1317622661590576
-0.0454200729727745,0.7913263440132141,-0.0792294144630432,-0.765476644039154,-0.0179263465106487,0.0096660023555159,0.0,0.0,0.5727378129959106,0.0440340042114257
-0.046302605420351,0.7749442458152771,-0.0879419967532157,-0.7280892729759216,-0.0182317588478326,-0.0061081843450665,0.0,0.0,-0.013874351978302,-0.2454713582992553
-0.047187615185976,0.7582107186317444,-0.0878882110118866,-0.7437292337417603,-0.0188352633267641,-0.0120699414983391,0.0,0.0,-0.2526561021804809,-0.1570354700088501
-0.0480751991271972,0.7411251068115234,-0.0878394618630409,-0.7593691945075989,-0.0197408311069011,-0.0181114934384822,0.0,0.0,0.2162486314773559,-0.7857199907302856
-0.0488988868892192,0.7243162989616394,-0.082844041287899,-0.7470524907112122,-0.0192733667790889,0.0093491682782769,0.0,0.0,0.0029871463775634,0.1269949674606323
-0.0497517585754394,0.7078273892402649,-0.0852742046117782,-0.7328393459320068,-0.019276674836874,-6.637097976636142e-05,0.0,0.0,-0.622657060623169,-0.3451250195503235
-0.0506073012948036,0.690986692905426,-0.085242822766304,-0.7484792470932007,-0.0195920746773481,-0.0063078040257096,0.0,0.0,-0.0559278130531311,0.0787699222564697
-0.0514658913016319,0.6737940907478333,-0.0852179378271102,-0.7641192078590393,-0.0202222894877195,-0.0126043837517499,0.0,0.0,0.4197871685028076,0.1941672563552856
-0.0521909706294536,0.6568742990493774,-0.0721488744020462,-0.7519960999488831,-0.0205775573849678,-0.0071050985716283,0.0,0.0,0.399531602859497,-0.0833593606948852
-0.0529918670654296,0.6402038335800171,-0.0790288224816322,-0.740925669670105,-0.0216269120573997,-0.0209870673716068,0.0,0.0,-0.0982452630996704,0.6893409490585327
-0.0537328720092773,0.6231858730316162,-0.0711045563220977,-0.7563981413841248,-0.0245824977755546,-0.0591119900345802,0.0,0.0,0.7098324298858643,0.0240349769592285
-0.0543171875178813,0.6068575978279114,-0.0557819008827209,-0.7257430553436279,-0.0272010508924722,-0.0523708574473857,0.0,0.0,0.2231314182281494,-0.2318401336669922
-0.0548331253230571,0.5910894274711609,-0.0488641448318958,-0.7008582949638367,-0.0298890601843595,-0.0537602789700031,0.0,0.0,0.3240143060684204,-0.6834127306938171
-0.0554553978145122,0.5759252309799194,-0.0604448989033699,-0.6740028858184814,-0.0316545441746711,-0.0353094637393951,0.0,0.0,-0.8289501667022705,0.1388525962829589
-0.0560812950134277,0.5604092478752136,-0.060474656522274,-0.6896434426307678,-0.0337482988834381,-0.0418749302625656,0.0,0.0,-0.0459086298942565,-0.1252775192260742
-0.0567110069096088,0.5445416569709778,-0.0605133399367332,-0.7052841782569885,-0.0361716002225875,-0.0484659671783447,0.0,0.0,0.6646614074707031,-0.4853804111480713
-0.0572012886404991,0.5290968418121338,-0.0468210987746715,-0.6864941120147705,-0.0383499711751937,-0.0435674861073493,0.0,0.0,0.7041577100753784,-0.4493284225463867
-0.0576468482613563,0.5142465829849243,-0.0421369299292564,-0.6600754261016846,-0.040747731924057,-0.0479550585150718,0.0,0.0,-0.4012324810028076,0.1587787866592407
-0.0580965057015419,0.49904465675354,-0.0422036871314048,-0.6757164597511292,-0.0434781871736049,-0.0546088814735412,0.0,0.0,0.8901796340942383,-0.3382948637008667
-0.0586624145507812,0.4845138192176819,-0.052825529128313,-0.6459306478500366,-0.0471973866224288,-0.0743839740753173,0.0,0.0,0.0221390724182128,0.092106819152832
-0.0591942779719829,0.4704238474369049,-0.0491476356983184,-0.626353919506073,-0.0511894896626472,-0.0798422396183013,0.0,0.0,-0.8038876056671143,0.3034900426864624
-0.0597305297851562,0.4559824764728546,-0.0492440722882747,-0.6419960856437683,-0.055516567081213,-0.0865416303277015,0.0,0.0,0.7807799577713013,-0.3994934558868408
-0.0601910576224327,0.4425653517246246,-0.0414691045880317,-0.596492350101471,-0.0600445233285427,-0.0905589684844017,0.0,0.0,-0.8279670476913452,0.8226284980773926
-0.0606014244258403,0.4287885427474975,-0.0347204133868217,-0.6125699877738953,-0.0662908777594566,-0.1249275058507919,0.0,0.0,-0.7378520965576172,-0.5902343392372131
-0.0610700622200965,0.4146683812141418,-0.0415763482451438,-0.6278070211410522,-0.0715190395712852,-0.104563221335411,0.0,0.0,0.8187761306762695,-0.7604014873504639
-0.0615175254642963,0.4012258648872375,-0.0407356806099414,-0.5976417064666748,-0.0754904970526695,-0.0794288963079452,0.0,0.0,0.2774518728256225,-0.9459431171417236
-0.0621099472045898,0.388440728187561,-0.0567397885024547,-0.5683554410934448,-0.0779704824090004,-0.0495998226106166,0.0,0.0,-0.6479676365852356,0.0912799835205078
-0.0627074241638183,0.3753041326999664,-0.0568976886570453,-0.5839976072311401,-0.0807881206274032,-0.0563527718186378,0.0,0.0,0.9909133911132812,-0.3083073496818542
-0.0633124336600303,0.3625257313251495,-0.0571210905909538,-0.5681151151657104,-0.0841316729784011,-0.0668708756566047,0.0,0.0,0.4559837579727173,-0.1556425094604492
-0.0638387650251388,0.3498165607452392,-0.0491994805634021,-0.5650473833084106,-0.0875361412763595,-0.0680892392992973,0.0,0.0,0.5255914926528931,-0.6358575224876404
-0.0644251853227615,0.3372288644313812,-0.0560740306973457,-0.5596064329147339,-0.090082436800003,-0.0509260892868042,0.0,0.0,0.4113603830337524,-0.4596477746963501
-0.0649631470441818,0.3253030478954315,-0.0508533045649528,-0.530218243598938,-0.0930002480745315,-0.0583560168743133,0.0,0.0,0.0283972024917602,-0.6219567656517029
-0.06545190513134,0.3137892782688141,-0.0469099134206771,-0.5118424296379089,-0.0949492081999778,-0.0389794781804084,0.0,0.0,-0.2228302359580993,-0.3364915251731872
-0.0659462958574295,0.3019242584705353,-0.0471283122897148,-0.5274848937988281,-0.097236655652523,-0.0457491725683212,0.0,0.0,0.4627300500869751,-0.4582371711730957
-0.0665319412946701,0.2901623249053955,-0.0553754977881908,-0.5229630470275879,-0.100392535328865,-0.0631176307797432,0.0,0.0,0.7006311416625977,-0.7170901894569397
-0.0670525580644607,0.2792714834213257,-0.0500847175717353,-0.4841702878475189,-0.1023586317896843,-0.0393222235143184,0.0,0.0,-0.6310706734657288,-0.1184547543525695
-0.0675791725516319,0.2680293023586273,-0.0503316596150398,-0.4998129308223724,-0.1046630963683128,-0.0460893660783767,0.0,0.0,0.3342150449752807,-0.759628176689148
-0.0681634917855262,0.257272720336914,-0.0572262816131114,-0.4781550467014313,-0.1058566942811012,-0.0238719563931226,0.0,0.0,-0.2201598882675171,-0.6441967487335205
-0.0688052177429199,0.2461762279272079,-0.0639555677771568,-0.4931928515434265,-0.1060768812894821,-0.0044035115279257,0.0,0.0,-0.0539945363998413,-0.0817828774452209
-0.0694531425833702,0.2347282767295837,-0.0642292648553848,-0.5088353157043457,-0.1066349372267723,-0.0111611355096101,0.0,0.0,0.4205473661422729,-0.8017752766609192
-0.0701168999075889,0.2233665734529495,-0.0671069622039794,-0.504912257194519,-0.1059032529592514,0.0146334674209356,0.0,0.0,0.6023645401000977,0.3805093765258789
-0.0706561058759689,0.2122216820716858,-0.0547405406832695,-0.495270699262619,-0.1050927862524986,0.0162093602120876,0.0,0.0,0.1802656650543213,0.0773127079010009
-0.071054458618164,0.2013173252344131,-0.0407954081892967,-0.4845672845840454,-0.1041331738233566,0.0191920921206474,0.0,0.0,0.848236083984375,-0.0215712189674377
-0.0712582617998123,0.1906955540180206,-0.0217303931713104,-0.4719856679439544,-0.102788895368576,0.026885638013482,0.0,0.0,0.1724214553833007,0.1355620622634887
-0.0714178085327148,0.1805184036493301,-0.0169534347951412,-0.4522478282451629,-0.1017995327711105,0.0197873022407293,0.0,0.0,0.5780363082885742,-0.4871909022331238
-0.0714809447526931,0.1710665076971054,-0.0071067297831177,-0.42002934217453,-0.101009301841259,0.0158044882118701,0.0,0.0,-0.5264654755592346,-0.7871144413948059
-0.071599580347538,0.1612736582756042,-0.0135828051716089,-0.4351243078708648,-0.099308542907238,0.0340155698359012,0.0,0.0,0.1569164991378784,-0.5886837244033813
-0.0716710090637207,0.1514597088098526,-0.0098353903740644,-0.4359998404979706,-0.0966409593820571,0.0533514693379402,0.0,0.0,0.569683313369751,-0.4648554921150207
-0.0717522650957107,0.1420239061117172,-0.0102428784593939,-0.4192321896553039,-0.094538502395153,0.0420492738485336,0.0,0.0,0.1852028369903564,-0.4109453558921814
-0.0717213600873947,0.1331523805856704,0.0010157036595046,-0.3941605687141418,-0.0924886837601661,0.0409964546561241,0.0,0.0,0.158156156539917,-0.5274938344955444
-0.0717200264334678,0.124533474445343,-0.0026214765384793,-0.3828961551189422,-0.0897552743554115,0.0546679906547069,0.0,0.0,0.2177240848541259,-0.3524682521820068
-0.0717643722891807,0.1164513677358627,-0.0064300298690795,-0.3590846359729767,-0.0877781063318252,0.0395435243844985,0.0,0.0,-0.2671804428100586,-0.2536771297454834
-0.071815587580204,0.1080178618431091,-0.0067946524359285,-0.3747268617153168,-0.0861319229006767,0.0329239293932914,0.0,0.0,0.7511966228485107,0.1565070152282714
-0.0718621239066124,0.1004286408424377,-0.0057092630304396,-0.3372382819652557,-0.0850782766938209,0.0210725758224725,0.0,0.0,0.3702702522277832,-0.5320883989334106
-999.0,0.0934347212314605,-0.0132870804518461,-0.310746967792511,-0.0834641978144645,0.0322815217077732,0.0,0.0,-0.2045636177062988,0.425816535949707
-0.072102352976799,0.0860893353819847,-0.013666657730937,-0.3263889253139496,-0.0821779146790504,0.0257257167249918,0.0,0.0,0.4550938606262207,0.0523549318313598
-0.0722921341657638,0.0791969895362854,-0.0194616131484508,-0.3063023388385772,-0.0816935151815414,0.0096877859905362,0.0,0.0,0.5352613925933838,0.8331799507141113
-0.0725394263863563,0.07268987596035,-0.0229850243777036,-0.289301186800003,-0.0834267809987068,-0.0346652641892433,0.0,0.0,0.4364731311798095,0.8754632472991943
-0.0725686997175216,0.0667488202452659,0.0007946852711029,-0.2642602622509002,-0.0871071144938469,-0.0736066028475761,0.0,0.0,-0.1030093431472778,-0.6960790753364563
-0.0726546272635459,0.0604567863047122,-0.0058210724964737,-0.2798125147819519,-0.0898657813668251,-0.0551734045147895,0.0,0.0,0.3002204895019531,0.2688338756561279
-0.072580337524414,0.054694902151823,0.0100060254335403,-0.2562400102615356,-0.0924167335033416,-0.0510190054774284,0.0,0.0,0.3631548881530761,-0.4808510541915893
-0.0724729523062706,0.0495405532419681,0.0137219130992889,-0.22926826775074,-0.0953734219074249,-0.059133768081665,0.0,0.0,0.0131487846374511,-0.1668587923049926
-0.0722357779741287,0.0448047742247581,0.0266091283410787,-0.2106651961803436,-0.0982416942715644,-0.0573655143380165,0.0,0.0,-0.2958436608314514,0.463308572769165
-0.0720059424638748,0.0397176593542099,0.0261991415172815,-0.2263079136610031,-0.1014240160584449,-0.0636465698480606,0.0,0.0,0.1867908239364624,-0.5689933896064758
-0.0717739090323448,0.0351678468286991,0.025585388764739,-0.2023804038763046,-0.1037918329238891,-0.0473562963306903,0.0,0.0,-0.0955103039741516,-0.4405482411384582
-0.0715492218732833,0.0302665568888187,0.0251697860658168,-0.2180229723453521,-0.1064685955643653,-0.0535352453589439,0.0,0.0,0.4466197490692138,0.0907089710235595
-0.0712188705801963,0.025601515546441,0.0357055589556694,-0.2075304836034774,-0.1091251075267791,-0.0531301572918891,0.0,0.0,0.4063148498535156,0.1872234344482422
-0.0709419250488281,0.0213868711143732,0.0311539210379123,-0.1875742077827453,-0.1125662177801132,-0.0688220188021659,0.0,0.0,0.209913969039917,-0.1307714581489563
-0.0707233399152755,0.0173987485468387,0.0260633416473865,-0.1775737702846527,-0.1167417615652084,-0.0835108086466789,0.0,0.0,0.6551690101623535,-0.2269004583358764
-0.0704675689339637,0.0139045091345906,0.0301757510751485,-0.1556635946035385,-0.1213130354881286,-0.0914254635572433,0.0,0.0,0.3394094705581665,-0.1562145948410034
-0.0700614005327224,0.0114644858986139,0.0266131423413753,-0.1073609441518783,-0.1074148267507553,0.2779454886913299,1.0,0.0,0.119590163230896,0.0911335945129394
-0.0694462805986404,0.0096175530925393,0.0315425917506217,-0.0801998302340507,-0.077687919139862,0.5945606231689453,1.0,0.0,0.169579267501831,-0.0436730980873107
-0.0687411278486251,0.0081232404336333,0.041094847023487,-0.0651463344693183,-0.0485859140753746,0.5820401310920715,1.0,0.0,-0.0983967781066894,0.098029613494873
-0.0680356994271278,0.0062883235514163,0.0410877764225006,-0.0808570459485054,-0.0194856189191341,0.5820061564445496,0.0,0.0,0.0643341541290283,0.7912399768829346
