x_pos,y_pos,x_vel,y_vel,angle,ang_vel,leg_1,leg_2,main_booster,lat_booster
-0.0015917777782306,1.4034963846206665,-0.161152645945549,-0.3299479782581329,0.0017663795733824,0.0348435975611209,0.0,0.0,0.2643679387774309,0.9739493807086012
-0.0031301497947424,1.396492600440979,-0.1536028087139129,-0.3112773001194,0.0015376490773633,-0.0045742196962237,0.0,0.0,-0.6494390998310273,-0.8123100479607203
-0.0047867773100733,1.3893541097640991,-0.1666546911001205,-0.3172706961631775,0.0025106270331889,0.0194613672792911,0.0,0.0,0.9445597999267707,0.92594860581981
-0.0065955161117017,1.382966160774231,-0.179636925458908,-0.2839089035987854,0.0012904090108349,-0.0244064051657915,0.0,0.0,-0.2553736674538973,0.9596923064130922
-0.0083811758086085,1.3764530420303345,-0.1749647259712219,-0.2894700169563293,-0.0022810485679656,-0.071435697376728,0.0,0.0,-0.8875157368212134,0.8397592300141536
-0.0101544382050633,1.369810700416565,-0.1716081202030182,-0.2952337861061096,-0.0079390881583094,-0.1131711229681968,0.0,0.0,0.8917552374713096,-0.6608719842224255
-0.0120708467438817,1.364033341407776,-0.1871232688426971,-0.2568033337593078,-0.0124093042686581,-0.0894125699996948,0.0,0.0,-0.9188082296657,-0.6143953840535199
-0.0140923503786325,1.3581302165985107,-0.1985030323266983,-0.262393057346344,-0.0160106997936964,-0.0720346122980117,0.0,0.0,0.1012814818059519,0.9935746267698292
-0.0161046981811523,1.35294508934021,-0.1955620944499969,-0.2305194735527038,-0.0216238405555486,-0.1122731193900108,0.0,0.0,-0.6779619207431644,-0.7257854332302762
-0.0182427410036325,1.3476383686065674,-0.2095439881086349,-0.2359214276075363,-0.0258398726582527,-0.0843284353613853,0.0,0.0,-0.3839550825711899,0.814769375354145
-0.0203759185969829,1.3422017097473145,-0.2071505039930343,-0.2417498379945755,-0.0319461040198802,-0.122135542333126,0.0,0.0,0.1328718086462459,0.873260114536242
-0.0224407203495502,1.3371727466583252,-0.1985365450382232,-0.2236983925104141,-0.0397987738251686,-0.1570678949356079,0.0,0.0,0.5228322970604633,-0.7179106750975943
-0.0244722366333007,1.3329815864562988,-0.1968810856342315,-0.1864495277404785,-0.0460084453225135,-0.1242047771811485,0.0,0.0,-0.8905781100686474,-0.8528287250961951
-0.0266317371279001,1.328658938407898,-0.2111531198024749,-0.19227996468544,-0.0507634989917278,-0.0951095893979072,0.0,0.0,0.808951894038008,0.9200714708270727
-0.0285696033388376,1.3255515098571775,-0.1874012202024459,-0.1383326202630996,-0.0570833906531333,-0.1264090985059738,0.0,0.0,-0.3680377452369294,-0.7060891166237204
-0.0306212417781353,1.3223118782043457,-0.1999047100543975,-0.1441953331232071,-0.0622967295348644,-0.1042762994766235,0.0,0.0,0.3463879348873964,-0.7942008476196725
-0.0326332077383995,1.3199913501739502,-0.1976546943187713,-0.1032866910099983,-0.0658033117651939,-0.0701381862163543,0.0,0.0,-0.446102503542066,-0.8891398789468048
-0.0347668640315532,1.317540168762207,-0.2111420631408691,-0.1090345159173011,-0.0680014789104461,-0.0439671166241169,0.0,0.0,0.7064334820362308,-0.946635567872412
-0.0368738174438476,1.3162070512771606,-0.2105080783367157,-0.0592622272670269,-0.0681873857975006,-0.003718388499692,0.0,0.0,0.8591774036917716,-0.8847469645813253
-0.0391745567321777,1.3157155513763428,-0.2314331978559494,-0.0217826496809721,-0.0668410211801529,0.026929697021842,0.0,0.0,0.5496004689297616,0.6387314143508295
-0.0413148887455463,1.3161377906799316,-0.2143655121326446,0.0187841355800628,-0.0665110573172569,0.0065999017097055,0.0,0.0,0.700422180990196,0.9257616521777636
-0.043405819684267,1.3170993328094482,-0.2075468748807907,0.042676642537117,-0.0680387616157531,-0.0305569563060998,0.0,0.0,-0.935141884844471,-0.840726351915885
-0.0456155762076377,1.317937254905701,-0.2207210958003997,0.0372219532728195,-0.0682881847023963,-0.0049890764057636,0.0,0.0,-0.2730371867310126,0.7877872676062282
-0.04782285541296,1.3186310529708862,-0.2186731547117233,0.0307411886751651,-0.0703241527080535,-0.0407230518758297,0.0,0.0,-0.7666367332547375,-0.6177807553200263
-0.0501564033329486,1.319204807281494,-0.2328043431043625,0.0254733357578516,-0.0708712786436081,-0.0109435198828578,0.0,0.0,-0.941361492235089,-0.9609763841812712
-0.0526508316397666,1.3196440935134888,-0.2512533366680145,0.0196092408150434,-0.0690730512142181,0.0359641164541244,0.0,0.0,-0.2205077252340317,-0.6446578365516142
-0.0552609451115131,1.3199645280838013,-0.2640939056873321,0.0143841821700334,-0.0660299658775329,0.0608622208237648,0.0,0.0,-0.0638899380844733,0.6362738987456018
-0.0578965172171592,1.320159673690796,-0.2656012177467346,0.0087629919871687,-0.0640081167221069,0.0404367819428443,0.0,0.0,0.043491339260266,0.671733822804387
-0.0606058128178119,1.320968508720398,-0.2715000808238983,0.0359739996492862,-0.0634442716836929,0.0112770590931177,0.0,0.0,-0.9170525698174684,-0.942736141164896
-0.0634564384818077,1.321653127670288,-0.2875616252422333,0.0305300261825323,-0.0609691403806209,0.0495025254786014,0.0,0.0,-0.3969500244813562,-0.766083306492361
-0.0664287582039833,1.322223663330078,-0.3012087941169739,0.0255163572728633,-0.0570441149175167,0.0785006582736969,0.0,0.0,0.4435280685719087,0.8822373308546589
-0.069449707865715,1.3232351541519165,-0.3041631877422333,0.0450323782861232,-0.0549924820661544,0.0410321876406669,0.0,0.0,0.2641231286311745,0.912652931846393
-0.0724996551871299,1.3250457048416138,-0.3051668107509613,0.0804793760180473,-0.0548270530998706,0.0033088482450693,0.0,0.0,0.8002164918580201,-0.8002056623949884
-0.0757292732596397,1.3273210525512695,-0.3245574831962585,0.1011843979358673,-0.0532510131597518,0.0315207988023757,0.0,0.0,-0.2536068419523538,-0.6802831498885513
-0.0790719985961914,1.3294742107391355,-0.3371756970882416,0.0957845225930213,-0.0503845773637294,0.0573287196457386,0.0,0.0,0.430184462462639,0.8657845771199125
-0.0823553055524826,1.33247971534729,-0.3294893205165863,0.1336219012737274,-0.0492454506456851,0.0227827876806259,0.0,0.0,-0.4671765816167963,0.7486126878424
-0.0856413841247558,1.3353493213653564,-0.3282913267612457,0.1275226026773452,-0.0495574139058589,-0.0062394714914262,0.0,0.0,0.7899353427058353,-0.7947723931771726
-0.0889621749520301,1.3393335342407229,-0.3334356546401977,0.1771243959665298,-0.0482211746275424,0.0267247650772333,0.0,0.0,0.7843194724485363,-0.7374115733785163
-0.0924005508422851,1.3445690870285034,-0.3465484380722046,0.232770025730133,-0.0455413833260536,0.0535957925021648,0.0,0.0,-0.8039966339546778,0.7121996895924052
-0.0958359688520431,1.3496732711791992,-0.3447279334068298,0.2268892675638198,-0.0443686321377754,0.0234548486769199,0.0,0.0,0.442198339081715,0.8054837496223789
-0.0993364304304122,1.355677366256714,-0.3494493067264557,0.2668305039405823,-0.0449674203991889,-0.0119756031781435,0.0,0.0,-0.536392867565155,0.3529143333435058
-0.1028904914855957,1.361553430557251,-0.3547746539115906,0.2611347138881683,-0.0455884411931037,-0.0124201849102973,0.0,0.0,-0.5584824681282043,0.2762447595596313
-0.1064965277910232,1.3673012256622314,-0.3599580824375152,0.2554389536380768,-0.0462309680879116,-0.0128503497689962,0.0,0.0,-0.687505841255188,0.4672563076019287
-0.1101531982421875,1.3729207515716553,-0.3649885952472687,0.2497431635856628,-0.0468942783772945,-0.013266397640109,0.0,0.0,-0.7741873264312744,0.1555593013763427
-0.1138586029410362,1.3784123659133911,-0.3698545098304748,0.2440474033355713,-0.0475777089595794,-0.0136685343459248,0.0,0.0,-0.6835248470306396,0.1473587751388549
-0.117611214518547,1.3837757110595703,-0.3745436668395996,0.2383516132831573,-0.0482805520296096,-0.0140568884089589,0.0,0.0,-0.8628160953521729,0.4654796123504638
-0.1214089393615722,1.389011025428772,-0.3790433704853058,0.2326558381319046,-0.0490021333098411,-0.0144319329410791,0.0,0.0,-0.6278062462806702,0.1430672407150268
-0.1252498626708984,1.394118309020996,-0.3833403885364532,0.226960077881813,-0.0497418418526649,-0.0147940944880247,0.0,0.0,-0.6990707516670227,0.2615017890930176
-0.1291317045688629,1.3990973234176636,-0.387421190738678,0.2212642878293991,-0.0504990480840206,-0.0151440994814038,0.0,0.0,-0.7299770712852478,0.527086615562439
-0.1330122053623199,1.4039437770843506,-0.3862334191799164,0.2153310775756836,-0.052285436540842,-0.0357281193137168,0.0,0.0,-0.7201920747756958,0.2035348415374755
-0.136928841471672,1.408661961555481,-0.3898400068283081,0.2096350789070129,-0.0540882237255573,-0.0360557436943054,0.0,0.0,-0.6980917453765869,0.335930585861206
-0.1408791542053222,1.4132522344589231,-0.3931884467601776,0.2039391100406646,-0.0559068955481052,-0.0363735295832157,0.0,0.0,-0.6733640432357788,0.7026659250259399
-0.1447949409484863,1.4177048206329346,-0.3880481123924255,0.1977623403072357,-0.0593941174447536,-0.0697446316480636,0.0,0.0,-0.6425301432609558,0.4886345863342285
-0.1487386673688888,1.4220294952392578,-0.3908387124538421,0.1920655667781829,-0.0628964081406593,-0.0700455531477928,0.0,0.0,-0.3948109149932861,-0.141603410243988
-0.1527075767517089,1.426226258277893,-0.3933305144309997,0.1863688081502914,-0.0664133802056312,-0.0703396275639534,0.0,0.0,-0.7789615988731384,0.2727084159851074
-0.1566983163356781,1.4302948713302612,-0.3955109715461731,0.1806720644235611,-0.0699447840452194,-0.0706279426813125,0.0,0.0,-0.6368725299835205,0.5237255096435547
-0.1606597900390625,1.434235692024231,-0.3913483917713165,0.1749087423086166,-0.0746947899460792,-0.0949999168515205,0.0,0.0,-0.3709543943405151,0.2109711170196533
-0.1646367013454437,1.4380486011505127,-0.3928728997707367,0.1692111492156982,-0.0794587731361389,-0.095279760658741,0.0,0.0,-0.7260771989822388,0.7016842365264893
-0.1685628890991211,1.4417335987091064,-0.3862094581127167,0.1634193360805511,-0.0858056619763374,-0.126937910914421,0.0,0.0,-0.7903934121131897,-0.3988752365112304
-0.1724974662065506,1.4452908039093018,-0.387042224407196,0.1577202230691909,-0.092166319489479,-0.1272129565477371,0.0,0.0,-0.7845226526260376,-0.0854274630546569
-0.1764369010925293,1.4487204551696775,-0.387519359588623,0.1520210951566696,-0.0985406637191772,-0.1274868696928024,0.0,0.0,-0.7017174959182739,-0.2297124862670898
-0.1803776770830154,1.4520225524902344,-0.3876369297504425,0.146321952342987,-0.1049286648631095,-0.1277603358030319,0.0,0.0,-0.7915937304496765,0.0653110742568969
-0.1843160688877105,1.455196976661682,-0.3873928189277649,0.1406227797269821,-0.111330360174179,-0.128033846616745,0.0,0.0,-0.4946359395980835,0.1010559797286987
-0.1882485449314117,1.4582439661026,-0.3867869675159454,0.1349235624074936,-0.1177457422018051,-0.1283077001571655,0.0,0.0,-0.636939525604248,0.445813775062561
-0.1921713799238205,1.4611632823944092,-0.3858212530612945,0.129224345088005,-0.1241748556494712,-0.1285821497440338,0.0,0.0,-0.5745388865470886,-0.549799382686615
-0.1961330473423004,1.463964819908142,-0.3910281658172607,0.1240823119878768,-0.1292942315340042,-0.1023875102400779,0.0,0.0,-0.6520404815673828,-0.4356199502944946
-0.2000782042741775,1.4666388034820557,-0.3893558382987976,0.1183843240141868,-0.1344274133443832,-0.1026632934808731,0.0,0.0,-0.5846357345581055,-0.3728437423706054
-0.204003244638443,1.4691848754882812,-0.3873407244682312,0.1126863211393356,-0.1395743787288665,-0.1029393672943115,0.0,0.0,-0.6770259141921997,-0.5748283863067627
-0.2079472541809082,1.4716187715530396,-0.3903295397758484,0.1077867895364761,-0.1436345279216766,-0.0812031850218772,0.0,0.0,-0.6962419152259827,-0.2951627373695373
-0.2118647098541259,1.4739246368408203,-0.3876573145389557,0.1020895987749099,-0.147708460688591,-0.0814788416028022,0.0,0.0,-0.6934769153594971,-0.5137021541595459
-0.2157984226942062,1.4761152267456057,-0.3904679417610168,0.0970634967088699,-0.150611013174057,-0.0580511875450611,0.0,0.0,-0.6844465136528015,-0.3551582098007202
-0.2196995317935943,1.4781776666641235,-0.3871853649616241,0.0913669764995575,-0.1535272300243377,-0.0583243146538734,0.0,0.0,-0.8095877766609192,-0.201604962348938
-0.223565012216568,1.4801121950149536,-0.3836176097393036,0.0856704413890838,-0.1564570069313049,-0.0585952512919902,0.0,0.0,-0.8881588578224182,-0.4683358669281006
-0.2273921966552734,1.4819185733795166,-0.3797787725925445,0.079973891377449,-0.1594001799821853,-0.0588633939623832,0.0,0.0,-0.898459255695343,-0.0871764421463012
-0.2311785668134689,1.4835971593856812,-0.3756833076477051,0.0742773339152336,-0.1623565852642059,-0.0591280274093151,0.0,0.0,-0.7336443066596985,-0.179400086402893
-0.2349217385053634,1.4851475954055786,-0.3713458478450775,0.0685807764530181,-0.1653260141611099,-0.059388555586338,0.0,0.0,-0.9441261887550354,-0.3557555675506592
-0.2386193722486496,1.486570119857788,-0.3667810261249542,0.0628842189908027,-0.168308213353157,-0.0596443228423595,0.0,0.0,-0.8388388156890869,-0.3557444214820862
-0.2422693222761154,1.4878644943237305,-0.3620032370090484,0.0571876503527164,-0.1713029593229293,-0.0598947778344154,0.0,0.0,-0.8064677119255066,-0.4810770153999328
-0.2458695918321609,1.489030838012695,-0.357026606798172,0.0514910779893398,-0.1743099093437194,-0.0601394400000572,0.0,0.0,-0.8985525369644165,0.0576351881027221
-0.2494183480739593,1.4900693893432615,-0.3518648743629455,0.0457945019006729,-0.177328810095787,-0.0603777691721916,0.0,0.0,-0.9385491013526917,-0.3157409429550171
-0.2529138624668121,1.490979790687561,-0.3465313017368316,0.0400979146361351,-0.1803592890501022,-0.0606094785034656,0.0,0.0,-0.9472336173057556,-0.5396206974983215
-0.2563931047916412,1.4917775392532349,-0.3459002077579498,0.0352098979055881,-0.1823882758617401,-0.0405798442661762,0.0,0.0,-0.9489076137542723,-0.6772523522377014
-0.2598775029182434,1.4924640655517578,-0.3479881882667541,0.030461398884654,-0.1828411966562271,-0.0090584848076105,0.0,0.0,-0.9693411588668824,-0.0017041563987731
-0.2633042335510254,1.4930225610733032,-0.3422121107578277,0.0247655622661113,-0.1833046674728393,-0.0092693837359547,0.0,0.0,-0.9543677568435668,0.0465626716613769
-0.2666720449924469,1.493453025817871,-0.336310863494873,0.019069729372859,-0.1837783455848693,-0.0094734840095043,0.0,0.0,-0.9668179750442504,-0.4798121452331543
-0.2699797749519348,1.4937552213668823,-0.330294519662857,0.0133739002048969,-0.1842618733644485,-0.0096706254407763,0.0,0.0,-0.9725737571716307,-0.0706406235694885
-0.2732264101505279,1.4939295053482056,-0.3241724371910095,0.0076780756935477,-0.1847549229860305,-0.0098610762506723,0.0,0.0,-0.96712988615036,0.3979893922805786
-0.2764109671115875,1.4939754009246826,-0.3179532885551452,0.0019822544418275,-0.1852571666240692,-0.0100448988378047,0.0,0.0,-0.9888464212417604,0.1011836528778076
-0.2795325219631195,0.0,-0.3116452395915985,-0.0037135630846023,-0.1857682764530182,-0.010222221724689,0.0,0.0,-0.8799050450325012,-0.0168758034706115
-0.2825902998447418,1.493683099746704,-0.3052557110786438,-0.0094093773514032,-0.1862879544496536,-0.0103935794904828,0.0,0.0,-0.9830265641212464,0.5177862644195557
-0.285543143749237,1.4933371543884275,-0.2937392294406891,-0.0155694717541337,-0.1878426671028137,-0.0310943815857172,0.0,0.0,-0.930407166481018,0.2751777172088623
-0.288430780172348,1.4928630590438845,-0.2872069478034973,-0.0212654527276754,-0.1894053965806961,-0.0312545821070671,0.0,0.0,-0.9603402614593506,0.3860925436019897
-0.2912525534629822,1.4922609329223633,-0.2806123197078705,-0.0269614364951849,-0.1909759044647216,-0.0314097814261913,0.0,0.0,-0.9284460544586182,0.1559659242630005
-0.2940078675746918,1.4915306568145752,-0.2739607393741607,-0.0326574184000492,-0.1925539374351501,-0.0315604768693447,0.0,0.0,-0.8145623803138733,0.4386688470840454
-0.2966962456703186,1.4906723499298096,-0.2672570645809173,-0.038353394716978,-0.194139301776886,-0.0317071601748466,0.0,0.0,-0.9510021805763244,-0.4527159929275512
-0.2993170619010925,1.4896860122680664,-0.2605058848857879,-0.0440493747591972,-0.1957318037748336,-0.031850378960371,0.0,0.0,-0.8991095423698425,-0.2588403224945068
-0.3018701076507568,1.4885715246200562,-0.2537112534046173,-0.0497453548014164,-0.1973313391208648,-0.0319907888770103,0.0,0.0,-0.948824405670166,-0.0808153748512268
-0.3043548166751861,1.4873290061950684,-0.2468769997358322,-0.0554413348436355,-0.19893778860569,-0.0321289002895355,0.0,0.0,-0.8853767514228821,-0.5667940974235535
-0.3068080544471741,1.485972285270691,-0.2446897327899933,-0.0603783093392849,-0.1995749473571777,-0.0127432998269796,0.0,0.0,-0.954634130001068,-0.1880956292152404
-0.3091922700405121,1.484487533569336,-0.2377862930297851,-0.0660741180181503,-0.2002189010381698,-0.0128790345042943,0.0,0.0,-0.9443998336791992,-0.3445736765861511
-0.3115072846412658,1.4828747510910034,-0.2308526933193206,-0.0717699155211448,-0.2008696347475052,-0.0130146043375134,0.0,0.0,-0.8960202932357788,-0.3426380157470703
-0.3137527108192444,1.4811338186264038,-0.2238917350769043,-0.0774657279253006,-0.2015271782875061,-0.0131507944315671,0.0,0.0,-0.927007496356964,0.092505931854248
-0.3159283101558685,1.479264736175537,-0.2169057577848434,-0.0831615477800369,-0.2021915912628173,-0.0132882175967097,0.0,0.0,-0.7370009422302246,-0.3558783531188965
-0.3180339932441711,1.477267503738403,-0.2098969966173172,-0.0888573676347732,-0.2028629779815673,-0.013427622616291,0.0,0.0,-0.7464151382446289,0.216278076171875
-0.3200693726539612,1.4751421213150024,-0.2028675079345703,-0.0945531874895095,-0.2035414725542068,-0.0135697619989514,0.0,0.0,-0.7536396384239197,-0.3013966679573059
-0.3220342993736267,1.472888469696045,-0.1958191394805908,-0.1002490147948265,-0.2042272388935089,-0.0137152476236224,0.0,0.0,-0.921432375907898,-0.7065468430519104
-0.3239694535732269,1.470525145530701,-0.1938961446285247,-0.1049856171011924,-0.2038384228944778,0.0077764042653143,0.0,0.0,-0.7813818454742432,0.2856189012527466
-0.325833797454834,1.4680336713790894,-0.1868151426315307,-0.1106814220547676,-0.2034573405981063,0.0076217181049287,0.0,0.0,-0.8533936738967896,0.2592724561691284
-0.3276273310184479,1.4654139280319214,-0.1797201037406921,-0.1163772270083427,-0.2030842751264572,0.007461326662451,0.0,0.0,-0.6297932863235474,-0.4297817945480346
-0.3293498158454895,1.4626662731170654,-0.1726123690605163,-0.1220730394124984,-0.2027195543050766,0.0072944276034832,0.0,0.0,-0.779419481754303,-0.4111732244491577
-0.3310011923313141,1.4597903490066528,-0.1654932200908661,-0.1277688592672348,-0.2023635506629943,0.0071201855316758,0.0,0.0,-0.869314968585968,-0.1883944272994995
-0.3325813412666321,1.4567863941192627,-0.1583638340234756,-0.1334646791219711,-0.2020166367292404,0.006938349455595,0.0,0.0,-0.7758128643035889,-0.2801573276519775
-0.3340902328491211,1.4536542892456057,-0.1512252986431121,-0.1391605287790298,-0.2016792595386505,0.0067475140094757,0.0,0.0,-0.771305501461029,0.4208881855010986
-0.3355277478694916,1.4503940343856812,-0.1440786868333816,-0.1448563635349273,-0.2013518959283828,0.0065473890863358,0.0,0.0,-0.6298519968986511,-0.2556132078170776
-0.3368938565254211,1.4470055103302002,-0.1369249373674392,-0.150552213191986,-0.2010350376367569,0.0063371369615197,0.0,0.0,-0.7471333742141724,-0.2810408473014831
-0.3381884694099426,0.0,-0.1297649592161178,-0.156248077750206,-0.2007292360067367,0.0061161606572568,0.0,0.0,-0.6391608119010925,-0.1295063495635986
-0.3394115567207336,1.439844250679016,-0.1225996613502502,-0.1619439423084259,-0.2004350423812866,0.0058837323449552,0.0,0.0,-0.299915075302124,-0.2419099807739257
-0.3405629992485046,0.0,-0.1154298558831214,-0.1676398068666458,-0.2001530826091766,0.0056391567923128,0.0,0.0,0.072282075881958,-0.4186004400253296
-0.3414927124977112,1.4328043460845947,-0.0935223624110221,-0.1451397538185119,-0.1995913684368133,0.0112341400235891,0.0,0.0,-0.4952719211578369,-0.5907799601554871
-0.3423937261104584,1.4294276237487793,-0.0917830541729927,-0.1498452275991439,-0.197901651263237,0.0337942577898502,0.0,0.0,-0.6461190581321716,-0.5317624807357788
