x_pos,y_pos,x_vel,y_vel,angle,ang_vel,leg_1,leg_2,main_booster,lat_booster
-0.0015126228099688,1.4030855894088743,-0.1530167013406753,-0.3482009768486023,0.0015751626342535,0.0310577154159545,0.0,0.0,-0.1522737741470337,0.4798603057861328
-0.0030162811744958,1.3947352170944214,-0.1517330259084701,-0.3711239397525787,0.0029171265196055,0.0268426090478897,0.0,0.0,-0.3696576356887817,0.778550386428833
-0.0044384957291185,1.3858402967453003,-0.1414808481931686,-0.3953313529491424,0.0021821439731866,-0.0147007750347256,0.0,0.0,0.3062539100646972,0.6700372695922852
-0.0059089660644531,1.376996636390686,-0.1445647627115249,-0.3930520415306091,-0.0002669597743079,-0.0489867366850376,0.0,0.0,0.0218602418899536,0.5493729114532471
-0.0072446824051439,1.368220567703247,-0.1299450397491455,-0.3900451362133026,-0.0038547141011804,-0.0717619657516479,0.0,0.0,-0.222834050655365,0.1729487180709839
-0.0085803987458348,1.3589060306549072,-0.1297354251146316,-0.4139991402626037,-0.0076470146887004,-0.0758530274033546,0.0,0.0,-0.0300872921943664,0.6018810272216797
-0.009872818365693,1.3490523099899292,-0.1240395903587341,-0.4379775822162628,-0.0127931982278823,-0.1029329299926757,0.0,0.0,0.1776758432388305,0.6173107624053955
-0.010996913537383,1.3393505811691284,-0.1059603691101074,-0.4312593340873718,-0.01916497759521,-0.1274472624063491,0.0,0.0,-0.111676275730133,-0.4916023015975952
-0.0121279712766408,1.3291103839874268,-0.1064517125487327,-0.4552186727523803,-0.0257472023367881,-0.1316562592983245,0.0,0.0,0.2481626272201538,0.4117394685745239
-0.0132549284026026,1.319154977798462,-0.1058238372206687,-0.4425962269306183,-0.032544557005167,-0.1359596848487854,0.0,0.0,0.2933295965194702,-0.1090070605278015
-0.0143110277131199,1.309355616569519,-0.0988528877496719,-0.4356892704963684,-0.0392354987561702,-0.1338309794664383,0.0,0.0,-0.5135975480079651,0.1497989892959594
-0.0153814312070608,1.299018144607544,-0.1000561490654945,-0.4596465229988098,-0.0461415648460388,-0.1381339877843856,0.0,0.0,-0.8493655323982239,-0.5439021587371826
-0.0165018085390329,1.2881475687026978,-0.105696752667427,-0.4833461046218872,-0.0524171739816665,-0.1255235821008682,0.0,0.0,0.6020165681838989,-0.7335400581359863
-0.0176074989140033,1.277246356010437,-0.105633869767189,-0.48467618227005,-0.0573064796626567,-0.097795195877552,0.0,0.0,-0.149088442325592,-0.870098352432251
-0.0187865253537893,1.2658201456069946,-0.1140854582190513,-0.5079829096794128,-0.0610893182456493,-0.0756634101271629,0.0,0.0,0.1782417297363281,0.2028634548187255
-0.0198980327695608,1.2541656494140625,-0.1074816212058067,-0.5181307196617126,-0.0647233054041862,-0.0726864784955978,0.0,0.0,-0.0356156229972839,-0.8938409686088562
-0.021088982000947,1.241988182067871,-0.1165913566946983,-0.541330873966217,-0.0672043487429618,-0.0496246851980686,0.0,0.0,0.1171607971191406,-0.8852519989013672
-0.0222481731325387,1.2296395301818848,-0.1150025352835655,-0.5488744378089905,-0.0681122839450836,-0.0181605704128742,0.0,0.0,-0.4583368301391601,-0.3033413887023926
-0.0234371181577444,1.216752052307129,-0.1177631616592407,-0.5728296041488647,-0.0692411065101623,-0.0225785356014966,0.0,0.0,0.3054126501083374,-0.4140372276306152
-0.0246906280517578,1.2040019035339355,-0.1236798167228698,-0.5667587518692017,-0.0708876028656959,-0.0329330712556839,0.0,0.0,0.0010952949523925,-0.7642055153846741
-0.0259154327213764,1.191396713256836,-0.122176244854927,-0.5602380633354187,-0.0711938887834549,-0.0061262315139174,0.0,0.0,0.0327850580215454,-0.5086015462875366
-0.0271883010864257,1.1786673069000244,-0.127783715724945,-0.5657263994216919,-0.0706960186362266,0.009958442300558,0.0,0.0,-0.6645325422286987,-0.363909900188446
-0.0284982677549123,1.1653993129730225,-0.1312813460826873,-0.589678943157196,-0.0704185962677002,0.0055486718192696,0.0,0.0,0.6511971950531006,-0.0173649787902832
-0.0297554973512887,1.1520519256591797,-0.1261069178581237,-0.5931950211524963,-0.0700370296835899,0.0076320604421198,0.0,0.0,-0.176494300365448,-0.2329165935516357
-0.0310530662536621,1.1381659507751465,-0.1299224495887756,-0.6171507239341736,-0.0698757395148277,0.0032262206077575,0.0,0.0,0.2560255527496338,0.1152189970016479
-0.0324666015803813,1.1245323419570925,-0.1407797485589981,-0.6059631109237671,-0.0704465508460998,-0.0114164194092154,0.0,0.0,-0.3955328464508056,0.6946818828582764
-0.0338679328560829,1.110358715057373,-0.1379332393407821,-0.6300468444824219,-0.0726279765367508,-0.0436283983290195,0.0,0.0,0.2409255504608154,-0.7235843539237976
-0.0354358665645122,1.0965994596481323,-0.1556778252124786,-0.6115725636482239,-0.0737276226282119,-0.0219932366162538,0.0,0.0,0.2972288131713867,-0.4244080185890198
-0.0371068939566612,1.0832228660583496,-0.1652869880199432,-0.5946069359779358,-0.0755209103226661,-0.0358655452728271,0.0,0.0,-0.9380649328231812,-0.0886973738670349
-0.0388247482478618,1.069307565689087,-0.1697532832622528,-0.6185573935508728,-0.0775337666273117,-0.0402572490274906,0.0,0.0,-0.95760977268219,-0.1476861238479614
-0.0405905731022357,1.0548536777496338,-0.1743271052837371,-0.6425080895423889,-0.0797661393880844,-0.0446474775671958,0.0,0.0,-0.4185410737991333,-0.8139716386795044
-0.0424780845642089,1.0398653745651243,-0.1881240606307983,-0.6661845445632935,-0.0803885757923126,-0.0124489106237888,0.0,0.0,-0.361510157585144,-0.2559008598327636
-0.0444154739379882,1.0243383646011353,-0.1928920149803161,-0.6901349425315857,-0.0812303647398948,-0.0168356541544199,0.0,0.0,-0.5160911083221436,-0.4328983426094055
-0.04640369489789,1.008272647857666,-0.1977472305297851,-0.7140854597091675,-0.0822913497686386,-0.0212198905646801,0.0,0.0,0.0851293802261352,-0.4982597827911377
-0.0483988747000694,0.992283046245575,-0.1982811987400055,-0.7107205986976624,-0.0835220366716384,-0.0246132723987102,0.0,0.0,0.1499398946762085,0.0464822053909301
-0.0503898635506629,0.9765400886535645,-0.1976973712444305,-0.6997646689414978,-0.0849130824208259,-0.0278211627155542,0.0,0.0,-0.5989230275154114,-0.5836554765701294
-0.0524821281433105,0.9602617621421814,-0.2088222801685333,-0.7235056757926941,-0.0853103622794151,-0.0079455310478806,0.0,0.0,0.0789120197296142,-0.7892464995384216
-0.0546188354492187,0.944197952747345,-0.2146515101194381,-0.7138856649398804,-0.084336370229721,0.0194799415767192,0.0,0.0,0.3883397579193115,-0.1731162071228027
-0.0567831024527549,0.9286581873893738,-0.2170322239398956,-0.6906229257583618,-0.0837337225675582,0.0120532903820276,0.0,0.0,-0.9569969177246094,-0.6642374396324158
-0.0590519905090332,0.9125868082046508,-0.2285539805889129,-0.714185357093811,-0.08208779245615,0.0329187996685504,0.0,0.0,0.1193842887878418,-0.5628854632377625
-0.0614571571350097,0.8967857956886292,-0.2429450005292892,-0.7021378874778748,-0.0796729028224945,0.0482977591454982,0.0,0.0,-0.8840608596801758,0.473966121673584
-0.0639180168509483,0.8804460763931274,-0.2483064234256744,-0.7260886430740356,-0.0774755775928497,0.0439462140202522,0.0,0.0,-0.6916064023971558,-0.0841099619865417
-0.0664351433515548,0.8635678887367249,-0.2537117004394531,-0.7500393390655518,-0.075495533645153,0.0396010242402553,0.0,0.0,-0.0086902379989624,0.7129421234130859
-0.0689435005187988,0.8461422324180603,-0.2509414553642273,-0.7744693160057068,-0.0753867626190185,0.002175165573135,0.0,0.0,0.4053361415863037,0.3595825433731079
-0.0715244263410568,0.8285567164421082,-0.2578230798244476,-0.7816014885902405,-0.0756544768810272,-0.0053545860573649,0.0,0.0,-0.0168318152427673,0.5188398361206055
-0.07411889731884,0.8104221224784851,-0.2578378319740295,-0.8060656189918518,-0.0772519260644912,-0.0319488383829593,0.0,0.0,0.2830183506011963,0.6854397058486938
-0.0766376480460167,0.7922517657279968,-0.2487512379884719,-0.8077329397201538,-0.0803504511713981,-0.0619705319404602,0.0,0.0,-0.0176023244857788,0.5229408740997314
-0.0791806206107139,0.7735446691513062,-0.2500897645950317,-0.8316613435745239,-0.0845098495483398,-0.0831881463527679,0.0,0.0,0.0146327018737792,0.2661798000335693
-0.0818219184875488,0.7550329566001892,-0.2593465745449066,-0.8230230212211609,-0.0892608761787414,-0.0950203984975814,0.0,0.0,0.2612863779067993,0.6806583404541016
-0.084451675415039,0.7365564703941345,-0.2565639615058899,-0.8215743899345398,-0.0956101045012474,-0.1269847005605697,0.0,0.0,0.3102970123291015,0.4856352806091308
-0.0869834870100021,0.7182018756866455,-0.2470984160900116,-0.8161634206771851,-0.1016466096043586,-0.1207300052046775,0.0,0.0,0.6489818096160889,0.1049634218215942
-0.0895566940307617,0.7004151940345764,-0.2507584393024444,-0.7909803986549377,-0.1081618070602417,-0.1303040534257888,0.0,0.0,0.2172815799713134,0.2615300416946411
-0.0920735374093055,0.6825659871101379,-0.245282381772995,-0.7937778234481812,-0.1145165339112281,-0.1270946562290191,0.0,0.0,0.914259910583496,0.2077779769897461
-0.0945402160286903,0.665555477142334,-0.2400786429643631,-0.7565461993217468,-0.121065504848957,-0.1309793889522552,0.0,0.0,0.003259539604187,0.4853799343109131
-0.0969407111406326,0.6484314203262329,-0.2336678802967071,-0.7616011500358582,-0.1274064183235168,-0.1268185526132583,0.0,0.0,0.4739142656326294,-0.2833631634712219
-0.0994317084550857,0.6314110159873962,-0.2421261519193649,-0.7570701837539673,-0.1343512833118438,-0.1388974785804748,0.0,0.0,-0.0044862627983093,-0.2246695756912231
-0.1019823104143142,0.6138527989387512,-0.2478814423084259,-0.7810255289077759,-0.1415047645568847,-0.1430692970752716,0.0,0.0,0.9487879276275636,0.0601522922515869
-0.10431919246912,0.5969038009643555,-0.227065771818161,-0.7539339661598206,-0.1481127142906189,-0.1321588605642318,0.0,0.0,0.9114413261413574,-0.6257947683334351
-0.1065320000052452,0.5808268189430237,-0.2159552872180938,-0.7150725722312927,-0.1534274369478225,-0.1062945872545242,0.0,0.0,0.5291464328765869,0.3730270862579345
-0.1087632179260253,0.5653061270713806,-0.2172660082578659,-0.6904255747795105,-0.1592732965946197,-0.1169172972440719,0.0,0.0,-0.640355110168457,0.1379365921020507
-0.1110543236136436,0.5492473244667053,-0.2230630666017532,-0.714380145072937,-0.1653228104114532,-0.1209902018308639,0.0,0.0,0.360673189163208,-0.0652010440826416
-0.1133918762207031,0.5335258841514587,-0.2271234989166259,-0.6994841694831848,-0.1719564348459243,-0.1326729357242584,0.0,0.0,0.230499267578125,0.17319917678833
-0.1156328171491622,0.517812192440033,-0.2177049368619918,-0.699139416217804,-0.178365021944046,-0.1281718015670776,0.0,0.0,-0.2106021642684936,0.1037209033966064
-0.1179338470101356,0.5015607476234436,-0.2235234230756759,-0.7230947017669678,-0.1849723011255264,-0.1321453750133514,0.0,0.0,0.2227981090545654,-0.2152110338211059
-0.1202348694205284,0.4852072596549988,-0.2233474552631378,-0.727676510810852,-0.1917495131492614,-0.135544404387474,0.0,0.0,0.5488247871398926,-0.3413363695144653
-0.1226041764020919,0.4691652059555053,-0.229473739862442,-0.7139664888381958,-0.1992581784725189,-0.1501737087965011,0.0,0.0,-0.0841591954231262,-0.0505111813545227
-0.1250336617231369,0.4525855183601379,-0.2353064119815826,-0.737923264503479,-0.2069591879844665,-0.1540202349424362,0.0,0.0,0.328324556350708,-0.5793171525001526
-0.1274499893188476,0.4357984066009521,-0.2351114004850387,-0.7470217943191528,-0.2135437130928039,-0.1316908299922943,0.0,0.0,0.9099524021148682,-0.0561810135841369
-0.1296868324279785,0.4199103415012359,-0.2171204090118408,-0.7071000933647156,-0.2201708257198333,-0.1325423121452331,0.0,0.0,0.5194336175918579,0.2237313985824585
-0.1319730728864669,0.4041501879692077,-0.2215010821819305,-0.701533317565918,-0.2273825407028198,-0.1442343592643737,0.0,0.0,0.9238288402557372,0.0869166851043701
-0.1342457830905914,0.3890407681465149,-0.2194942235946655,-0.6727468371391296,-0.2352699488401413,-0.1577483564615249,0.0,0.0,0.0412651300430297,0.6757060289382935
-0.1364134848117828,0.3739410638809204,-0.2075134813785553,-0.6726042032241821,-0.2446769177913665,-0.1881391704082489,0.0,0.0,0.1907788515090942,-0.1981346607208252
-0.1385836601257324,0.3592239618301391,-0.2071938216686248,-0.6557638049125671,-0.2546872496604919,-0.2002068758010864,0.0,0.0,0.7513893842697144,-0.9555712342262268
-0.1406481713056564,0.3448536992073059,-0.1984897404909134,-0.6400776505470276,-0.2628108561038971,-0.1624721139669418,0.0,0.0,0.7513012886047363,-0.0821390748023986
-0.1426993310451507,0.3305605351924896,-0.1968455612659454,-0.6367570757865906,-0.2712653279304504,-0.1690900176763534,0.0,0.0,0.7655959129333496,-0.8348138332366943
-0.1447049081325531,0.3162176609039306,-0.1939423531293869,-0.6387045979499817,-0.278052270412445,-0.1357386112213134,0.0,0.0,0.9731335639953612,-0.9123063683509828
-0.146769717335701,0.3019596040248871,-0.2014419138431549,-0.634659469127655,-0.2832309007644653,-0.1035731062293052,0.0,0.0,0.997367262840271,-0.777083158493042
-0.1486942321062088,0.288581520318985,-0.1887773871421814,-0.595294713973999,-0.2870008051395416,-0.075398102402687,0.0,0.0,0.9964919090270996,-0.5745604634284973
-0.1503428518772125,0.2760646343231201,-0.162486046552658,-0.5567777156829834,-0.2894504368305206,-0.0489929281175136,0.0,0.0,0.994576930999756,-0.8111027479171753
-0.1519701927900314,0.2645261883735657,-0.1615163832902908,-0.5130611062049866,-0.290702074766159,-0.0250329785048961,0.0,0.0,0.997360348701477,0.1119080781936645
-0.1536918580532074,0.2530921697616577,-0.1701284945011139,-0.5085888504981995,-0.2928085327148437,-0.0421285517513752,0.0,0.0,0.9663074016571044,-0.4492177963256836
-0.1551551818847656,0.2424502521753311,-0.1443871706724167,-0.4733705818653106,-0.2948167622089386,-0.0401647500693798,0.0,0.0,0.9545977115631104,0.0188498497009277
-0.1565943658351898,0.2322994023561477,-0.1413247883319854,-0.4516768157482147,-0.2974956035614013,-0.0535767786204814,0.0,0.0,0.979777216911316,-0.5134495496749878
-0.1579588949680328,0.2228253483772277,-0.1345588117837906,-0.4214559495449066,-0.2994446158409118,-0.0389809422194957,0.0,0.0,0.9948480129241944,-0.2816683053970337
-0.1591466963291168,0.2140294164419174,-0.1167336702346801,-0.3913540542125702,-0.3015594780445099,-0.0422969609498977,0.0,0.0,0.8588902950286865,-0.2659447193145752
-0.160104751586914,0.2055888324975967,-0.0941158682107925,-0.3754862546920776,-0.3033101558685303,-0.0350135937333107,0.0,0.0,0.9525433778762816,-0.847479522228241
-0.1610364019870758,0.1971971541643142,-0.0931102782487869,-0.3729747235774994,-0.303362637758255,-0.0010497578186914,0.0,0.0,0.849592924118042,-0.6373595595359802
-0.1618336737155914,0.1888802349567413,-0.0811274573206901,-0.3693495392799377,-0.3019115924835205,0.0290207006037235,0.0,0.0,0.5239157676696777,-0.8948938846588135
-0.1624531745910644,0.1807421296834945,-0.0652426704764366,-0.3610160052776336,-0.2985155582427978,0.0679205432534217,0.0,0.0,0.7104446887969971,-0.9209652543067932
-0.1629266738891601,0.1726051717996597,-0.052634447813034,-0.3605691790580749,-0.2930668890476227,0.1089735031127929,0.0,0.0,0.5765073299407959,-0.8444932103157043
-0.163318246603012,0.1649967730045318,-0.0460763685405254,-0.3367758095264435,-0.2859402596950531,0.1425332874059677,0.0,0.0,0.2386908531188964,-0.7482646107673645
-0.1636362075805664,0.1576880812644958,-0.0402190089225769,-0.323201835155487,-0.2772830724716186,0.1731439679861068,0.0,0.0,-0.2437490224838256,-0.4856696128845215
-0.1640104353427887,0.1498415023088455,-0.0458424165844917,-0.3471570611000061,-0.2686368525028229,0.1729243546724319,0.0,0.0,0.6060340404510498,0.0928022861480712
-0.1642616242170334,0.141877070069313,-0.0340047404170036,-0.3523692488670349,-0.2595353424549103,0.1820303499698639,0.0,0.0,0.7471941709518433,-0.0878268480300903
-0.1644835472106933,0.1341768354177475,-0.0308661945164203,-0.3407185971736908,-0.2506760656833648,0.1771851330995559,0.0,0.0,0.3798558712005615,-0.0842945575714111
-0.1645129173994064,0.1269595474004745,-0.0119922431185841,-0.3192498981952667,-0.2414618730545044,0.184283435344696,0.0,0.0,0.8507673740386963,-0.5061278343200684
-0.1645097732543945,0.1201571822166442,-0.00972849316895,-0.3007125854492187,-0.2312663197517395,0.2039112746715545,0.0,0.0,0.6741399765014648,-0.1097249388694763
-0.1644983291625976,0.1140373796224594,-0.0084004690870642,-0.2705233693122864,-0.221599668264389,0.1933331340551376,0.0,0.0,0.5370864868164062,-0.1941197514533996
-0.1643183678388595,0.1083030998706817,0.0079944068565964,-0.253384917974472,-0.2114908844232559,0.2021754533052444,0.0,0.0,0.2790158987045288,-0.0112322568893432
-0.1641096174716949,0.1028959825634956,0.0109691005200147,-0.2389290481805801,-0.2014932483434677,0.1999525129795074,0.0,0.0,0.4667065143585205,0.09232759475708
-0.1638915985822677,0.0979499891400337,0.0121134836226701,-0.2185306549072265,-0.1917420178651809,0.1950246095657348,0.0,0.0,0.0573196411132812,-0.6194840669631958
-0.1637298613786697,0.0929527133703231,0.0051400270313024,-0.2207127213478088,-0.1806649565696716,0.221541479229927,0.0,0.0,0.6736019849777222,0.5542364120483398
-0.163590520620346,0.0883395969867706,0.0042023970745503,-0.2038748413324356,-0.1709124594926834,0.1950503438711166,0.0,0.0,0.3835340738296509,-0.3732961416244507
-0.1635503768920898,0.0838688910007476,-0.0052779065445065,-0.1976539939641952,-0.1616131216287613,0.1859867423772812,0.0,0.0,0.4221360683441162,-0.2296847105026245
-0.1633693724870681,0.0797540247440338,0.0082282973453402,-0.1818397492170334,-0.1517510414123535,0.197241872549057,0.0,0.0,0.3701815605163574,0.6274549961090088
-0.163086324930191,0.0755255818367004,0.0194401852786541,-0.1870505213737487,-0.1428880095481872,0.177260547876358,0.0,0.0,0.4796441793441772,0.861943244934082
-0.1625395715236663,0.0717341527342796,0.047158408910036,-0.1678063869476318,-0.1353970468044281,0.1498191952705383,0.0,0.0,0.0514377355575561,0.1168223619461059
-0.1619862616062164,0.0681412816047668,0.0477072447538375,-0.159009963274002,-0.1278018504381179,0.1519037187099456,0.0,0.0,-0.0817435383796691,0.4767947196960449
-0.1614773720502853,0.0640100315213203,0.0430745221674442,-0.1829617917537689,-0.1200260668992996,0.1555156111717224,0.0,0.0,0.0217777490615844,0.2334729433059692
-0.1609217673540115,0.0598658435046672,0.0473212972283363,-0.1835471540689468,-0.1118430346250534,0.1636606901884079,0.0,0.0,0.4869594573974609,0.2959238290786743
-0.1603323966264724,0.0562798343598842,0.0505305118858814,-0.1587703377008438,-0.1034932062029838,0.1669963747262954,0.0,0.0,0.5060501098632812,0.6956396102905273
-0.1595933884382248,0.0532148219645023,0.0665601044893264,-0.1357333809137344,-0.0962082892656326,0.1456979811191558,0.0,0.0,0.1069890260696411,0.3901365995407104
-0.1588097512722015,0.0500622615218162,0.0705505609512329,-0.1396294087171554,-0.0884630605578422,0.1549045741558075,0.0,0.0,0.3923404216766357,0.5732462406158447
-0.1580836325883865,0.0471596829593181,0.0659758895635604,-0.1286240518093109,-0.0818880870938301,0.1314996778964996,0.0,0.0,0.2379142045974731,0.7220975160598755
-0.1574122458696365,0.0442995876073837,0.0618692152202129,-0.1268396824598312,-0.0766684636473655,0.1043924912810325,0.0,0.0,0.4142452478408813,0.9317777156829834
-0.1566845923662185,0.0416156612336635,0.0691600888967514,-0.1191033273935318,-0.0730969011783599,0.0714314579963684,0.0,0.0,0.368635892868042,0.5836257934570312
-0.1558862626552581,0.0390452481806278,0.077114388346672,-0.1141118556261062,-0.07040736079216,0.0537908859550952,0.0,0.0,0.2348121404647827,0.9121465682983398
-0.1549133360385894,0.036310039460659,0.096116229891777,-0.121509313583374,-0.0692436844110488,0.0232735238969326,0.0,0.0,0.1627054214477539,0.5071544647216797
-0.1538186073303222,0.0337462052702903,0.1089216023683548,-0.1139243394136428,-0.068697266280651,0.0109282135963439,0.0,0.0,0.0372012853622436,0.2209764719009399
-0.1526974737644195,0.0313994511961936,0.111243151128292,-0.1042601093649864,-0.0678371787071228,0.0172019191086292,0.0,0.0,0.0210698843002319,-0.138761818408966
