x_pos,y_pos,x_vel,y_vel,angle,ang_vel,leg_1,leg_2,main_booster,lat_booster
-0.0015214920276775,1.4035356044769287,-0.1540628671646118,-0.3281995058059692,0.0017162536969408,0.0338513292372226,0.0,0.0,-0.3887401223182678,0.9179747104644777
-0.0029590607155114,1.3960812091827393,-0.1433826237916946,-0.3313082456588745,0.0013435531873255,-0.0074541815556585,0.0,0.0,-0.2152776718139648,0.2750126123428345
-0.0043873786926269,1.3885374069213867,-0.1423563808202743,-0.3352808058261871,0.0008771863649599,-0.00932805147022,0.0,0.0,-0.0013149976730346,0.6565465927124023
-0.005761242005974,1.380902647972107,-0.1357504874467849,-0.3393254578113556,-0.0007450755801983,-0.0324482098221778,0.0,0.0,0.0975526571273803,0.6754393577575684
-0.0069679259322583,1.373830795288086,-0.1176785379648208,-0.3143080174922943,-0.003709967713803,-0.0593032240867614,0.0,0.0,0.4619805812835693,0.3547060489654541
-0.0080310823395848,1.367390275001526,-0.1037506684660911,-0.2862522304058075,-0.0062435739673674,-0.0506767407059669,0.0,0.0,-0.8239175081253052,-0.2599587440490722
-0.0090700145810842,1.36086106300354,-0.1011693105101585,-0.2902050614356994,-0.0089449472725391,-0.0540324635803699,0.0,0.0,-0.61525958776474,-0.7204862236976624
-0.0101238247007131,1.3542457818984983,-0.1035449132323265,-0.2940265536308288,-0.0107567831873893,-0.0362397581338882,0.0,0.0,-0.6627804636955261,0.67464280128479
-0.0110938074067235,1.3475481271743774,-0.0936381816864013,-0.2976968586444855,-0.0140791609883308,-0.0664540603756904,0.0,0.0,-0.7245104908943176,-0.2239946722984314
-0.0120281223207712,1.34076189994812,-0.0898671597242355,-0.3016470074653625,-0.0176174528896808,-0.0707720667123794,0.0,0.0,-0.770837664604187,-0.2379491329193115
-0.012923240661621,1.3338871002197266,-0.0857009217143058,-0.3055972158908844,-0.021388117223978,-0.0754197165369987,0.0,0.0,-0.7299628257751465,0.0566761493682861
-0.0137752536684274,1.3269237279891968,-0.081141211092472,-0.3095476329326629,-0.0254057087004184,-0.0803587883710861,0.0,0.0,-0.8394197821617126,-0.3593608140945434
-0.0145803447812795,1.3198719024658203,-0.0761907920241355,-0.3134983777999878,-0.0296844895929098,-0.0855831354856491,0.0,0.0,-0.9223824143409728,-0.8281027674674988
-0.0153928752988576,1.3127261400222778,-0.0781207829713821,-0.317649096250534,-0.0327845551073551,-0.0620069727301597,0.0,0.0,-0.8641067743301392,0.2721476554870605
-0.0161511413753032,1.305491924285889,-0.0724063664674758,-0.3216000497341156,-0.0361734814941883,-0.0677843242883682,0.0,0.0,-0.9811581373214722,0.0528417825698852
-0.016851520165801,1.2981691360473633,-0.0663156732916832,-0.3255510926246643,-0.0398628637194633,-0.0737942680716514,0.0,0.0,-0.950758159160614,-0.6406065225601196
-0.017529297620058,1.2907675504684448,-0.064725711941719,-0.3290413320064544,-0.0428828634321689,-0.0604053623974323,0.0,0.0,-0.983458697795868,-0.2693642377853393
-0.0181421283632516,1.2832775115966797,-0.057906836271286,-0.3329926431179046,-0.0462275594472885,-0.0668999105691909,0.0,0.0,-0.9315078854560852,-0.7620047926902771
-0.0187369342893362,1.2757095098495483,-0.0570386461913585,-0.3364298641681671,-0.0486362390220165,-0.0481777302920818,0.0,0.0,-0.982402801513672,-0.3584482669830322
-0.019260024651885,1.26805317401886,-0.049524612724781,-0.3403813540935516,-0.0513910204172134,-0.0551005825400352,0.0,0.0,-0.9170635938644408,0.0042884349822998
-0.0197081565856933,1.260308027267456,-0.0416745692491531,-0.3443328142166137,-0.0545008182525634,-0.0622018054127693,0.0,0.0,-0.7066823244094849,-0.1058999300003051
-0.0200781822204589,1.2524747848510742,-0.0334987975656986,-0.3482848703861236,-0.0579750947654247,-0.0694916248321533,0.0,0.0,-0.8055595755577087,-0.8787357211112976
-0.0204216949641704,1.2445564270019531,-0.0318396873772144,-0.3520274758338928,-0.0604515075683593,-0.0495327450335025,0.0,0.0,-0.8714673519134521,-0.2720203399658203
-0.0206809993833303,1.2365496158599854,-0.023047711700201,-0.3559797704219818,-0.0633098408579826,-0.0571719631552696,0.0,0.0,-0.900539219379425,-0.6071447730064392
-0.0209126472473144,1.228461503982544,-0.0213873498141765,-0.3595436513423919,-0.0650630071759224,-0.0350664667785167,0.0,0.0,-0.2411285638809204,0.2072675228118896
-0.0210555084049701,1.2202636003494265,-0.0121148629114031,-0.36444753408432,-0.0672128126025199,-0.0429957844316959,0.0,0.0,-0.8269086480140686,-0.8418160080909729
-0.0211718566715717,1.211989164352417,-0.0107479682192206,-0.3677926361560821,-0.0680983811616897,-0.0177111234515905,0.0,0.0,-0.8363022208213806,-0.6289380788803101
-0.0212536808103323,1.2036389112472534,-0.0084117455407977,-0.3711080253124237,-0.0678661167621612,0.0046450523659586,0.0,0.0,-0.9467655420303344,-0.5521367788314819
-0.0212910659611225,1.195210337638855,-0.0049093877896666,-0.3745539486408233,-0.0667077824473381,0.0231666956096887,0.0,0.0,-0.8946755528450012,-0.0965371131896972
-0.0212288852781057,1.1866934299468994,0.0054639638401567,-0.3785037398338318,-0.0659661963582038,0.0148315606638789,0.0,0.0,-0.844542384147644,-0.5909305810928345
-0.0211098678410053,1.1780990362167358,0.0104189272969961,-0.3819079995155334,-0.0645037293434143,0.0292493943125009,0.0,0.0,-0.8193638324737549,0.0302339792251586
-0.0208870880305767,1.1694161891937256,0.0212321151047945,-0.3858577907085418,-0.0634650439023971,0.0207736194133758,0.0,0.0,-0.8757832646369934,0.0541872978210449
-0.0205583572387695,1.1606448888778689,0.0322491042315959,-0.3898075520992279,-0.062852919101715,0.0122425053268671,0.0,0.0,-0.9134625792503356,0.1086641550064086
-0.020121956244111,1.151785135269165,0.043459452688694,-0.393757164478302,-0.0626696273684501,0.0036658141762018,0.0,0.0,-0.8577964305877686,-0.6455193758010864
-0.0196254737675189,1.1428430080413818,0.0486343279480934,-0.3973866999149322,-0.0616664625704288,0.020063305273652,0.0,0.0,-0.7373714447021484,-0.2907156944274902
-0.0190176013857126,1.133812427520752,0.0602011606097221,-0.4013363718986511,-0.0610952824354171,0.0114237712696194,0.0,0.0,-0.7751656770706177,-0.8467588424682617
-0.0183669086545705,1.1246954202651978,0.0631563290953636,-0.4051211476325989,-0.059199035167694,0.0379249304533004,0.0,0.0,-0.924266278743744,-0.5862043499946594
-0.0176448822021484,1.115498423576355,0.0696159750223159,-0.4086556732654571,-0.0566421523690223,0.0511377267539501,0.0,0.0,-0.8576024770736694,-0.5958337783813477
-0.0168567653745412,1.1062238216400146,0.0753787904977798,-0.4120740592479706,-0.0532539337873458,0.0677645951509475,0.0,0.0,-0.9220005869865416,-0.8606186509132385
-0.0160161964595317,1.096867322921753,0.0794175714254379,-0.4156866669654846,-0.0486661195755004,0.0917562395334243,0.0,0.0,-0.8900163173675537,-0.5025696158409119
-0.0151036260649561,1.0874302387237549,0.0858597233891487,-0.4192590117454529,-0.0433322973549366,0.1066765934228897,0.0,0.0,-0.7189338803291321,0.0208470821380615
-0.0140711786225438,1.0779049396514893,0.0982771441340446,-0.4232102632522583,-0.0384291857481002,0.0980623066425323,0.0,0.0,-0.6548820734024048,-0.4428497552871704
-0.012917804531753,1.068291425704956,0.1108080595731735,-0.4271610379219055,-0.0339550860226154,0.0894817858934402,0.0,0.0,-0.6496682167053223,-0.7624414563179016
-0.0116928098723292,1.058590531349182,0.1171231269836425,-0.4310375154018402,-0.0286415908485651,0.1062694415450096,0.0,0.0,-0.8315789103507996,-0.6779438257217407
-0.0104021076112985,1.0487959384918213,0.1226614937186241,-0.4352082908153534,-0.0223140213638544,0.1265515387058258,0.0,0.0,-0.7610788345336914,-0.4632459878921509
-0.0089874267578125,1.0389131307601929,0.1354908645153045,-0.4391597807407379,-0.0164080243557691,0.1181199178099632,0.0,0.0,-0.9619808197021484,-0.6837069392204285
-0.0074963569641113,1.0289396047592163,0.1423026621341705,-0.4432102143764496,-0.0096986861899495,0.1341869831085205,0.0,0.0,-0.851067066192627,-0.9029870629310608
-0.0059643746353685,1.0188889503479004,0.1446668803691864,-0.44666188955307,-0.0012729762820526,0.16851407289505,0.0,0.0,-0.927696168422699,-0.6458812952041626
-0.004368114285171,1.008756399154663,0.1499131321907043,-0.4503552317619324,0.0083092907443642,0.1916452497243881,0.0,0.0,-0.834222674369812,-0.7155174016952515
-0.0027031898498535,0.9985336661338806,0.1557016968727111,-0.4544425308704376,0.0189580228179693,0.2129749953746795,0.0,0.0,-0.6989968419075012,-0.7931048274040222
-0.0009581565973348,0.988222062587738,0.162909984588623,-0.4584841132164001,0.0304066147655248,0.2289715707302093,0.0,0.0,-0.8270360231399536,-0.0331271290779113
0.0009154319996014,0.9778231382369996,0.1761756986379623,-0.4624414145946502,0.0414585396647453,0.2210385054349899,0.0,0.0,-0.8773419857025146,-0.1201550960540771
0.0029182434082031,0.9673367738723756,0.1894964277744293,-0.466397613286972,0.0521192252635955,0.2132136821746826,0.0,0.0,-0.8941531777381897,-0.1032180190086364
0.0050508501008152,0.9567627310752868,0.2028677016496658,-0.4703527987003326,0.0623943991959095,0.2055035829544067,0.0,0.0,-0.913464903831482,-0.8651658296585083
0.0072624208405613,0.9460930824279784,0.2098462134599685,-0.4747203886508941,0.0735868737101554,0.2238494157791137,0.0,0.0,-0.8463428616523743,-0.6607580184936523
0.0095444675534963,0.9353265166282654,0.2157388180494308,-0.4791790246963501,0.0859315693378448,0.2468940317630767,0.0,0.0,-0.7882263660430908,-0.6857266426086426
0.0119116781279444,0.9244729280471802,0.2234767228364944,-0.4831859469413757,0.0990607216954231,0.2625828981399536,0.0,0.0,-0.6843715310096741,-0.5911474227905273
0.014374447055161,0.9135298132896424,0.2324917763471603,-0.4873368442058563,0.1127378717064857,0.2735432982444763,0.0,0.0,-0.7195367813110352,-0.8915382027626038
0.0169070251286029,0.9024986624717712,0.2382827252149582,-0.4914723634719848,0.1276169866323471,0.2975824475288391,0.0,0.0,-0.745332658290863,-0.4698519706726074
0.0195716861635446,0.8913809061050415,0.2518752515316009,-0.4954344630241394,0.1421512514352798,0.2906857132911682,0.0,0.0,-0.604936957359314,-0.7216193079948425
0.0223177913576364,0.8801593780517578,0.259059876203537,-0.5002903342247009,0.1576716154813766,0.3104069232940674,0.0,0.0,-0.4003487825393677,-0.7430212497711182
0.0251284595578908,0.8688397407531738,0.2641571760177612,-0.504984974861145,0.1745954602956771,0.3384771645069122,0.0,0.0,-0.3843140602111816,-0.6570170521736145
0.0280314441770315,0.8574219942092896,0.2727252840995788,-0.509624719619751,0.1922463029623031,0.3530168533325195,0.0,0.0,-0.3837157487869262,-0.8095746040344238
0.0310070998966693,0.8459025025367737,0.2787988483905792,-0.5145243406295776,0.2111457288265228,0.3779883682727813,0.0,0.0,0.0164351463317871,-0.4350500106811523
0.0340687744319438,0.8346611261367798,0.2877645492553711,-0.502355694770813,0.2297637164592743,0.3723593354225158,0.0,0.0,0.1033253669738769,-0.8977489471435547
0.0370101928710937,0.8238544464111328,0.2743223309516907,-0.483510673046112,0.2498857527971267,0.4024411737918854,0.0,0.0,0.2398688793182373,0.5581786632537842
0.039984606206417,0.8139254450798035,0.2790884375572204,-0.4445174634456634,0.2686227858066559,0.374740719795227,0.0,0.0,-0.2829751968383789,0.7256227731704712
0.0431567206978797,0.8039284348487854,0.3008403182029724,-0.4474093317985534,0.2854213118553161,0.335970938205719,0.0,0.0,0.3860386610031128,0.4936606884002685
0.0462824814021587,0.7948855757713318,0.2964509129524231,-0.4051528871059418,0.3020578920841217,0.3327318131923675,0.0,0.0,0.5583778619766235,-0.2002885937690735
0.0493246093392372,0.7863561511039734,0.2887874841690063,-0.3823750913143158,0.3180265128612518,0.3193723559379577,0.0,0.0,0.383242130279541,0.7097601890563965
0.0522943511605262,0.7785361409187317,0.2834057211875915,-0.350593090057373,0.3321613669395447,0.2826970517635345,0.0,0.0,0.3897126913070678,0.5009474754333496
0.0552906021475791,0.7714049220085144,0.2872700989246368,-0.3198439180850982,0.3451002240180969,0.2587765753269195,0.0,0.0,0.6855882406234741,0.464252233505249
0.0580057129263877,0.7653352618217468,0.2599973380565643,-0.2725671231746673,0.3572025597095489,0.2420468628406524,0.0,0.0,0.3208160400390625,0.8925703763961792
0.0608221068978309,0.7598981261253357,0.2720703184604645,-0.2440590560436248,0.3673017024993896,0.2019828557968139,0.0,0.0,0.490919828414917,0.7570056915283203
0.0636712089180946,0.7548748850822449,0.2770821452140808,-0.2252881526947021,0.3755883276462555,0.1657322943210601,0.0,0.0,0.4918776750564575,0.8511922359466553
0.066674992442131,0.7502384781837463,0.2943347096443176,-0.2076685428619384,0.3820193111896515,0.1286199986934662,0.0,0.0,0.7247482538223267,-0.0764865279197692
0.0696499794721603,0.745987594127655,0.2917763888835907,-0.1904740780591964,0.3881071507930755,0.1217565909028053,0.0,0.0,0.5593545436859131,0.3291020393371582
0.0724678039550781,0.7426823973655701,0.2762870192527771,-0.1484098583459854,0.3939771056175232,0.1173989325761795,0.0,0.0,0.9135115146636964,0.4715222120285034
0.0751418098807334,0.7406500577926636,0.2616815865039825,-0.0919291526079177,0.4001036584377289,0.1225312948226928,0.0,0.0,0.9493869543075562,0.8793485164642334
0.0775006264448165,0.7398240566253662,0.2322808504104614,-0.0377267226576805,0.403963178396225,0.077190414071083,0.0,0.0,0.9582881927490234,0.7142074108123779
0.0797391906380653,0.7393788695335388,0.2221431732177734,-0.0202742237597703,0.4058080613613128,0.0368974432349205,0.0,0.0,0.969801902770996,0.7722551822662354
0.0818397551774978,0.7402161955833435,0.2098649442195892,0.0371574200689792,0.4060145914554596,0.0041306084021925,0.0,0.0,0.8243993520736694,0.5831167697906494
0.083753302693367,0.7417958974838257,0.1927130967378616,0.0705977901816368,0.4045622050762176,-0.0290475189685821,0.0,0.0,0.8406217098236084,0.6796634197235107
0.0854886993765831,0.7443227171897888,0.1764654815196991,0.1131352260708808,0.4014157354831695,-0.062929168343544,0.0,0.0,0.3980423212051391,0.3346322774887085
0.0871142372488975,0.7475712895393372,0.1656489670276641,0.1452527344226837,0.3981015384197235,-0.0662839487195015,0.0,0.0,0.2760896682739258,0.4323194026947021
0.0887577980756759,0.7513910531997681,0.1672654002904892,0.1705833524465561,0.3949856758117676,-0.0623169764876365,0.0,0.0,0.0327498912811279,0.6440269947052002
0.0905122756958007,0.755450963973999,0.1796792596578598,0.1816138178110122,0.3904576599597931,-0.0905601233243942,0.0,0.0,-0.134418785572052,0.3152251243591308
0.0923952087759971,0.7594219446182251,0.1926351636648178,0.1776679903268814,0.385831356048584,-0.0925261229276657,0.0,0.0,-0.0445162653923034,0.2054401636123657
0.0944058448076248,0.7633037567138672,0.2054983079433441,0.1737218350172042,0.3811138272285461,-0.0943508595228195,0.0,0.0,0.1946496963500976,0.275105357170105
0.0965307205915451,0.7675501108169556,0.2165722548961639,0.189806118607521,0.3767781555652618,-0.0867143049836158,0.0,0.0,-0.0666478872299194,0.0826019048690795
0.0987813919782638,0.7717074751853943,0.2292242348194122,0.18585966527462,0.3723645806312561,-0.0882711634039878,0.0,0.0,0.168519377708435,0.0491727590560913
0.1009818091988563,0.776537299156189,0.2241821736097335,0.2157352715730667,0.3679807186126709,-0.0876770243048667,0.0,0.0,0.1044992208480835,0.4868829250335693
0.1032228469848632,0.7819474935531616,0.2279481887817382,0.2414319217205047,0.3639165163040161,-0.081284187734127,0.0,0.0,-0.0568168759346008,0.7557095289230347
0.1056525260210037,0.787298321723938,0.2485910207033157,0.2392352372407913,0.3579888939857483,-0.1185520514845848,0.0,0.0,-0.098436951637268,-0.0249306559562683
0.1082027405500412,0.7925605773925781,0.2607003450393677,0.2352867126464843,0.3520070910453796,-0.1196366995573043,0.0,0.0,0.17340087890625,0.2915267944335937
0.1107169166207313,0.7986282706260681,0.2568965852260589,0.2710022330284118,0.3462542295455932,-0.1150568351149559,0.0,0.0,0.6597118377685547,0.8288638591766357
0.1131911277770996,0.8054339289665222,0.2546129524707794,0.3041823208332062,0.3387164771556854,-0.1507559418678283,0.0,0.0,-0.5602051019668579,0.2968040704727173
0.1157804504036903,0.812151312828064,0.2661833465099334,0.3002315759658813,0.3311390876770019,-0.1515478640794754,0.0,0.0,0.4391969442367553,0.4652903079986572
0.1183569878339767,0.8196796774864197,0.264615535736084,0.3361727595329284,0.3238770961761474,-0.1452397406101226,0.0,0.0,-0.6651139259338379,0.7614195346832275
0.1210948973894119,0.8271512389183044,0.2821670174598694,0.3339170515537262,0.3151611983776092,-0.1743178367614746,0.0,0.0,-0.6714152693748474,0.3314236402511596
0.1239411383867263,0.8345348238945007,0.293055385351181,0.3299644291400909,0.3064176738262176,-0.1748702526092529,0.0,0.0,-0.5249586701393127,0.4605703353881836
0.1268932372331619,0.8418304324150085,0.3036791980266571,0.3260115683078766,0.2976499199867248,-0.1753545850515365,0.0,0.0,0.0406339168548584,-0.0900627970695495
0.1297669410705566,0.8495491743087769,0.2962138950824737,0.3448327779769897,0.2885212004184723,-0.1825742274522781,0.0,0.0,0.0229989290237426,0.6864349842071533
0.1325979232788086,0.8576223850250244,0.2934395670890808,0.3608260452747345,0.277898907661438,-0.2124458104372024,0.0,0.0,-0.1601959466934204,-0.1498852968215942
0.1355256140232086,0.8656085133552551,0.3031442761421203,0.3568699955940246,0.2672609686851501,-0.2127589881420135,0.0,0.0,-0.5190994739532471,-0.264551043510437
0.1385463774204254,0.8735070824623108,0.3124962151050567,0.3529137969017029,0.2566096186637878,-0.2130265235900879,0.0,0.0,-0.5640969276428223,-0.4402171969413757
0.1416564881801605,0.8813182711601257,0.321470707654953,0.3489575088024139,0.2459469437599182,-0.2132535725831985,0.0,0.0,-0.8201062679290771,-0.6427577137947083
0.144799992442131,0.889028012752533,0.3235282301902771,0.3441559374332428,0.2366175800561905,-0.1865875422954559,0.0,0.0,-0.7051830887794495,-0.6464092135429382
0.1479856520891189,0.896643340587616,0.3267903923988342,0.3397603631019592,0.2282689660787582,-0.1669722944498062,0.0,0.0,-0.2344958782196045,-0.594430685043335
0.1512080132961273,0.9041568040847778,0.3294519186019897,0.3350318372249603,0.2209597080945968,-0.1461845487356186,0.0,0.0,0.6211360692977905,-0.641747772693634
0.154268741607666,0.912741720676422,0.3120521903038025,0.3824301958084106,0.2149147540330886,-0.1208991631865501,0.0,0.0,0.2993488311767578,0.2795159816741943
0.1573107689619064,0.9221610426902772,0.3099777400493622,0.4194700121879577,0.2090854495763778,-0.1165856719017028,0.0,0.0,-0.3334523439407348,0.3661917448043823
0.160414308309555,0.9314921498298644,0.3161303400993347,0.4155199229717254,0.2032516449689865,-0.1166756898164749,0.0,0.0,-0.7047752737998962,0.0394877195358276
0.1635735481977462,0.9407348036766052,0.3217189311981201,0.4115698635578155,0.1974136084318161,-0.1167606487870216,0.0,0.0,-0.2268394827842712,0.1533020734786987
0.1667826622724533,0.9498891234397888,0.3267179727554321,0.4076197743415832,0.191571295261383,-0.1168460994958877,0.0,0.0,-0.1288930773735046,0.1426100730895996
0.1700355559587478,0.9589551091194152,0.3311032056808471,0.4036696553230285,0.1857244074344635,-0.1169377118349075,0.0,0.0,-0.2473192811012268,0.2516708374023437
0.1733258217573166,0.9679325819015504,0.3348519802093506,0.3997195363044739,0.1798723191022873,-0.1170413717627525,0.0,0.0,-0.2065047025680542,0.1119203567504882
0.1766467988491058,0.9768216013908386,0.3379437923431396,0.3957694470882416,0.1740141659975052,-0.117163136601448,0.0,0.0,0.0463002920150756,0.0279504060745239
0.1799777001142501,0.9862781763076782,0.3386591076850891,0.4209316968917846,0.1684341877698898,-0.1115995198488235,0.0,0.0,-0.2716098427772522,0.5480283498764038
0.1833695471286773,0.9956628680229188,0.3459164798259735,0.4178461134433746,0.1616985499858856,-0.1347124129533767,0.0,0.0,-0.2367509603500366,0.3505449295043945
0.1867714822292328,1.0049593448638916,0.3469411134719848,0.4138951599597931,0.1549521833658218,-0.1349276900291443,0.0,0.0,0.0373774766921997,0.3228129148483276
