x_pos,y_pos,x_vel,y_vel,angle,ang_vel,leg_1,leg_2,main_booster,lat_booster
-0.0015562057960778,1.4035286903381348,-0.1583073437213897,-0.3285079300403595,0.002406406449154,0.047516081482172,0.0,0.0,0.2508115924065519,-0.6735496583858391
-0.0031580924987792,1.3965853452682495,-0.1646012812852859,-0.3086060285568237,0.006779228337109,0.0874655470252037,0.0,0.0,-0.8435889538419905,0.8204775735748916
-0.0047193528153002,1.3895407915115356,-0.1591769456863403,-0.3131127953529358,0.0097964014858007,0.0603489093482494,0.0,0.0,-0.1068808905920679,0.666000099729409
-0.0062792776152491,1.3823989629745483,-0.15861776471138,-0.3174346685409546,0.01239257119596,0.0519282147288322,0.0,0.0,-0.0813523977129584,0.6096244973317826
-0.0078241350129246,1.3751643896102903,-0.156285211443901,-0.3215479552745819,0.0141676850616931,0.0355057381093502,0.0,0.0,0.6308071341838652,0.7687911921761399
-0.0092123029753565,1.36864173412323,-0.1400385648012161,-0.2899096310138702,0.0153734656050801,0.0241178851574659,0.0,0.0,-0.7756684050244576,-0.8850929170181555
-0.0107203479856252,1.3620216846466064,-0.1545256674289703,-0.2942673563957214,0.0190537124872207,0.0736116915941238,0.0,0.0,-0.8043346747728068,0.7301340050986624
-0.0122064594179391,1.355310320854187,-0.151176780462265,-0.2983149290084839,0.0215916112065315,0.0507626757025718,0.0,0.0,-0.0761573469531955,-0.8115078613852551
-0.0138094900175929,1.3485103845596311,-0.1652037799358368,-0.3022996485233307,0.0264379233121871,0.0969349965453147,0.0,0.0,-0.6733963667533691,-0.6634557629492712
-0.0155184743925929,1.341617465019226,-0.1778090894222259,-0.3064922392368316,0.0332723371684551,0.1367008686065673,0.0,0.0,-0.2562469728670882,0.8992679719265129
-0.0172019004821777,1.3346340656280518,-0.1738745272159576,-0.3105011284351349,0.0387472957372665,0.1095093339681625,0.0,0.0,-0.2084061981651812,0.6251253198172517
-0.0188871379941701,1.3275575637817385,-0.1733503490686416,-0.3146418929100036,0.0435215830802917,0.0954944938421249,0.0,0.0,0.4964575094738503,-0.917397046202972
-0.0205971710383892,1.3213446140289309,-0.1785325706005096,-0.2763774991035461,0.0509667433798313,0.1489170491695404,0.0,0.0,0.8830109025605994,0.8272494821211013
-0.0222363471984863,1.3156466484069824,-0.1706605702638626,-0.2534774541854858,0.0576444938778877,0.1335673034191131,0.0,0.0,-0.6605477285224977,0.8387649381569529
-0.0238555911928415,1.3098698854446411,-0.167289912700653,-0.2569647133350372,0.0629612356424331,0.1063441857695579,0.0,0.0,-0.8914748087997773,0.791561127816321
-0.0254631992429494,1.3039958477020264,-0.1649551540613174,-0.2612500786781311,0.0671209171414375,0.0832010805606842,0.0,0.0,0.7366989043764274,0.8734398894524699
-0.0269660949707031,1.2994059324264526,-0.1537211537361145,-0.2041554600000381,0.070527896285057,0.0681456103920936,0.0,0.0,-0.4351063718546686,-0.9146399702372487
-0.0285881999880075,1.294707417488098,-0.1677576005458831,-0.2090989500284195,0.0760294869542121,0.1100416406989097,0.0,0.0,-0.1085471914010713,0.6279484002082237
-0.0302189830690622,1.289926528930664,-0.1678642034530639,-0.2127302587032318,0.0807855278253555,0.0951290875673294,0.0,0.0,0.6964977521588238,0.7805719187874214
-0.0319924354553222,1.2859159708023071,-0.1811095774173736,-0.1784567981958389,0.0845196396112442,0.0746889412403106,0.0,0.0,-0.2936704033635109,0.9201369495457368
-0.0337459556758403,1.2818281650543213,-0.1775893568992614,-0.1818079650402069,0.0867450013756752,0.0445109829306602,0.0,0.0,0.421377600112836,-0.6537468205907393
-0.0356408134102821,1.2782055139541626,-0.1937784254550933,-0.1612612605094909,0.0910088047385215,0.085283987224102,0.0,0.0,-0.7048437222189505,-0.8200797462890647
-0.0376552566885948,1.2744801044464111,-0.2077449113130569,-0.1659681797027588,0.097268670797348,0.1252083480358123,0.0,0.0,-0.6680901601591278,-0.956126527483069
-0.0398051254451274,1.270640254020691,-0.2237161695957183,-0.1712474226951599,0.1059329658746719,0.1733013242483139,0.0,0.0,-0.1365709982364102,-0.8361629283031635
-0.0421070083975791,1.2666964530944824,-0.2416931837797165,-0.1761403828859329,0.1173742786049842,0.228846862912178,0.0,0.0,-0.9222416406825096,-0.7204005475311251
-0.0445488914847373,1.2626299858093262,-0.2582029998302459,-0.1818909049034118,0.1313191205263137,0.2788967490196228,0.0,0.0,-0.8805667614191228,0.8329408632601404
-0.0469969734549522,1.2584896087646484,-0.2578373849391937,-0.185214951634407,0.1443076133728027,0.2597694993019104,0.0,0.0,0.4240114069152452,0.6836548539815754
-0.0496893897652626,1.2553046941757202,-0.2813832759857178,-0.1427709758281707,0.1564217954874038,0.2422837018966674,0.0,0.0,-0.1499095433516548,-0.928953874360871
-0.0525431632995605,1.2520146369934082,-0.3004780411720276,-0.1478772461414337,0.171514630317688,0.3018566071987152,0.0,0.0,-0.3961549870734169,-0.6750162631401307
-0.0555240623652935,1.2486175298690796,-0.3152472376823425,-0.153063029050827,0.1887296140193939,0.3442996144294739,0.0,0.0,-0.7451426543577064,0.8239095293996763
-0.0585135444998741,1.2451579570770264,-0.3150663673877716,-0.1558934152126312,0.2049537152051925,0.3244821429252624,0.0,0.0,0.7328739341964978,0.7518860785223427
-0.0616986267268657,1.242269515991211,-0.333626389503479,-0.1305446326732635,0.2202071696519851,0.305069237947464,0.0,0.0,0.3986717423223798,0.8340157793415033
-0.0651198402047157,1.240286946296692,-0.3561278283596039,-0.0902714505791664,0.2344013154506683,0.2838833332061767,0.0,0.0,-0.7456427958634932,-0.8493242905888915
-0.0686860084533691,1.2381806373596191,-0.3731426894664764,-0.0963359922170639,0.2512147426605224,0.3362687230110168,0.0,0.0,0.9974350385945164,0.7786128355523059
-0.0724349021911621,1.2371186017990112,-0.3905781209468841,-0.0499648824334144,0.2672188878059387,0.3200831711292267,0.0,0.0,-0.2759720466180722,-0.7005471093710904
-0.076311208307743,1.2359510660171509,-0.4052602648735046,-0.0552201867103576,0.2853103280067444,0.36182901263237,0.0,0.0,-0.5265691004495343,-0.7594651336026823
-0.0803215056657791,1.234665036201477,-0.4208273291587829,-0.0611626245081424,0.305729329586029,0.4083797335624695,0.0,0.0,0.9321317770787072,-0.6977603696667346
-0.0846828445792198,1.2345672845840454,-0.4579545855522156,-0.009098295122385,0.3283922970294952,0.4532590806484222,0.0,0.0,0.6658198059955835,-0.8293298382888588
-0.0894993767142295,1.235546350479126,-0.5055145025253296,0.0378855057060718,0.3533772826194763,0.4996994435787201,0.0,0.0,0.9823764226951028,-0.8455225634910419
-0.0946724861860275,1.2374534606933594,-0.5433229207992554,0.0781239494681358,0.3808790743350982,0.5500357151031494,0.0,0.0,0.7964270532894939,-0.8965304406260888
-0.1004238128662109,1.2403535842895508,-0.6030367016792297,0.1211545392870903,0.4107151329517364,0.5967209339141846,0.0,0.0,-0.900953471660614,0.9978421926498412
-0.106165125966072,1.2432262897491455,-0.6000438332557678,0.1198956444859504,0.4387644231319427,0.5609863996505737,0.0,0.0,-0.8875085115432739,0.9995834827423096
-0.1118977516889572,1.246064066886902,-0.5972951650619507,0.1183781549334526,0.4651098251342773,0.5269089341163635,0.0,0.0,-0.8933334946632385,0.9978930950164796
-0.1176251396536827,1.2488772869110107,-0.5948966145515442,0.1174186393618583,0.4897199869155884,0.4922040402889251,0.0,0.0,-0.9693463444709778,0.9956943988800048
-0.1233609169721603,1.2516467571258545,-0.5943519473075867,0.1155220791697502,0.5130866765975952,0.4673334062099457,0.0,0.0,-0.9175168871879578,0.9993746280670166
-0.1290960311889648,1.25438392162323,-0.5926459431648254,0.1143033951520919,0.5348833799362183,0.4359353184700012,0.0,0.0,-0.937639057636261,0.9952772855758668
-0.1348313391208648,1.2570956945419312,-0.5909994840621948,0.1134803369641304,0.5550450682640076,0.40323406457901,0.0,0.0,-0.9854165315628052,0.9991083145141602
-0.1405917108058929,1.259779930114746,-0.5923901200294495,0.11241165548563,0.5741363167762756,0.3818255364894867,0.0,0.0,-0.7441766858100891,0.994213342666626
-0.1463794708251953,1.2624335289001465,-0.5940799713134766,0.111220009624958,0.5922286510467529,0.3618466258049011,0.0,0.0,-0.9299107789993286,0.9893171787261964
-0.1521786749362945,1.2650593519210815,-0.5939028263092041,0.1103390976786613,0.6089438796043396,0.3343033194541931,0.0,0.0,-0.992073893547058,0.9955430030822754
-0.1579728126525879,1.2676793336868286,-0.5915965437889099,0.1107000857591629,0.6236638426780701,0.2943989932537079,0.0,0.0,-0.9826849102973938,0.9903931617736816
-0.1637863218784332,1.27027690410614,-0.5923365950584412,0.1101068258285522,0.6370931267738342,0.2685859799385071,0.0,0.0,-0.9630757570266724,0.9968782663345336
-0.1695962846279144,1.2728625535964966,-0.5903628468513489,0.1102564856410026,0.6486276388168335,0.2306900024414062,0.0,0.0,-0.9861393570899964,0.9979126453399658
-0.175419807434082,1.2754366397857666,-0.5903888940811157,0.1103075221180915,0.6586098074913025,0.1996418684720993,0.0,0.0,-0.9749782681465148,0.9979493618011476
-0.1812365502119064,1.278006672859192,-0.5879915952682495,0.1109357774257659,0.666522741317749,0.1582586616277694,0.0,0.0,-0.998949408531189,0.9861783981323242
-0.1870710402727127,1.2805429697036743,-0.5888125896453857,0.1098934412002563,0.6732652187347412,0.1348496526479721,0.0,0.0,-0.972512662410736,0.9886597394943236
-0.1929099112749099,1.283078670501709,-0.5877177119255066,0.1106489524245262,0.678116500377655,0.0970259457826614,0.0,0.0,-0.9718560576438904,0.9972515106201172
-0.1987454444169998,1.285616397857666,-0.5857359766960144,0.1116033941507339,0.68089359998703,0.0555431842803955,0.0,0.0,-0.9607923030853271,0.8230986595153809
-0.2045969069004058,1.288137435913086,-0.5862097144126892,0.1114740520715713,0.6822397112846375,0.026922395452857,0.0,0.0,-0.9414469599723816,0.8945541381835938
-0.2104720622301101,1.2906309366226196,-0.5876936316490173,0.1107265278697013,0.6824632883071899,0.0044719758443534,0.0,0.0,-0.9896712899208068,0.9908852577209472
-0.2163454592227935,1.2931058406829834,-0.5861366987228394,0.1106423139572143,0.6809394359588623,-0.030477587133646,0.0,0.0,-0.989616870880127,0.9760324954986572
-0.2222376763820648,1.2955529689788818,-0.5870746374130249,0.1099300011992454,0.678210437297821,-0.0545796230435371,0.0,0.0,-0.9915575385093688,0.9379959106445312
-0.2281255722045898,1.2979902029037476,-0.5851367115974426,0.1102680936455726,0.6735855340957642,-0.0924980416893959,0.0,0.0,-0.9921382069587708,0.9438596963882446
-0.2340186536312103,1.3004086017608645,-0.5843871235847473,0.1100906133651733,0.667378842830658,-0.1241330653429031,0.0,0.0,-0.9938427805900574,0.7688734531402588
-0.2399250566959381,1.302788019180298,-0.5847827196121216,0.108803354203701,0.6600378751754761,-0.1468176841735839,0.0,0.0,-0.9952356815338136,0.9470356702804564
-0.2458477467298507,1.3051306009292605,-0.5854986906051636,0.1075961664319038,0.6516016721725464,-0.1687238216400146,0.0,0.0,-0.9751366376876832,0.8937981128692627
-0.2517789900302887,1.307456135749817,-0.5850890874862671,0.1074030622839927,0.6416664719581604,-0.1987040042877197,0.0,0.0,-0.9527570605278016,0.5680351257324219
-0.2577274739742279,1.3097307682037354,-0.5860518217086792,0.105435661971569,0.6308649778366089,-0.2160296142101287,0.0,0.0,-0.9451249241828918,0.4744553565979004
-0.2637349963188171,1.3119149208068848,-0.5923088788986206,0.1011465638875961,0.6205780506134033,-0.2057381570339203,0.0,0.0,-0.9424712657928468,0.7022769451141357
-0.2697617411613464,1.3140461444854736,-0.5935259461402893,0.0990342572331428,0.6095139980316162,-0.2212814092636108,0.0,0.0,-0.9342021346092224,0.9046545028686525
-0.2757979333400726,1.3161407709121704,-0.5934157371520996,0.097796693444252,0.597274124622345,-0.2447975426912307,0.0,0.0,-0.9494593739509584,0.8196794986724854
-0.2818350195884704,1.3182028532028198,-0.5922516584396362,0.096779428422451,0.583648145198822,-0.2725191414356231,0.0,0.0,-0.9727163910865784,0.6558431386947632
-0.2878960072994232,1.320214033126831,-0.593967080116272,0.0946469530463218,0.569360613822937,-0.2857503294944763,0.0,0.0,-0.9778242707252502,-0.3256648778915405
-0.2940101027488708,1.3221346139907837,-0.5995523929595947,0.0903567969799041,0.5555159449577332,-0.2768937349319458,0.0,0.0,-0.9845876693725586,0.4013541936874389
-0.3001759648323059,1.3239647150039673,-0.6049938797950745,0.0860685408115387,0.5420979857444763,-0.2683594822883606,0.0,0.0,-0.8821636438369751,0.8315223455429077
-0.3063274025917053,1.3257523775100708,-0.6021009087562561,0.084613062441349,0.5271342396736145,-0.299275279045105,0.0,0.0,-0.8987022638320923,0.8629539012908936
-0.3124698102474212,1.3274905681610107,-0.599923849105835,0.0827210023999214,0.5108420252799988,-0.3258437514305115,0.0,0.0,-0.9604201316833496,0.7535021305084229
-0.3186119496822357,1.3291871547698977,-0.5986799001693726,0.0811038389801979,0.4933435618877411,-0.3499698340892792,0.0,0.0,-0.977565348148346,0.1547173261642456
-0.3248005509376526,1.3307936191558838,-0.6035016179084778,0.0768113806843757,0.4762023389339447,-0.3428245186805725,0.0,0.0,-0.957291841506958,0.0588995218276977
-0.3310340940952301,1.3323101997375488,-0.6081636548042297,0.0725207850337028,0.4593997597694397,-0.3360514044761657,0.0,0.0,-0.968031406402588,0.0980571508407592
-0.3373109400272369,1.3337359428405762,-0.6126634478569031,0.0682319924235344,0.4429168105125427,-0.3296588361263275,0.0,0.0,-0.9846906661987304,0.3131452798843384
-0.3436295390129089,1.335071086883545,-0.6169988512992859,0.0639449208974838,0.4267340898513794,-0.323654294013977,0.0,0.0,-0.988393783569336,0.7477366924285889
-0.3499441146850586,1.3363453149795532,-0.6155377626419067,0.0613630786538124,0.4095391035079956,-0.343899667263031,0.0,0.0,-0.9723276495933532,0.1645518541336059
-0.3562973439693451,1.337528944015503,-0.619536280632019,0.0570759437978267,0.3926047086715698,-0.3386881351470947,0.0,0.0,-0.9432782530784608,0.5329217910766602
-0.3626506328582763,1.3386476039886477,-0.6186376810073853,0.0542264208197593,0.3748281896114349,-0.3555305600166321,0.0,0.0,-0.9573034644126892,0.5854771137237549
-0.3689907491207123,1.3397047519683838,-0.6160984635353088,0.0515696853399276,0.3558914065361023,-0.3787361085414886,0.0,0.0,-0.9468316435813904,0.1844013929367065
-0.3753650784492492,1.3406715393066406,-0.6195828914642334,0.0472799912095069,0.3371542394161224,-0.3747440874576568,0.0,0.0,-0.8033855557441711,0.3491184711456299
-0.3817719519138336,1.3415478467941284,-0.6228965520858765,0.0429915599524974,0.3185960650444031,-0.3711637556552887,0.0,0.0,-0.8645493388175964,0.2809040546417236
-0.3882098793983459,1.342333197593689,-0.6260395050048828,0.0387042798101902,0.3001962900161743,-0.3679954409599304,0.0,0.0,-0.804043710231781,-0.0059048533439636
-0.3946771621704101,1.3430278301239014,-0.6290122270584106,0.0344180427491664,0.281934380531311,-0.3652383387088775,0.0,0.0,-0.6900437474250793,-0.0923278331756591
-0.4011722505092621,1.3436312675476074,-0.631815493106842,0.0301327370107173,0.2637898623943329,-0.3628905415534973,0.0,0.0,-0.6555710434913635,0.6231100559234619
-0.4076446890830993,1.3441685438156128,-0.628248929977417,0.0271826013922691,0.2444118410348892,-0.3875607848167419,0.0,0.0,-0.537567675113678,0.547461748123169
-0.4140917658805847,1.34463632106781,-0.6243807673454285,0.0240422878414392,0.2237748950719833,-0.4127391278743744,0.0,0.0,-0.4661741256713867,0.2792657613754272
-0.4205623269081116,0.0,-0.6266816854476929,0.019750703126192,0.203195258975029,-0.4115931093692779,0.0,0.0,-0.3129394054412842,0.3279352188110351
-0.4270547330379486,1.3453017473220823,-0.6288207173347473,0.0154595719650387,0.1826533377170562,-0.4108385145664215,0.0,0.0,-0.8159237504005432,0.4358129501342773
-0.433567464351654,1.3454991579055786,-0.6308003664016724,0.0111687779426574,0.1621299088001251,-0.4104685187339782,0.0,0.0,-0.7421728372573853,0.3417619466781616
-0.4400991797447204,1.3456063270568848,-0.6326236724853516,0.0068781990557909,0.1416061371564865,-0.4104757308959961,0.0,0.0,-0.4071261882781982,0.6704449653625488
-0.4466074407100677,1.345638632774353,-0.6291212439537048,0.0033543419558554,0.1199970692396164,-0.4321812987327575,0.0,0.0,-0.8400158882141113,0.1995664834976196
-0.4531318247318268,1.3455811738967896,-0.6306412816047668,-0.0009399019763804,0.0983513221144676,-0.4329150319099426,0.0,0.0,-0.8377895951271057,0.7015482187271118
-0.4596210122108459,1.3454469442367554,-0.625731885433197,-0.004594050347805,0.0753752142190933,-0.459522396326065,0.0,0.0,-0.7184917330741882,0.9381842613220216
-0.4660601615905761,1.3452386856079102,-0.6189839839935303,-0.008191485889256,0.0507143512368202,-0.493217408657074,0.0,0.0,-0.7798497676849365,0.8808388710021973
-0.4724446833133697,1.3449453115463257,-0.6116946935653687,-0.0123446322977542,0.024286238476634,-0.5285627841949463,0.0,0.0,-0.5128636360168457,0.8746689558029175
-0.4787842333316803,1.344568967819214,-0.6056586503982544,-0.0165063925087451,-0.0036476575769484,-0.5586782693862915,0.0,0.0,-0.8938738107681274,0.971677303314209
-0.4850756227970123,1.344105243682861,-0.599258542060852,-0.020942473784089,-0.0331492088735103,-0.5900316834449768,0.0,0.0,-0.2795785665512085,0.7234385013580322
-0.4913078248500824,1.3435592651367188,-0.5915230512619019,-0.0252682026475667,-0.0644751489162445,-0.6265190243721008,0.0,0.0,-0.6621193885803223,0.6796300411224365
-0.4974880218505859,1.3429198265075684,-0.5847300291061401,-0.030189799144864,-0.0974397882819175,-0.6592934131622314,0.0,0.0,-0.4669579267501831,0.201841115951538
-0.5036736726760864,1.3421990871429443,-0.5852251052856445,-0.034537810832262,-0.1305641382932663,-0.6624873876571655,0.0,0.0,-0.5924543738365173,-0.781406819820404
-0.5099267363548279,1.3414157629013062,-0.5935478806495667,-0.0379014573991298,-0.1622379571199417,-0.6334766149520874,0.0,0.0,-0.4989811182022095,0.3577297925949096
-0.5161828994750977,1.3405503034591677,-0.5938419699668884,-0.0422431081533432,-0.1940970569849014,-0.6371827125549316,0.0,0.0,-0.4396126270294189,-0.4916826486587524
-0.522441029548645,1.3396031856536863,-0.5940446853637695,-0.046585988253355,-0.226153165102005,-0.6411228775978088,0.0,0.0,-0.3810976147651672,-0.4175688028335571
-0.5287001132965088,1.338573932647705,-0.5941622853279114,-0.0509301237761974,-0.2584173679351806,-0.6452847123146057,0.0,0.0,-0.5235495567321777,-0.5444556474685669
-0.5349955558776855,1.337482452392578,-0.5988220572471619,-0.0542408898472785,-0.2899054288864136,-0.6297617554664612,0.0,0.0,-0.2339915037155151,-0.6168246269226074
-0.5413309931755066,1.3363232612609863,-0.6039309501647949,-0.0577018707990646,-0.3205397129058838,-0.6126864552497864,0.0,0.0,-0.5202608704566956,-0.3926435112953186
-0.5476647019386292,1.3350814580917358,-0.6038254499435425,-0.0620392002165317,-0.3514121174812317,-0.6174488067626953,0.0,0.0,-0.4342283010482788,-0.8509150147438049
-0.5540726184844971,1.3337959051132202,-0.6133421063423157,-0.0641170516610145,-0.3804167807102203,-0.5800931453704834,0.0,0.0,-0.4329980611801147,-0.6168864369392395
-0.5605243444442749,1.3324534893035889,-0.6190210580825806,-0.0668896064162254,-0.4083601832389831,-0.5588678121566772,0.0,0.0,-0.2730299234390259,-0.3713849186897278
-0.5669724941253662,1.331026315689087,-0.6187424063682556,-0.0712147876620292,-0.4365665018558502,-0.5641272664070129,0.0,0.0,-0.3917666673660278,-0.6978938579559326
-0.5734573602676392,1.3295354843139648,-0.6235240697860718,-0.0742665156722068,-0.4639132916927337,-0.5469366908073425,0.0,0.0,-0.2334974408149719,-0.8258671760559082
-0.5799851417541504,1.3279987573623655,-0.629209578037262,-0.0763899013400077,-0.4900818467140198,-0.5233711004257202,0.0,0.0,-0.3639419078826904,-0.70750892162323
-0.5865528583526611,1.3264189958572388,-0.6345518827438354,-0.0783253386616706,-0.5150952339172363,-0.5002681016921997,0.0,0.0,0.0264633893966674,-0.8361383080482483
-0.5930399894714355,1.3250112533569336,-0.6280747652053833,-0.0705505833029747,-0.5386458039283752,-0.4710109233856201,0.0,0.0,-0.1082004904747009,-0.8746426701545715
