x_pos,y_pos,x_vel,y_vel,angle,ang_vel,leg_1,leg_2,main_booster,lat_booster
-0.0015254020690917,1.403174877166748,-0.1552270948886871,-0.3442378938198089,0.0024123035836964,0.047632984817028,0.0,0.0,0.7673165169840279,0.905510705907332
-0.0029208182822912,1.395739197731018,-0.1408637017011642,-0.3304738998413086,0.003718388499692,0.0261248648166656,0.0,0.0,-0.2292757559659868,-0.7836934868481957
-0.0043656351044774,1.3878473043441772,-0.1476509869098663,-0.3507598042488098,0.0068542282097041,0.0627227574586868,0.0,0.0,0.2253166089490261,0.7714279519415397
-0.0058539388701319,1.3800588846206665,-0.15095254778862,-0.3461676836013794,0.0089552672579884,0.0420244112610816,0.0,0.0,0.8505848028210063,-0.6043715966771063
-0.0072426795959472,1.3729197978973389,-0.1432606279850006,-0.3173284828662872,0.0132962446659803,0.0868277624249458,0.0,0.0,0.5937036120489738,0.6996439572568642
-0.0084391590207815,1.3661198616027832,-0.1235636919736862,-0.3022593259811401,0.0171669106930494,0.0774202272295951,0.0,0.0,-0.3928732783275668,0.7210935951917682
-0.0095815658569335,1.3588719367980957,-0.1173462495207786,-0.3221722841262817,0.02025225199759,0.0617124661803245,0.0,0.0,-0.2120498176326641,0.7702107747682183
-0.0106481555849313,1.3511790037155151,-0.1084436550736427,-0.3419303596019745,0.0220130030065774,0.0352182835340499,0.0,0.0,-0.0234017672763424,0.7557010992304956
-0.0116559984162449,1.3430466651916504,-0.1016617864370346,-0.3614468276500702,0.0228734649717807,0.0172109510749578,0.0,0.0,-0.3836589842764915,0.7964885396534247
-0.0126003269106149,1.3344720602035522,-0.0942662358283996,-0.3810949325561523,0.0227124784141778,-0.0032202345319092,0.0,0.0,0.3277811779546451,-0.6464745081313978
-0.0135282520204782,1.3261656761169434,-0.0946151465177536,-0.36920365691185,0.0245201122015714,0.0361563637852668,0.0,0.0,0.8483451035611724,0.7529425405329966
-0.014322948642075,1.318299412727356,-0.0805272534489631,-0.3496212065219879,0.0255609527230262,0.0208187587559223,0.0,0.0,-0.8260029241779712,0.7876986721330428
-0.0150394439697265,1.309990644454956,-0.0712926760315895,-0.3692739903926849,0.0252148788422346,-0.0069220378063619,0.0,0.0,0.671222959359016,0.8286554240605327
-0.0156184192746877,1.301768779754639,-0.056538201868534,-0.3653944432735443,0.0238636545836925,-0.0270269364118576,0.0,0.0,-0.1831434210505789,-0.9485144484608056
-0.0162505153566598,1.293104887008667,-0.0637850984930992,-0.3850658237934112,0.0244311019778251,0.0113503616303205,0.0,0.0,0.9182687989427788,0.8605689635842602
-0.016678238287568,1.2845065593719482,-0.0423742905259132,-0.382137268781662,0.0240378808230161,-0.0078652454540133,0.0,0.0,-0.1858640730353005,-0.9623619511934124
-0.0171586982905864,1.2754677534103394,-0.0495819188654422,-0.4017499089241028,0.025556169450283,0.030368622392416,0.0,0.0,-0.560893667766279,-0.8504658835056981
-0.0176834110170602,1.2659704685211182,-0.05573720484972,-0.4221686720848083,0.0287801697850227,0.0644859299063682,0.0,0.0,-0.6092934928642149,-0.8406346996881099
-0.01825637742877,1.2560291290283203,-0.0623604357242584,-0.4419392943382263,0.0337964035570621,0.1003335863351821,0.0,0.0,-0.8262914570397368,0.6358940309500162
-0.0187770836055278,1.2456406354904177,-0.0564104318618774,-0.4618212282657623,0.0380863510072231,0.085806556046009,0.0,0.0,-0.6646030406892689,0.7208010721650825
-0.0192193035036325,1.234811782836914,-0.0471470206975936,-0.4813583195209503,0.0409828945994377,0.0579360611736774,0.0,0.0,0.4670273304113885,0.9105991229067087
-0.0195828434079885,1.2241222858428955,-0.0377926640212535,-0.4751273989677429,0.0423987917602062,0.0283204521983861,0.0,0.0,-0.6054953814384503,0.6696921414503373
-0.0198701862245798,1.2129864692687988,-0.0288204848766326,-0.4949340522289276,0.0424830242991447,0.0016847569495439,0.0,0.0,-0.7265817894030908,-0.7877141238429831
-0.0201992988586425,1.2013887166976929,-0.0346529185771942,-0.5155054926872253,0.0442099720239639,0.0345420390367507,0.0,0.0,-0.3930559894403163,0.9118757976478724
-0.0204591751098632,1.189347505569458,-0.0265616122633218,-0.5351789593696594,0.0447738133370876,0.0112779829651117,0.0,0.0,-0.4886097169527212,-0.6361295440014311
-0.0207655914127826,1.1768347024917605,-0.0330005958676338,-0.5562049150466919,0.0471015013754367,0.0465538017451763,0.0,0.0,-0.4881390578628113,-0.8404721644882487
-0.02112159691751,1.1638728380203247,-0.039800327271223,-0.5762193202972412,0.0512480065226554,0.0829303041100502,0.0,0.0,-0.9933755378206124,-0.6204699969537419
-0.0215197559446096,1.150463581085205,-0.0456514880061149,-0.5961772203445435,0.0570191964507103,0.1154236570000648,0.0,0.0,-0.5930918172498187,0.8773099813789069
-0.0218447688966989,1.1366170644760132,-0.0370451435446739,-0.615585446357727,0.0615088008344173,0.0897922664880752,0.0,0.0,0.3129726437567102,0.692397875291328
-0.0221370700746774,1.1229019165039062,-0.0323942936956882,-0.6096986532211304,0.0646428987383842,0.0626818984746933,0.0,0.0,0.4487260131819652,-0.7397620899624964
-0.0224961284548044,1.109852910041809,-0.04061184450984,-0.5801647901535034,0.0692921951413154,0.0929860696196556,0.0,0.0,-0.1757075425350398,-0.6223935076999623
-0.0228876117616891,1.0963451862335205,-0.045233778655529,-0.6006355285644531,0.0753190889954567,0.1205378621816635,0.0,0.0,-0.3885455753437405,0.982989419200866
-0.0231883041560649,1.082404851913452,-0.0343855991959571,-0.6197923421859741,0.0795943215489387,0.0855041891336441,0.0,0.0,0.8742218304304228,0.8415451101729988
-0.023508071899414,1.068617582321167,-0.0343516245484352,-0.6128962635993958,0.0819412767887115,0.0469388887286186,0.0,0.0,-0.2161731042203456,-0.844794842652566
-0.023865794762969,1.05437433719635,-0.0396532975137233,-0.6332491040229797,0.0857910886406898,0.0769961848855018,0.0,0.0,-0.1161285534839324,-0.8318360744509619
-0.0242589954286813,1.0396795272827148,-0.0446520075201988,-0.6534165740013123,0.0910757482051849,0.1056933626532554,0.0,0.0,0.3502599259819008,0.7432728933674922
-0.0246212966740131,1.0250918865203855,-0.0398249067366123,-0.6485626697540283,0.0946393907070159,0.0712729766964912,0.0,0.0,-0.612556283114347,0.9251509571599924
-0.0248753540217876,1.0100725889205933,-0.0267769508063793,-0.66761714220047,0.0959987118840217,0.0271863881498575,0.0,0.0,0.0418572847820188,-0.8770981290984952
-0.0252466201782226,0.995392084121704,-0.0399769768118858,-0.6526533961296082,0.0988270565867424,0.0565669648349285,0.0,0.0,-0.1470628771629138,-0.663914563641169
-0.0256336219608783,0.9802550077438354,-0.0425174795091152,-0.6730132699012756,0.1026083901524543,0.0756267085671424,0.0,0.0,0.0647266379097024,-0.8004714578485788
-0.0261796955019235,0.9654015898704528,-0.0596435852348804,-0.6605093479156494,0.1076081246137619,0.0999944806098938,0.0,0.0,-0.9098494648933412,0.804680347442627
-0.0266124717891216,0.950108528137207,-0.0459954403340816,-0.6798850297927856,0.1103043332695961,0.0539240166544914,0.0,0.0,-0.9521675705909728,0.9056574106216432
-0.0269235614687204,0.9343692064285278,-0.0313095860183239,-0.6995437145233154,0.1105070933699607,0.004055168479681,0.0,0.0,-0.6514096260070801,0.7419538497924805
-0.0271268840879201,0.9181892275810242,-0.0183687787503004,-0.7189616560935974,0.1085594594478607,-0.0389525331556797,0.0,0.0,0.2195664644241333,0.0688444375991821
-0.027342414483428,0.9018784165382384,-0.0190017558634281,-0.7247430086135864,0.1060201302170753,-0.0507866144180297,0.0,0.0,0.0376162528991699,-0.6113324165344238
-0.0275529865175485,0.8854216933250427,-0.0192924384027719,-0.7312900424003601,0.104265309870243,-0.0350963473320007,0.0,0.0,0.1292498111724853,0.2150412797927856
-0.0277100559324026,0.8689766526222229,-0.0136313615366816,-0.7307430505752563,0.1022026389837265,-0.0412531197071075,0.0,0.0,-0.3258641958236694,-0.1918808221817016
-0.0278220176696777,0.852081298828125,-0.0085887033492326,-0.7507247924804688,0.0996175929903984,-0.0517012849450111,0.0,0.0,-0.3105781674385071,0.7857611179351807
-0.0278397556394338,0.8347499370574951,0.0026149558834731,-0.7699965238571167,0.0952657982707023,-0.087036021053791,0.0,0.0,0.0006587505340576,-0.7527545094490051
-0.0279129985719919,0.8174155950546265,-0.0038743920158594,-0.7701989412307739,0.0918468534946441,-0.0683785304427146,0.0,0.0,0.0110008716583251,0.5968782901763916
-0.0278236381709575,0.8001730442047119,0.0140521582216024,-0.7660297751426697,0.0867817401885986,-0.1013024225831031,0.0,0.0,-0.5098204016685486,-0.2554569840431213
-0.027683924883604,0.7824806571006775,0.0196837782859802,-0.7860135436058044,0.0811209455132484,-0.1132159978151321,0.0,0.0,0.6094198226928711,0.0106468200683593
-0.0274216644465923,0.7649986147880554,0.0320619717240333,-0.7766725420951843,0.0753418505191803,-0.1155818849802017,0.0,0.0,0.3072023391723633,-0.8808009028434753
-0.0272212978452444,0.7480112910270691,0.0247406102716922,-0.7547643184661865,0.0706919729709625,-0.0929974243044853,0.0,0.0,-0.4587293267250061,-0.2055107355117797
-0.0269669536501169,0.7305740714073181,0.0307713840156793,-0.7747481465339661,0.0654041990637779,-0.1057552471756935,0.0,0.0,0.3474475145339966,-0.8414412140846252
-0.0268374439328908,0.7132431864738464,0.0173603277653455,-0.7700792551040649,0.0610477775335311,-0.0871285647153854,0.0,0.0,-0.2033798098564148,-0.7557612061500549
-0.0267024990171194,0.6954644918441772,0.0172867365181446,-0.7900124788284302,0.0572983250021934,-0.074989303946495,0.0,0.0,0.1599748134613037,-0.1969742774963379
-0.0264408104121685,0.67795330286026,0.030187651515007,-0.7781267762184143,0.0533259250223636,-0.0794479697942733,0.0,0.0,-0.1136435270309448,-0.5922139286994934
-0.0261621475219726,0.6599949598312378,0.0315247848629951,-0.7980231046676636,0.0497041568160057,-0.0724352598190307,0.0,0.0,0.2867170572280884,-0.0068999528884887
-0.0259140972048044,0.6424990892410278,0.0294480677694082,-0.7774456143379211,0.0451189093291759,-0.0917050167918205,0.0,0.0,-0.1787774562835693,-0.6718858480453491
-0.0256543159484863,0.6245441436767578,0.0300782471895217,-0.797873318195343,0.0410608015954494,-0.081162117421627,0.0,0.0,0.5560266971588135,-0.1385185718536377
-0.02545509301126,0.6071239709854126,0.0251830928027629,-0.7740998864173889,0.0358615517616272,-0.1039848774671554,0.0,0.0,0.3345867395401001,-0.4612413048744201
-0.0251093860715627,0.5898856520652771,0.040092185139656,-0.7660251259803772,0.0304129365831613,-0.1089722067117691,0.0,0.0,0.6566600799560547,-0.1961082220077514
-0.0246960632503032,0.5731203556060791,0.0474675819277763,-0.7450098395347595,0.0243565868586301,-0.1211270689964294,0.0,0.0,-0.100122332572937,-0.9222185015678406
-0.0242912285029888,0.5558961033821106,0.0455190166831016,-0.7654474377632141,0.0193885415792465,-0.0993608683347702,0.0,0.0,0.6621298789978027,-0.6194303035736084
-0.0240172389894723,0.5391091704368591,0.0322422124445438,-0.7460354566574097,0.0146015947684645,-0.0957388430833816,0.0,0.0,-0.0262912511825561,-0.8259118795394897
-0.0237415321171283,0.5218808054924011,0.0315581038594245,-0.7656713724136353,0.0106655145063996,-0.0787217766046524,0.0,0.0,0.6178772449493408,-0.6686897277832031
-0.0233685486018657,0.5046249628067017,0.0404908917844295,-0.7669082880020142,0.0075132399797439,-0.0630454570055008,0.0,0.0,0.7054495811462402,-0.2872632145881653
-0.0229080207645893,0.4882416725158691,0.0498640015721321,-0.7281342148780823,0.003749186405912,-0.075280874967575,0.0,0.0,0.5152715444564819,-0.7573169469833374
-0.0225378982722759,0.4720557928085327,0.0402190573513507,-0.7193676233291626,0.0005827483837492,-0.0633287876844406,0.0,0.0,0.4936826229095459,-0.5960263609886169
-0.0222381595522165,0.456341028213501,0.0329490825533866,-0.6984375715255737,-0.002349593443796,-0.0586468949913978,0.0,0.0,0.6101469993591309,-0.4662249088287353
-0.0218389518558979,0.4410864114761352,0.0435049161314964,-0.67799311876297,-0.0058940490707755,-0.0708892941474914,0.0,0.0,-0.0552555918693542,-0.8889722228050232
-0.0214568134397268,0.4253929853439331,0.0404005013406276,-0.6974962949752808,-0.0080459425225853,-0.0430381037294864,0.0,0.0,0.8815759420394897,-0.8949191570281982
-0.0209789276123046,0.4102362394332886,0.0487618446350097,-0.6736409068107605,-0.0090044736862182,-0.0191704500466585,0.0,0.0,0.6506456136703491,-0.7626924514770508
-0.0205255504697561,0.3952113389968872,0.0456048808991909,-0.6677768230438232,-0.0092758610844612,-0.0054275197908282,0.0,0.0,0.1419113874435424,-0.7711721658706665
-0.0200076103210449,0.3800657391548157,0.0512391440570354,-0.6731337904930115,-0.0087302075698971,0.0109129287302494,0.0,0.0,0.7118573188781738,-0.7619767785072327
-0.0195128433406353,0.3649917244911194,0.0482406914234161,-0.6699478626251221,-0.0075038988143205,0.02452596090734,0.0,0.0,0.6902081966400146,-0.5848670601844788
-0.0189970023930072,0.3506912589073181,0.0499672666192054,-0.6355692744255066,-0.0059020943008363,0.0320359542965889,0.0,0.0,0.7617791891098022,-0.4422506690025329
-0.0183198936283588,0.3372453153133392,0.0664662346243858,-0.5975946187973022,-0.0046712206676602,0.0246174335479736,0.0,0.0,-0.1502551436424255,-0.6957268714904785
-0.0176371578127145,0.3233571946620941,0.0661490112543106,-0.6172446608543396,-0.0025660444516688,0.0421033203601837,0.0,0.0,0.5034818649291992,-0.745850682258606
-0.0170717239379882,0.3094646334648132,0.0539069473743438,-0.6174436807632446,2.7816266083391383e-05,0.051877349615097,0.0,0.0,0.5683629512786865,-0.0225636959075927
-0.0163966175168752,0.2962481379508972,0.0654797852039337,-0.5874024033546448,0.0020292969420552,0.0400295183062553,0.0,0.0,0.4761620759963989,-0.3506031036376953
-0.0157415382564067,0.2833529412746429,0.0646885186433792,-0.573119580745697,0.0028415005654096,0.0162440259009599,0.0,0.0,0.4238502979278564,-0.8056996464729309
-0.0151330949738621,0.270887166261673,0.0592485070228576,-0.5540360808372498,0.0044116913340985,0.0314039811491966,0.0,0.0,0.3709677457809448,-0.412260890007019
-0.01446533203125,0.2588420510292053,0.066016100347042,-0.5353406667709351,0.0051638460718095,0.0150431152433156,0.0,0.0,0.5273914337158203,-0.8304415345191956
-0.0137040140107274,0.247154414653778,0.0743486434221267,-0.5194596648216248,0.0069283782504498,0.0352903492748737,0.0,0.0,0.2185735702514648,-0.2727192640304565
-0.0128549579530954,0.2353958189487457,0.0838226526975631,-0.5226064324378967,0.0080005172640085,0.0214427486062049,0.0,0.0,0.2851334810256958,-0.3662561178207397
-0.0118641853332519,0.2236581891775131,0.0984347239136695,-0.521675705909729,0.0086327595636248,0.01264482550323,0.0,0.0,0.7712817192077637,-0.8617823719978333
-0.0107005117461085,0.2123902589082718,0.1144593805074691,-0.5008084177970886,0.0105155678465962,0.0376561693847179,0.0,0.0,0.7373690605163574,-0.905731737613678
-0.0093776704743504,0.2012892067432403,0.1290685683488845,-0.4934056103229522,0.0136866280809044,0.0634214803576469,0.0,0.0,0.725520133972168,-0.8774969577789307
-0.0080698011443018,0.1909202188253402,0.1266037672758102,-0.4608888030052185,0.0178169477730989,0.082606017589569,0.0,0.0,0.5329822301864624,-0.923029899597168
-0.0067434310913085,0.1811632066965103,0.1273464411497116,-0.4337190687656402,0.0230463966727256,0.1045888289809227,0.0,0.0,0.5550673007965088,-0.916750192642212
-0.0053002359345555,0.1719037890434265,0.137792482972145,-0.4116448163986206,0.0294895246624946,0.1288628280162811,0.0,0.0,0.1094802618026733,-0.873822033405304
-0.0037817955017089,0.1625149101018905,0.144322782754898,-0.4174477458000183,0.0369197241961956,0.1486038267612457,0.0,0.0,0.0969533920288086,-0.8777593374252319
-0.002314853714779,0.1531750261783599,0.1381925642490387,-0.4153368175029754,0.0453133657574653,0.1678729653358459,0.0,0.0,0.4908788204193115,-0.9294728636741638
-0.000799560570158,0.1445647031068802,0.1418608874082565,-0.3830004930496216,0.0548741891980171,0.1912164688110351,0.0,0.0,0.4286249876022339,-0.9571644067764282
0.0006607055547647,0.1362341195344925,0.1352355182170868,-0.3706766664981842,0.0655473172664642,0.2134624719619751,0.0,0.0,0.3293187618255615,-0.938793420791626
0.0019596100319176,0.1284027844667434,0.1180742233991622,-0.3486156165599823,0.0772378221154213,0.2338102161884308,0.0,0.0,0.3242160081863403,-0.2695968151092529
0.0033547400962561,0.1209673509001731,0.128164142370224,-0.3310877978801727,0.0884792730212211,0.224829152226448,0.0,0.0,0.2790888547897339,-0.5785501003265381
0.0046767233870923,0.1139428913593292,0.1205735579133033,-0.3129215538501739,0.1000120490789413,0.2306553870439529,0.0,0.0,0.2608375549316406,-0.823094367980957
0.0058737755753099,0.1073079705238342,0.107276439666748,-0.2957639396190643,0.1123471036553382,0.2467013150453567,0.0,0.0,-0.5184022784233093,0.5719192028045654
0.0071825026534497,0.1002293676137924,0.1203313246369361,-0.3154324293136596,0.1228201985359191,0.2094619572162628,0.0,0.0,0.2249839305877685,-0.6743330359458923
0.0083553316071629,0.0933381617069244,0.1063197031617164,-0.3072123229503631,0.133732333779335,0.2182427942752838,0.0,0.0,0.0086009502410888,-0.343980073928833
0.0094617847353219,0.0864543989300727,0.1008873432874679,-0.3068519532680511,0.1434533596038818,0.1944207400083542,0.0,0.0,0.5083403587341309,-0.6626076102256775
0.0105935093015432,0.0801101550459861,0.1026668176054954,-0.2830135524272918,0.1539467871189117,0.2098681181669235,0.0,0.0,-0.2109736204147339,0.1850875616073608
0.0117911342531442,0.0733160078525543,0.1100291758775711,-0.302998811006546,0.1636773347854614,0.1946106255054474,0.0,0.0,0.1503593921661377,-0.1118505001068115
0.0130668636411428,0.0668825730681419,0.1181529313325882,-0.286995381116867,0.173114001750946,0.1887332051992416,0.0,0.0,-0.0223983526229858,-0.2592504024505615
0.0144068719819188,0.0599987357854843,0.1253440082073211,-0.3069776892662048,0.1817917078733444,0.1735542714595794,0.0,0.0,0.7619702816009521,-0.4141104221343994
0.0157952308654785,0.0540500991046428,0.1302314549684524,-0.2654568552970886,0.1904164999723434,0.1724960803985595,0.0,0.0,-0.1089333295822143,-0.4707093238830566
0.0172456745058298,0.0476507768034935,0.1372228562831878,-0.2854368388652801,0.1982870250940323,0.1574107557535171,0.0,0.0,0.6435482501983643,-0.6704230308532715
0.0185370445251464,0.0419838055968284,0.1207411661744117,-0.2530094385147095,0.2067308872938156,0.1688774526119232,0.0,0.0,0.3899934291839599,-0.6778239607810974
0.0197543147951364,0.0368456207215786,0.1126580610871315,-0.229657843708992,0.215883269906044,0.1830477267503738,0.0,0.0,0.3658808469772339,-0.4411492347717285
0.0210144035518169,0.031833466142416,0.1173739209771156,-0.2240472733974456,0.2245981693267822,0.1742983311414718,0.0,0.0,0.2109655141830444,-0.7740665078163147
0.0220714565366506,0.0269799567759037,0.0964084565639495,-0.2171555608510971,0.2340313345193863,0.1886634528636932,0.0,0.0,0.7395572662353516,0.4761310815811157
0.0228823665529489,0.0233288630843162,0.0912282541394233,-0.1606749892234802,0.2238127142190933,-0.2042878419160843,0.0,1.0,0.9575021266937256,0.1259510517120361
0.0234787948429584,0.0202421769499778,0.0719327181577682,-0.1353751122951507,0.2113706916570663,-0.2488491833209991,0.0,0.0,0.3509566783905029,-0.7421374320983887
0.02399368211627,0.0176219083368778,0.068719133734703,-0.1141874268651008,0.193740501999855,-0.3529799580574035,0.0,1.0,0.8812596797943115,-0.4706655740737915
0.024538230150938,0.0154993152245879,0.0776413306593895,-0.0917438119649887,0.169807568192482,-0.4795691967010498,0.0,1.0,0.7814077138900757,-0.4786320924758911
0.0250270850956439,0.0141848186030983,0.0760508030652999,-0.0555557422339916,0.1426067352294922,-0.5440768003463745,0.0,1.0,0.7361514568328857,-0.514953076839447
0.0253920555114746,0.0136776305735111,0.0621155723929405,-0.0202971380203962,0.1170819923281669,-0.5105182528495789,0.0,1.0,-0.1119852066040039,-0.413286805152893
0.0257579796016216,0.0127276992425322,0.0622197762131691,-0.0404089763760566,0.0916347280144691,-0.5089653730392456,0.0,0.0,-0.946439266204834,-0.6417747139930725
