x_pos,y_pos,x_vel,y_vel,angle,ang_vel,leg_1,leg_2,main_booster,lat_booster
-0.0014897346263751,1.4035015106201172,-0.1507688164710998,-0.3297115564346313,0.0016031009145081,0.0316111482679843,0.0,0.0,0.3373143672943115,0.8877850770950317
-0.0028285980224609,1.3965394496917725,-0.1335975527763366,-0.3094307780265808,0.0013158036163076,-0.0057459017261862,0.0,0.0,0.2355647087097168,0.1074023246765136
-0.0040343282744288,1.3899071216583252,-0.1206242442131042,-0.2947694957256317,0.0013634436763823,0.0009530691313557,0.0,0.0,-0.4512128829956054,0.4444676637649536
-0.0052066803909838,1.3831517696380615,-0.1171444430947303,-0.3002359271049499,0.0012661417713388,-0.001945998170413,0.0,0.0,-0.5524445176124573,0.5554088354110718
-0.006293105892837,1.3762755393981934,-0.1070451587438583,-0.3056122660636902,-0.000308162823785,-0.0314889624714851,0.0,0.0,-0.2905666828155517,0.0311697721481323
-0.0073467255569994,1.3692762851715088,-0.103626474738121,-0.3110736012458801,-0.0020244056358933,-0.0343281924724578,0.0,0.0,-0.4363448619842529,0.2001339197158813
-0.0083680152893066,1.3621543645858765,-0.1002455800771713,-0.316535085439682,-0.0038825806695967,-0.0371672362089157,0.0,0.0,-0.6185691952705383,0.1096227169036865
-0.0093573573976755,1.3549095392227173,-0.0969060882925987,-0.321996659040451,-0.0058814249932765,-0.039980448782444,0.0,0.0,-0.7102345824241638,0.517615556716919
-0.0102750780060887,1.3475470542907717,-0.0885978564620018,-0.3272281587123871,-0.0090243816375732,-0.0628650858998298,0.0,0.0,-0.6333411335945129,-0.0171767473220825
-0.0111616132780909,1.340062141418457,-0.0853490158915519,-0.3326903581619262,-0.0123051386326551,-0.0656210035085678,0.0,0.0,-0.9407103657722472,-0.4750369191169739
-0.0120176319032907,1.3324543237686155,-0.0821538344025611,-0.338152676820755,-0.0157230347394943,-0.0683638751506805,0.0,0.0,-0.7554967999458313,0.1247559785842895
-0.0128437997773289,1.3247238397598269,-0.0790169984102249,-0.3436150848865509,-0.0192764215171337,-0.0710741952061653,0.0,0.0,-0.9255785942077636,0.4864802360534668
-0.0136404037475585,1.316870927810669,-0.0759433805942535,-0.3490777015686035,-0.0229637529700994,-0.0737532898783683,0.0,0.0,-0.9217370748519896,-0.3970417976379394
-0.014408397488296,1.308895230293274,-0.0729385465383529,-0.3545405566692352,-0.0267833769321441,-0.0763990357518196,0.0,0.0,-0.9624474048614502,-0.3542014360427856
-0.0151483537629246,1.3007968664169312,-0.0700082629919052,-0.360003650188446,-0.030733423307538,-0.0790081769227981,0.0,0.0,-0.3236643075942993,-0.3647643327713012
-0.0158611293882131,1.2925758361816406,-0.0671586319804191,-0.3654669225215912,-0.0348119512200355,-0.0815778225660324,0.0,0.0,-0.940625786781311,-0.2659436464309692
-0.0165475849062204,1.2842323780059814,-0.0643960982561111,-0.3709303736686706,-0.0390168353915214,-0.0841050595045089,0.0,0.0,-0.8706251382827759,-0.4592399597167969
-0.0172085762023925,1.2757660150527954,-0.0617273673415184,-0.3763940036296844,-0.0433457642793655,-0.0865864604711532,0.0,0.0,-0.9504297375679016,-0.2197217941284179
-0.0178450588136911,1.2671773433685305,-0.0591594465076923,-0.3818579018115997,-0.0477963089942932,-0.0890186950564384,0.0,0.0,-0.9016957879066468,-0.5730448961257935
-0.0185094829648733,1.2584694623947144,-0.063133031129837,-0.3871292173862457,-0.0510748103260993,-0.0655758306384086,0.0,0.0,-0.9355452656745912,0.4445228576660156
-0.0191516876220703,1.249638915061951,-0.0607923343777656,-0.3925924003124237,-0.054470207542181,-0.0679138749837875,0.0,0.0,-0.9361518621444702,-0.7362699508666992
-0.0198300369083881,1.240686058998108,-0.0657384544610977,-0.3979808688163757,-0.0565440282225608,-0.0414799004793167,0.0,0.0,-0.9412561058998108,-0.1887296438217163
-0.0204887390136718,1.2316105365753174,-0.0636550039052963,-0.403443843126297,-0.0587287992238998,-0.0436995849013328,0.0,0.0,-0.9692726135253906,-0.3810165524482727
-0.021129036322236,0.0,-0.0617089383304119,-0.408906877040863,-0.0610202811658382,-0.0458338297903537,0.0,0.0,-0.7641568183898926,-0.3576321005821228
-0.0217523574829101,1.2130911350250244,-0.0599079653620719,-0.4143700897693634,-0.0634151771664619,-0.0479023680090904,0.0,0.0,-0.9182006120681764,0.3151640892028808
-0.0223609916865825,1.2036259174346924,-0.0583492405712604,-0.4207850098609924,-0.0659099295735359,-0.049895092844963,0.0,0.0,-0.7117137312889099,-0.2724207639694214
-0.0229558944702148,1.1940380334854126,-0.0568660572171211,-0.4262457489967346,-0.0685006082057952,-0.0518140718340873,0.0,0.0,-0.7679502367973328,-0.5085942149162292
-0.0235871318727731,1.1843376159667969,-0.0616557486355304,-0.4311918914318084,-0.0699494481086731,-0.0289766453206539,0.0,0.0,-0.9421983361244202,-0.3814228773117065
-0.0242076870054006,1.1745147705078125,-0.0605087503790855,-0.4366522431373596,-0.071485623717308,-0.0307236816734075,0.0,0.0,-0.7483803629875183,-0.4142570495605469
-0.0248194690793752,1.1645689010620115,-0.0595375411212444,-0.4421126246452331,-0.073104627430439,-0.0323799923062324,0.0,0.0,-0.9701525568962096,-0.421598732471466
-0.0254240985959768,1.1545006036758425,-0.0587462671101093,-0.4475730061531067,-0.0748017653822898,-0.0339427255094051,0.0,0.0,-0.950888693332672,-0.5600726008415222
-0.0260734558105468,1.1443116664886477,-0.0644165500998497,-0.4528653919696808,-0.0753136798739433,-0.0102382805198431,0.0,0.0,-0.97209894657135,-0.1068813204765319
-0.0267191883176565,1.133999943733215,-0.0639939904212951,-0.458325445652008,-0.0758939906954765,-0.0116061344742774,0.0,0.0,-0.6558433771133423,-0.6196683645248413
-0.0274176597595214,1.1235661506652832,-0.0705714374780654,-0.4636911749839782,-0.0751744732260704,0.0143902003765106,0.0,0.0,-0.9104836583137512,-0.3670768737792969
-0.028116226196289,1.1130094528198242,-0.0705230385065078,-0.4691512882709503,-0.0745131745934486,0.0132259624078869,0.0,0.0,-0.9005911946296692,0.014183759689331
-0.0288166999816894,1.1023300886154177,-0.0706612765789032,-0.4746113121509552,-0.0739048793911933,0.0121660204604268,0.0,0.0,-0.8838205337524414,0.4650501012802124
-0.0295207984745502,1.0915277004241943,-0.0709845498204231,-0.4800712764263153,-0.0733443051576614,0.0112116262316703,0.0,0.0,-0.9224307537078856,0.7282058000564575
-0.0301691051572561,1.080601692199707,-0.0637954398989677,-0.4856583178043365,-0.0743664875626564,-0.0204433389008045,0.0,0.0,-0.920145571231842,-0.598131000995636
-0.0308744423091411,1.069564938545227,-0.0707572475075721,-0.4905104041099548,-0.0741550102829933,0.0042297043837606,0.0,0.0,-0.9405030012130736,0.539283275604248
-0.0315442085266113,1.058401107788086,-0.0660224333405494,-0.4962167739868164,-0.0750993862748146,-0.018887635320425,0.0,0.0,-0.8646995425224304,0.3755316734313965
-0.0322245582938194,1.0471144914627075,-0.0670519396662712,-0.5016766786575317,-0.0760700851678848,-0.0194140505045652,0.0,0.0,-0.5438877940177917,-0.304316759109497
-0.0329170227050781,1.0357050895690918,-0.0682457834482193,-0.5071365237236023,-0.0770617648959159,-0.0198336504399776,0.0,0.0,-0.3897520303726196,-0.3387537598609924
-0.0336232185363769,1.0241727828979492,-0.0695978477597236,-0.5125963687896729,-0.078069120645523,-0.0201471950858831,0.0,0.0,-0.956848680973053,-0.1913303136825561
-0.0343445762991905,1.0125179290771484,-0.0711016729474067,-0.5180561542510986,-0.0790868997573852,-0.0203556716442108,0.0,0.0,-0.7806428670883179,-0.014279305934906
-0.0350823402404785,1.0007399320602417,-0.0727504640817642,-0.5235159397125244,-0.0801099315285682,-0.020460370928049,0.0,0.0,-0.9593019485473632,0.3236731290817261
-0.0358380302786827,0.9888392090797424,-0.0745372176170349,-0.5289756655693054,-0.0811330750584602,-0.020462954416871,0.0,0.0,-0.9913544058799744,0.138407826423645
-0.0366128906607627,0.9768157601356506,-0.0764548331499099,-0.5344353914260864,-0.0821512788534164,-0.0203641299158334,0.0,0.0,-0.9436140060424804,-0.3261364698410034
-0.0374080650508403,0.964669406414032,-0.0784961655735969,-0.5398951172828674,-0.0831596553325653,-0.0201678611338138,0.0,0.0,-0.9794675707817078,-0.6562331318855286
-0.0382874496281147,0.9524139761924744,-0.0885464623570442,-0.544657826423645,-0.0825564041733741,0.0120648751035332,0.0,0.0,-0.918779730796814,0.3736542463302612
-0.039189338684082,0.9400354623794556,-0.0908140465617179,-0.5501174330711365,-0.0819338411092758,0.0124511672183871,0.0,0.0,-0.94802063703537,0.6809371709823608
-0.0400481224060058,0.927525758743286,-0.0848410502076149,-0.5560418963432312,-0.082967072725296,-0.0206645186990499,0.0,0.0,-0.9950326681137084,-0.6569338440895081
-0.0409878715872764,0.9149046540260316,-0.0944057554006576,-0.5609124898910522,-0.0825368911027908,0.0086034554988145,0.0,0.0,-0.97678542137146,0.1720157861709594
-0.0419528000056743,0.90216064453125,-0.0969621539115905,-0.5663719773292542,-0.0820741280913353,0.0092554781585931,0.0,0.0,-0.9868820905685424,0.9510776996612548
-0.0428678505122661,0.889293372631073,-0.0900919139385223,-0.5719615817070007,-0.0834767371416091,-0.0280524082481861,0.0,0.0,-0.9902458190917968,-0.4804344177246094
-0.043809700757265,0.8763031363487244,-0.0928099155426025,-0.5774211883544922,-0.0848386064171791,-0.0272372774779796,0.0,0.0,-0.9974504709243774,-0.525459349155426
-0.0448271743953228,0.8631938099861145,-0.1016371995210647,-0.5826427936553955,-0.0849436372518539,-0.0021003112196922,0.0,0.0,-0.9921960234642028,0.0036284923553466
-0.045872688293457,0.8499615788459778,-0.1044946685433387,-0.5881021618843079,-0.0850003361701965,-0.0011339753400534,0.0,0.0,-0.9989182949066162,-0.4255200624465942
-0.0469468124210834,0.8366064429283142,-0.1074143424630165,-0.5935614705085754,-0.0850051715970039,-9.657391638029368e-05,0.0,0.0,-0.977390468120575,0.7841267585754395
-0.047980211675167,0.8231277465820312,-0.1016249656677246,-0.5991584062576294,-0.0867083892226219,-0.0340644270181655,0.0,0.0,-0.9742678999900818,-0.633976399898529
-0.0490993484854698,0.8095389008522034,-0.1116883605718612,-0.6039635539054871,-0.0869285017251968,-0.004401930142194,0.0,0.0,-0.9984259009361268,-0.7543678283691406
-0.0503033623099327,0.7958277463912964,-0.1216336861252784,-0.6093160510063171,-0.0857137814164161,0.0242946110665798,0.0,0.0,-0.9925282597541808,0.0394210815429687
-0.0515380874276161,0.781993567943573,-0.124758780002594,-0.6147753596305847,-0.0844344720244407,0.0255859643220901,0.0,0.0,-0.9899523258209229,0.0521457195281982
-0.0528037063777446,0.7680366039276123,-0.1279257535934448,-0.6202346086502075,-0.0830877944827079,0.0269334856420755,0.0,0.0,-0.8817320466041565,-0.2224088907241821
-0.0541007034480571,0.7539567947387695,-0.1311313360929489,-0.6256940364837646,-0.0816710963845253,0.0283341817557811,0.0,0.0,-0.9813730120658876,-0.3701871633529663
-0.0554293617606163,0.7397539615631104,-0.1343724727630615,-0.6311532855033875,-0.0801818370819091,0.0297853145748376,0.0,0.0,-0.99363112449646,-0.221004843711853
-0.0567900650203228,0.7254282832145691,-0.137646347284317,-0.6366126537322998,-0.0786176398396492,0.0312841050326824,0.0,0.0,-0.9402232766151428,-0.2994502186775207
-0.0581830032169818,0.7109796404838562,-0.1409502923488617,-0.6420719623565674,-0.0769762471318245,0.0328277423977851,0.0,0.0,-0.9500840902328492,0.0967899560928344
-0.0596084594726562,0.696408212184906,-0.1442819088697433,-0.6475313305854797,-0.0752555653452873,0.0344136580824852,0.0,0.0,-0.8405760526657104,-0.130757451057434
-0.0610666275024414,0.6817138195037842,-0.1476389020681381,-0.6529907584190369,-0.0734536126255989,0.0360392406582832,0.0,0.0,-0.928006649017334,0.4542503356933594
-0.0625577941536903,0.6668967604637146,-0.1510191708803177,-0.658450186252594,-0.0715685039758682,0.0377019718289375,0.0,0.0,-0.8406981825828552,-0.2061645984649658
-0.0640820488333702,0.6519566178321838,-0.1544207632541656,-0.6639096140861511,-0.0695985257625579,0.0393993481993675,0.0,0.0,-0.8755363821983337,0.608440637588501
-0.0655891448259353,0.6368894577026367,-0.1515014022588729,-0.6696128249168396,-0.0688151493668556,0.015667263418436,0.0,0.0,-0.8951981663703918,0.0988550186157226
-0.0671298056840896,0.6216994524002075,-0.1549402475357055,-0.6750719547271729,-0.0679438188672065,0.0174268223345279,0.0,0.0,-0.8802310228347778,0.8584047555923462
-0.0686279311776161,0.6063787937164307,-0.1488532721996307,-0.680963933467865,-0.0689007490873336,-0.0191385634243488,0.0,0.0,-0.9325329065322876,0.6021835803985596
-0.0701152831315994,0.5909258723258972,-0.1467129439115524,-0.6868908405303955,-0.0709000676870346,-0.039986465126276,0.0,0.0,-0.4284308552742004,0.6891450881958008
-0.0715763121843338,0.5753363966941833,-0.1426334679126739,-0.6930331587791443,-0.0743366330862045,-0.0687314942479133,0.0,0.0,0.1904311180114746,0.0367251634597778
-0.0730759650468826,0.5599926114082336,-0.1464757323265075,-0.6821261048316956,-0.0777856782078743,-0.0689811035990715,0.0,0.0,-0.9590330123901368,0.7037777900695801
-0.0745545402169227,0.5445259213447571,-0.1430782675743103,-0.6876612305641174,-0.0825214460492134,-0.0947154387831687,0.0,0.0,-0.7432869672775269,0.3445584774017334
-0.0760673508048057,0.5289366841316223,-0.1465940773487091,-0.6931220889091492,-0.087162546813488,-0.092822328209877,0.0,0.0,0.3697210550308227,0.3863252401351928
-0.0776481628417968,0.5142495036125183,-0.1530513763427734,-0.6530653238296509,-0.0921386182308197,-0.0995213836431503,0.0,0.0,-0.8226513266563416,0.4911783933639526
-0.0792632102966308,0.4994397163391113,-0.1565833389759063,-0.6585263013839722,-0.097018614411354,-0.0976000055670738,0.0,0.0,-0.9246912002563475,0.4948207139968872
-0.0809126868844032,0.4845071732997894,-0.1601218581199646,-0.6639871597290039,-0.1018019840121269,-0.0956673026084899,0.0,0.0,-0.8457263708114624,0.4548110961914062
-0.0825965851545333,0.4694520235061645,-0.1636659651994705,-0.6694478392601013,-0.1064882278442382,-0.0937249958515167,0.0,0.0,0.4348244667053222,0.8033473491668701
-0.0842419639229774,0.4551540017127991,-0.1582339406013488,-0.6359297633171082,-0.1127523779869079,-0.1252830326557159,0.0,0.0,-0.7782028913497925,0.4835001230239868
-0.0859219580888748,0.4407335817813873,-0.1617868244647979,-0.6413917541503906,-0.1189187169075012,-0.1233267933130264,0.0,0.0,-0.6442999243736267,0.7825958728790283
-0.0875659957528114,0.4261782765388489,-0.1565073430538177,-0.6475509405136108,-0.1267751902341842,-0.1571296751499176,0.0,0.0,-0.4472479224205017,0.0611848831176757
-0.0892445594072341,0.4115008115768432,-0.1600657403469085,-0.6530147790908813,-0.1345334947109222,-0.1551661342382431,0.0,0.0,-0.7346980571746826,0.2224587202072143
-0.0909576416015625,0.3967011570930481,-0.1636255383491516,-0.6584783792495728,-0.1421935856342315,-0.1532016992568969,0.0,0.0,-0.4402039051055908,0.0700469017028808
-0.0927053466439247,0.381779134273529,-0.1671859323978424,-0.6639417409896851,-0.1497554630041122,-0.1512379050254821,0.0,0.0,0.1610486507415771,0.2333892583847046
-0.0943492874503135,0.3671240508556366,-0.1573769897222519,-0.6520631313323975,-0.1567661315202713,-0.1402131021022796,0.0,0.0,0.5677398443222046,-0.7220315933227539
-0.0959780663251876,0.353422462940216,-0.1574048548936844,-0.6095452904701233,-0.1622422784566879,-0.1095228642225265,0.0,0.0,-0.1609002351760864,0.392674446105957
-0.0976414680480957,0.3395982980728149,-0.1609617918729782,-0.6150060892105103,-0.1676208078861236,-0.1075706630945205,0.0,0.0,-0.4406020641326904,0.5986037254333496
-0.0992827415466308,0.3256394267082214,-0.1574173271656036,-0.6211662888526917,-0.1743478924036026,-0.1345410048961639,0.0,0.0,0.6657121181488037,-0.3638479709625244
-0.1008012741804122,0.3120177984237671,-0.1457136422395706,-0.6061405539512634,-0.1805076897144317,-0.1231959834694862,0.0,0.0,0.2387807369232177,-0.6216470003128052
-0.1023772209882736,0.2988601922988891,-0.1527235209941864,-0.585385262966156,-0.185399055480957,-0.0978269428014755,0.0,0.0,-0.5252271294593811,-0.277695894241333
-0.1039875969290733,0.2855798006057739,-0.1562654972076416,-0.5908454060554504,-0.1901945769786834,-0.0959103479981422,0.0,0.0,0.7963423728942871,-0.1961856484413147
-0.1055402755737304,0.2730952501296997,-0.1504738479852676,-0.555491030216217,-0.1950121521949768,-0.0963517650961875,0.0,0.0,0.5606906414031982,0.3429820537567138
-0.1070968657732009,0.2616279721260071,-0.1504309475421905,-0.5103551149368286,-0.200279027223587,-0.1053372174501419,0.0,0.0,-0.8403527736663818,-0.4336129426956177
-0.1086877807974815,0.2500379681587219,-0.1539532244205474,-0.5158154964447021,-0.2054521292448043,-0.1034621745347976,0.0,0.0,-0.0125404000282287,0.3619749546051025
-0.1103128418326377,0.238325223326683,-0.1574670970439911,-0.5212757587432861,-0.2105323225259781,-0.1016038432717323,0.0,0.0,0.7567086219787598,0.942551851272583
-0.1118277534842491,0.2276718467473983,-0.1445382237434387,-0.4744918048381805,-0.2175580114126205,-0.1405137926340103,0.0,0.0,-0.5883715748786926,-0.4508122205734253
-0.1133766174316406,0.2168960124254226,-0.1480331569910049,-0.4799538850784302,-0.2244926542043686,-0.1386927664279937,0.0,0.0,0.3999326229095459,0.1629353761672973
-0.1149421706795692,0.2067758589982986,-0.1493567824363708,-0.4508970975875854,-0.2317945957183838,-0.1460384130477905,0.0,0.0,0.3526136875152588,-0.8527417778968811
-0.1166450530290603,0.1972287744283676,-0.1647374778985977,-0.4252009689807892,-0.2374301105737686,-0.1127101927995681,0.0,0.0,0.0834002494812011,0.4288392066955566
-0.1182032600045204,0.1882214099168777,-0.1506747007369995,-0.4011654257774353,-0.2426565885543823,-0.1045296341180801,0.0,0.0,0.2427613735198974,-0.2346251606941223
-0.1196833625435829,0.1794787794351577,-0.1431780159473419,-0.3893691003322601,-0.2475831508636474,-0.0985312387347221,0.0,0.0,0.2240316867828369,-0.8667294383049011
-0.121003434062004,0.1714212745428085,-0.1290474832057953,-0.3586116433143616,-0.2505925297737121,-0.0601876266300678,0.0,0.0,0.2641947269439697,-0.3704025745391845
-0.1222264319658279,0.1641102135181427,-0.1193464547395706,-0.3254442811012268,-0.2535990476608276,-0.0601305663585662,0.0,0.0,0.1905627250671386,-0.9315327405929564
-0.1232808083295822,0.1575629860162735,-0.1044542416930198,-0.2911577224731445,-0.2546010911464691,-0.0200410895049572,0.0,0.0,0.1723814010620117,-0.7719920873641968
-0.1242634803056716,0.1514893919229507,-0.0989509150385856,-0.2698188424110412,-0.253908634185791,0.0138490675017237,0.0,0.0,-0.561843752861023,-0.6333027482032776
-0.1253267228603363,0.145317941904068,-0.108357086777687,-0.2739379107952118,-0.2518354952335357,0.041463054716587,0.0,0.0,-0.2690382599830627,0.4352025985717773
-0.126422494649887,0.13902348279953,-0.1116841435432434,-0.2793963253498077,-0.2496844381093979,0.0430210642516613,0.0,0.0,0.0766682624816894,-0.4821805953979492
-0.1274256706237793,0.1330207735300064,-0.1027532964944839,-0.2663780450820923,-0.2472142279148101,0.049404639750719,0.0,0.0,0.4037384986877441,0.3911597728729248
-0.1284332275390625,0.1276971846818924,-0.1027772650122642,-0.2362626940011978,-0.245150089263916,0.0412828251719474,0.0,0.0,-0.3900509476661682,-0.0052960515022277
-0.1294725388288498,0.1222505867481231,-0.1060259565711021,-0.2417211979627609,-0.2430130243301391,0.0427412651479244,0.0,0.0,0.0289764404296875,0.8644543886184692
-0.1304080039262771,0.1171727776527404,-0.0940074250102043,-0.2256059199571609,-0.2425502687692642,0.0092554399743676,0.0,0.0,0.4427229166030884,0.4818534851074219
-0.1312407553195953,0.1126420572400093,-0.0839066728949546,-0.2012640833854675,-0.2419132888317108,0.0127398390322923,0.0,0.0,0.078241229057312,0.1046669483184814
-0.1319654434919357,0.1082993820309639,-0.0735498219728469,-0.1928298473358154,-0.2408145517110824,0.0219747833907604,0.0,0.0,-0.1928791999816894,-0.5958107113838196
-0.1327584236860275,0.1038503497838974,-0.0814424082636833,-0.1973850727081298,-0.2386400699615478,0.0434893406927585,0.0,0.0,0.1882174015045166,-0.5285549163818359
-0.1334650069475174,0.1001366004347801,-0.0739468857645988,-0.1645231693983078,-0.2352922260761261,0.0669569745659828,0.0,0.0,0.0413366556167602,0.5250592231750488
