x_pos,y_pos,x_vel,y_vel,angle,ang_vel,leg_1,leg_2,main_booster,lat_booster
-0.0015246390830725,1.403317928314209,-0.1544364243745803,-0.3378815054893493,0.0017679878510534,0.0348754562437534,0.0,0.0,0.4339844730082913,0.7262083858872724
-0.0029456138145178,1.3960292339324951,-0.1424834430217743,-0.323936253786087,0.0021447804756462,0.0075374646112322,0.0,0.0,-0.3804699638622615,-0.9740301826475536
-0.004430484957993,1.3884263038635254,-0.1503888964653015,-0.3379208445549011,0.004018678329885,0.0374817326664924,0.0,0.0,-0.804425724896493,-0.9979259381179252
-0.0060154916718602,1.3805127143859863,-0.1627840101718902,-0.3517292737960815,0.0082526160404086,0.0846867710351944,0.0,0.0,-0.8787806236480769,0.680274707268574
-0.0075436593033373,1.372295618057251,-0.1554462611675262,-0.3652219176292419,0.0108505021780729,0.0519623272120952,0.0,0.0,0.826484625165548,0.7005499709955983
-0.0088689802214503,1.3646750450134275,-0.1341690570116043,-0.338706374168396,0.0124729005619883,0.0324507728219032,0.0,0.0,0.3271026591857939,0.624870342014281
-0.0101827625185251,1.3574438095092771,-0.1317350268363952,-0.3213874995708465,0.0128186857327818,0.0069166934117674,0.0,0.0,0.2366315971487829,0.6001474711150384
-0.0113461492583155,1.350637435913086,-0.1157243102788925,-0.3025074601173401,0.0122177535668015,-0.0120198149234056,0.0,0.0,-0.3549910378761349,-0.8476655392274598
-0.0125938411802053,1.3435320854187012,-0.1258959472179412,-0.3158017098903656,0.0133327674120664,0.0223022568970918,0.0,0.0,0.8552652943480221,-0.8740449246114789
-0.0139408111572265,1.3373478651046753,-0.1375729441642761,-0.2748900055885315,0.0161813665181398,0.0569771714508533,0.0,0.0,0.1543726101618903,-0.9691683960336986
-0.0153205869719386,1.3314801454544067,-0.1428096741437912,-0.2608402669429779,0.0209677461534738,0.0957360714673996,0.0,0.0,-0.275245548370951,-0.6846103458717314
-0.016771126538515,1.325303316116333,-0.1511135548353195,-0.2746193706989288,0.0269593335688114,0.1198429465293884,0.0,0.0,0.4806555322057178,-0.6913747563917314
-0.0181902889162302,1.3197671175003052,-0.1496272385120391,-0.2462133467197418,0.0345863811671733,0.1525547504425048,0.0,0.0,0.8220389964215058,0.6306811870054784
-0.0195195190608501,1.314512848854065,-0.1395951211452484,-0.2336941510438919,0.0411892943084239,0.1320700794458389,0.0,0.0,-0.4882119425116171,-0.9375670296002098
-0.0209362022578716,1.3089585304260254,-0.1497975885868072,-0.247094377875328,0.0492293536663055,0.1608160138130188,0.0,0.0,0.6022259181095642,0.7683257330479887
-0.0222221370786428,1.3035345077514648,-0.1354261636734008,-0.2413064986467361,0.0559820123016834,0.1350655853748321,0.0,0.0,0.8524660375947122,-0.7804274983586547
-0.0234910957515239,1.299259066581726,-0.1356669217348098,-0.1903700828552246,0.0646710991859436,0.173797458410263,0.0,0.0,0.5987815784121562,0.8650167791608689
-0.0245996471494436,1.295234441757202,-0.1181529387831687,-0.1791999638080597,0.0718999132514,0.1445893496274948,0.0,0.0,0.1068491615138615,-0.7817625886280918
-0.0257748607546091,1.291717529296875,-0.1264567077159881,-0.1567613929510116,0.0807563662528991,0.17714524269104,0.0,0.0,0.7317338491548993,0.6189133550716038
-0.0270835869014263,1.288776159286499,-0.1383491307497024,-0.1311439871788025,0.0881726369261741,0.1483387500047683,0.0,0.0,0.7500197186246251,0.9217567970277346
-0.0282864570617675,1.2867549657821655,-0.126177579164505,-0.0901910588145256,0.0940198004245758,0.11695346981287,0.0,0.0,-0.1935660796540339,0.7701555407885657
-0.0294759757816791,1.2844316959381104,-0.1232954487204551,-0.1035376265645027,0.0983318760991096,0.0862492993474006,0.0,0.0,-0.8502547182302329,0.7182273767681774
-0.0306480415165424,1.281810998916626,-0.1198293343186378,-0.1166440024971962,0.1009349226951599,0.0520653501152992,0.0,0.0,0.2100436143539708,-0.947519715173064
-0.0319113731384277,1.279212474822998,-0.1308987289667129,-0.115808717906475,0.1054812520742416,0.0909347981214523,0.0,0.0,-0.8117634272490197,0.8901457699473188
-0.0331778526306152,1.2763183116912842,-0.1298880577087402,-0.1288628727197647,0.1087030246853828,0.0644410848617553,0.0,0.0,0.3881555319681313,-0.9225356356279836
-0.0347782149910926,1.2739486694335938,-0.1650429219007492,-0.1056874990463256,0.1136795282363891,0.0995300039649009,0.0,0.0,-0.6372520271363478,0.6636252764245193
-0.0363880172371864,1.2712857723236084,-0.1646790206432342,-0.1186346560716629,0.1173607110977172,0.0736233741044998,0.0,0.0,-0.1841209551560869,0.6394440929494758
-0.0380230918526649,1.268330216407776,-0.1662427484989166,-0.1315841376781463,0.1200805827975273,0.054397564381361,0.0,0.0,0.2915864623519635,0.7880311378630583
-0.039850614964962,1.2659666538238523,-0.1838174164295196,-0.105134442448616,0.1211361587047576,0.0211114063858985,0.0,0.0,-0.0945085305083124,-0.8124613822250832
-0.0418129935860633,1.2632813453674316,-0.1990330517292022,-0.1195719316601753,0.1239158809185028,0.0555945113301277,0.0,0.0,0.1837876405574556,-0.6934302649149395
-0.0439620018005371,1.2611932754516602,-0.2191423624753952,-0.0931697562336921,0.1281417608261108,0.0845175236463546,0.0,0.0,-0.4553546131641994,0.6398902582997315
-0.0461408607661724,1.258803367614746,-0.2210591584444046,-0.1064941138029098,0.1313044726848602,0.0632540509104728,0.0,0.0,-0.7879649807077849,0.6611084641513464
-0.048351764678955,1.2561219930648804,-0.2231685370206833,-0.1193565651774406,0.1333743780851364,0.0413981042802333,0.0,0.0,0.9979175961381452,-0.7756423442854765
-0.0508420951664447,1.253746747970581,-0.2525317966938019,-0.1058845147490501,0.1368560343980789,0.0696330294013023,0.0,0.0,0.5803950102013395,0.9637519390383116
-0.0534023270010948,1.251977801322937,-0.2576532959938049,-0.0787725821137428,0.1384837180376052,0.0325536914169788,0.0,0.0,0.4500077856926558,-0.6861082064478716
-0.0561738982796669,1.250885844230652,-0.2802445292472839,-0.0488139130175113,0.1415670812129974,0.0616670325398445,0.0,0.0,-0.8246169265228562,0.9916844720214384
-0.0589556694030761,1.2494986057281494,-0.279429942369461,-0.0617819614708423,0.1428131759166717,0.0249217357486486,0.0,0.0,0.5532752374010628,-0.6819535309535021
-0.0619414336979389,1.2488692998886108,-0.3013303577899933,-0.0282347537577152,0.1455569416284561,0.0548752918839454,0.0,0.0,-0.5316748605697854,0.615271907877724
-0.0649720206856727,1.2479501962661743,-0.3047095835208893,-0.0410124249756336,0.1472063958644867,0.0329890735447406,0.0,0.0,-0.7358270542796723,-0.924694849207406
-0.0681625381112098,1.2467103004455566,-0.3225360810756683,-0.0554466769099235,0.150678277015686,0.0694375038146972,0.0,0.0,-0.1368639626510868,0.9385127631816136
-0.0713865309953689,1.2451857328414917,-0.3243780732154846,-0.0679626241326332,0.152663305401802,0.0397005937993526,0.0,0.0,-0.9956945776939392,0.9799668788909912
-0.0746126174926757,1.2433736324310305,-0.3222902119159698,-0.0805014446377754,0.1523503810167312,-0.0062584555707871,0.0,0.0,-0.999366581439972,0.9746813774108888
-0.0778453797101974,1.2412649393081665,-0.3207692503929138,-0.0934676229953765,0.1498433351516723,-0.0501408688724041,0.0,0.0,-0.9992209672927856,0.9133379459381104
-0.0810928344726562,1.2388668060302734,-0.3201681971549988,-0.1061287894845008,0.1452750563621521,-0.0913656502962112,0.0,0.0,-0.9992947578430176,0.7527825832366943
-0.0843840613961219,1.2361657619476318,-0.3232094049453735,-0.1194803491234779,0.1393749266862869,-0.1180024966597557,0.0,0.0,-0.9992000460624696,0.5068372488021851
-0.0877333655953407,1.233162522315979,-0.3279747068881988,-0.1328389942646026,0.1324554830789566,-0.1383889019489288,0.0,0.0,-0.9944874048233032,0.6264629364013672
-0.0911307334899902,1.22986102104187,-0.3314771056175232,-0.1460207253694534,0.1242289617657661,-0.1645303964614868,0.0,0.0,-0.997316300868988,0.0512751340866088
-0.0946321487426757,1.2262539863586426,-0.3419405519962311,-0.1596562713384628,0.1160731762647628,-0.1631154865026474,0.0,0.0,-0.9851808547973632,0.8052380084991455
-0.0981902107596397,1.2223570346832275,-0.3463988602161407,-0.1724964827299118,0.106733314692974,-0.1867975890636444,0.0,0.0,-0.98986154794693,0.3255740404129028
-0.1018548980355262,1.218154788017273,-0.3571222126483917,-0.1861336231231689,0.0974663272500038,-0.1853397786617279,0.0,0.0,-0.9924612641334534,0.5939487218856812
-0.1055693626403808,1.2136554718017578,-0.3606966137886047,-0.199303850531578,0.0868071541190147,-0.2131835222244262,0.0,0.0,-0.8643031120300293,-0.3284981250762939
-0.109392836689949,1.2088510990142822,-0.3716543018817901,-0.2129430919885635,0.0762228369712829,-0.2116864919662475,0.0,0.0,-0.9935889840126038,0.3942878246307373
-0.1133261695504188,1.2037417888641355,-0.3827200531959533,-0.2265821546316146,0.0657142549753189,-0.2101716101169586,0.0,0.0,-0.9680938720703124,0.3203006982803345
-0.1173705086112022,1.1983273029327393,-0.3938878178596496,-0.2402210384607315,0.0552822425961494,-0.2086400240659713,0.0,0.0,-0.9929269552230836,-0.7835170030593872
-0.1215732544660568,1.1926007270812988,-0.4109866619110107,-0.2542063891887665,0.0461016334593296,-0.1836121976375579,0.0,0.0,-0.976201057434082,0.3677564859390259
-0.1258889138698578,1.1865683794021606,-0.4223407804965973,-0.267842948436737,0.0369990989565849,-0.1820509880781173,0.0,0.0,-0.9238339066505432,0.9087193012237548
-0.1302351951599121,1.180243968963623,-0.4233745634555816,-0.2808507680892944,0.0258842017501592,-0.2222980707883834,0.0,0.0,-0.8557310104370117,0.962889552116394
-0.1346022635698318,1.1736223697662354,-0.4231499135494232,-0.29411381483078,0.0124942976981401,-0.2677977979183197,0.0,0.0,-0.9648019671440125,0.4347476959228515
-0.1390845328569412,1.1666966676712036,-0.4347403049468994,-0.3077581524848938,-0.0008155387477017,-0.2661967277526855,0.0,0.0,-0.9210713505744934,-0.0023762583732604
-0.1436824798583984,1.1594666242599487,-0.446398913860321,-0.3214022219181061,-0.0140448063611984,-0.2645853161811828,0.0,0.0,-0.936721682548523,0.9032330513000488
-0.1483193337917328,1.1519229412078855,-0.4483972489833832,-0.3354855179786682,-0.0291423536837101,-0.3019512593746185,0.0,0.0,-0.9190152287483216,0.5951906442642212
-0.153033822774887,1.144077181816101,-0.4552464485168457,-0.3490919768810272,-0.0451448373496532,-0.3200494050979614,0.0,0.0,-0.9093093872070312,0.9150238037109376
-0.1577784568071365,1.1359204053878784,-0.4561469554901123,-0.3631743788719177,-0.0632597655057907,-0.3622986078262329,0.0,0.0,-0.8924049139022827,0.5699105262756348
-0.1625942289829254,1.127458095550537,-0.4621547162532806,-0.3770408928394317,-0.0824711248278617,-0.3842272162437439,0.0,0.0,-0.9239965081214904,0.9580544233322144
-0.1674518585205078,1.1186776161193848,-0.4645126461982727,-0.3915437459945678,-0.1035353690385818,-0.4212855696678161,0.0,0.0,-0.9206591844558716,0.973419189453125
-0.1723670065402984,1.109587788581848,-0.4688333570957184,-0.4057139456272125,-0.1260587871074676,-0.4504685401916504,0.0,0.0,-0.9284136891365052,0.518604040145874
-0.177357867360115,1.1001962423324585,-0.4754889905452728,-0.4195648431777954,-0.1495690196752548,-0.4702049791812897,0.0,0.0,-0.8926810622215271,0.8738851547241211
-0.1823907792568206,1.0904779434204102,-0.4778679013252258,-0.4346773326396942,-0.1749880462884903,-0.508381187915802,0.0,0.0,-0.9036226272583008,-0.638704776763916
-0.1875888854265213,1.0804805755615234,-0.4958024621009826,-0.4473320841789245,-0.1990966796875,-0.4821729660034179,0.0,0.0,-0.8458737730979919,0.4963295459747314
-0.1929058134555816,1.0701841115951538,-0.5078751444816589,-0.4610078036785126,-0.2231226712465286,-0.4805200695991516,0.0,0.0,-0.5619637370109558,0.713233232498169
-0.1982942521572113,1.059575438499451,-0.5140635371208191,-0.4754394590854645,-0.2482817023992538,-0.5031809210777283,0.0,0.0,-0.6360068321228027,-0.0388486385345459
-0.2038014382123947,1.0486679077148438,-0.5261632204055786,-0.4891186058521271,-0.2733587920665741,-0.5015415549278259,0.0,0.0,-0.7336228489875793,-0.8641675710678101
-0.2095050811767578,1.037503719329834,-0.5481297969818115,-0.5005074143409729,-0.296219140291214,-0.4572073519229889,0.0,0.0,0.2772626876831054,-0.0969536304473877
-0.2151427716016769,1.0266549587249756,-0.5420202016830444,-0.4867641031742096,-0.31873619556427,-0.4503417611122131,0.0,0.0,0.5848996639251709,-0.508554220199585
-0.2208532840013504,1.01607084274292,-0.550436794757843,-0.4750891625881195,-0.3402316570281982,-0.4299098551273346,0.0,0.0,0.7096312046051025,0.0742361545562744
-0.226503700017929,1.00562584400177,-0.5449738502502441,-0.4691055119037628,-0.3613226413726806,-0.4218193888664245,0.0,0.0,0.7453963756561279,-0.441403865814209
-0.2321769297122955,0.9954001307487488,-0.5473428964614868,-0.4596554338932037,-0.3824897706508636,-0.4233427941799164,0.0,0.0,0.5001535415649414,-0.8088772296905518
-0.2377644479274749,0.9859218001365662,-0.5405625104904175,-0.4262624382972717,-0.4019146263599396,-0.3884969353675842,0.0,0.0,0.3022148609161377,0.3546279668807983
-0.2431603968143463,0.9769914150238036,-0.5218952298164368,-0.4020367562770843,-0.4209713339805603,-0.3811339437961578,0.0,0.0,0.1627540588378906,-0.161232590675354
-0.2485110312700271,0.968594491481781,-0.5172467231750488,-0.3786405324935913,-0.4403178989887237,-0.3869312405586242,0.0,0.0,0.7163448333740234,-0.1585752964019775
-0.2539537847042084,0.9604479670524596,-0.5261219143867493,-0.3679036796092987,-0.4602116346359253,-0.3978755474090576,0.0,0.0,0.674777626991272,-0.6574923992156982
-0.2591620087623596,0.9530854225158693,-0.504240095615387,-0.3328111469745636,-0.478550910949707,-0.3667855858802795,0.0,0.0,0.123988389968872,0.0236669778823852
-0.2643674314022064,0.9459888339042664,-0.5039005279541016,-0.3212760686874389,-0.4971368014812469,-0.3717176616191864,0.0,0.0,0.5197027921676636,-0.3402059078216553
-0.2694355547428131,0.9394473433494568,-0.4901925027370453,-0.2968664169311523,-0.5158848166465759,-0.3749606907367706,0.0,0.0,-0.00932377576828,-0.526939868927002
-0.2746542990207672,0.9326358437538148,-0.5064960718154907,-0.3086566925048828,-0.5334212779998779,-0.350730299949646,0.0,0.0,0.5563725233078003,-0.5166793465614319
-0.2796680033206939,0.9261919856071472,-0.4873356223106384,-0.2920042276382446,-0.5495704412460327,-0.3229832649230957,0.0,0.0,0.7580525875091553,-0.5098945498466492
-0.2846181988716125,0.9199156165122986,-0.4821794629096985,-0.2842734158039093,-0.5644994974136353,-0.298581600189209,0.0,0.0,0.956038236618042,-0.2156450748443603
-0.2893338799476623,0.913850486278534,-0.459334522485733,-0.2747997343540191,-0.5788547396659851,-0.2871048748493194,0.0,0.0,0.9585788249969482,-0.067294955253601
-0.2936457097530365,0.9081873893737792,-0.4197928011417389,-0.2567256391048431,-0.5923388004302979,-0.2696806788444519,0.0,0.0,0.9608309268951416,-0.534515380859375
-0.2976986467838287,0.9026862382888794,-0.3954264521598816,-0.2489757090806961,-0.6041170954704285,-0.2355660498142242,0.0,0.0,0.9898500442504884,0.0856388807296752
-0.3013538420200348,0.8980021476745605,-0.3557572364807129,-0.2127210050821304,-0.615865170955658,-0.234961912035942,0.0,0.0,0.9924416542053224,-0.7351189851760864
-0.3046015202999115,0.8941512107849121,-0.3165337443351745,-0.1750707030296325,-0.6258615851402283,-0.1999288350343704,0.0,0.0,0.992030143737793,-0.4873514175415039
-0.3073647618293762,0.8908399939537048,-0.268759936094284,-0.1508372724056244,-0.6351044774055481,-0.1848575472831726,0.0,0.0,0.9905028343200684,-0.8253156542778015
-0.309950441122055,0.8876299262046814,-0.2527531087398529,-0.1455502808094024,-0.6422491073608398,-0.1428924202919006,0.0,0.0,0.9849355220794678,-0.325082778930664
-0.3123258948326111,0.8849048018455505,-0.2315717488527298,-0.124117188155651,-0.6496293544769287,-0.1476047486066818,0.0,0.0,0.8292030096054077,-0.818432629108429
-0.3141923546791076,0.8829859495162964,-0.1823441535234451,-0.0874682366847992,-0.654970109462738,-0.1068146228790283,0.0,0.0,0.8584953546524048,-0.9678561091423036
-0.315854012966156,0.8816166520118713,-0.163587287068367,-0.0621812343597412,-0.6581838130950928,-0.0642739906907081,0.0,0.0,0.7225828170776367,-0.8876338005065918
-0.3172738552093506,0.8811261057853699,-0.1408599913120269,-0.0223890207707881,-0.6595905423164368,-0.0281346142292022,0.0,0.0,-0.0715477466583252,-0.6701410412788391
-0.3188261389732361,0.8803718090057373,-0.1551510691642761,-0.0335654877126216,-0.6596872210502625,-0.0019333434756845,0.0,0.0,0.0441282987594604,-0.3283692002296448
-0.3202111721038818,0.8799034953117371,-0.138341024518013,-0.0208968762308359,-0.65989089012146,-0.0040731839835643,0.0,0.0,0.20027756690979,-0.5362764000892639
-0.3214402198791504,0.8798744082450867,-0.1236289739608764,-0.0009134538122452,-0.6589842438697815,0.0181324947625398,0.0,0.0,0.2469797134399414,0.2673964500427246
-0.3225458562374115,0.8800014853477478,-0.111253872513771,0.0060000023804605,-0.6581178903579712,0.0173265989869833,0.0,0.0,0.085989236831665,-0.5828207731246948
-0.3236019015312195,0.8804107308387756,-0.10727409273386,0.0190474689006805,-0.6560398936271667,0.0415600314736366,0.0,0.0,-0.0835423469543457,-0.1899635195732116
-0.3247444629669189,0.8805131316184998,-0.1159558296203613,0.005420175846666,-0.6539185643196106,0.0424260273575782,0.0,0.0,0.0932296514511108,-0.3895704746246338
-0.3256255090236664,0.8808106780052185,-0.090109959244728,0.014244039542973,-0.6514316201210022,0.0497393570840358,0.0,0.0,-0.0272807478904724,-0.3168220520019531
-0.326586902141571,0.880801260471344,-0.0981767028570175,0.0006164244841784,-0.6489049792289734,0.0505332238972187,0.0,0.0,-0.1314067244529724,-0.090958833694458
-0.3276252150535583,0.8804849982261658,-0.1059075593948364,-0.0130113111808896,-0.6463406085968018,0.0512879006564617,0.0,0.0,-0.4214332103729248,-0.3684459924697876
-0.3287370204925537,0.8798618316650391,-0.1132829934358596,-0.0266391709446907,-0.6437404751777649,0.052001167088747,0.0,0.0,-0.3019942045211792,-0.2792854905128479
-0.3299184739589691,0.8789318799972534,-0.1202830076217651,-0.0402671620249748,-0.641106903553009,0.0526707060635089,0.0,0.0,-0.536807656288147,-0.1904706358909607
-0.3311657011508941,0.8776950240135193,-0.1268873661756515,-0.0538952872157096,-0.6384422779083252,0.0532942228019237,0.0,0.0,-0.5927928686141968,0.0108933448791503
-0.3324745297431946,0.8761513829231262,-0.1330756247043609,-0.0675235465168953,-0.6357488632202148,0.0538692958652973,0.0,0.0,0.3870619535446167,-0.2321932911872863
-0.3334069848060608,0.8750535845756531,-0.0956580936908721,-0.0476059764623642,-0.6327937841415405,0.0591030903160572,0.0,0.0,-0.7365458607673645,0.0404069423675537
-0.3343921303749084,0.8736491203308105,-0.1009530648589134,-0.0612346194684505,-0.6298150420188904,0.0595743879675865,0.0,0.0,-0.0566999316215515,0.6881421804428101
-0.3353904187679291,0.8719013333320618,-0.1013143211603164,-0.0769641771912574,-0.6280041337013245,0.0362183079123497,0.0,0.0,-0.6897084712982178,-0.2045058608055114
-0.3364317417144775,0.8698467016220093,-0.1056357994675636,-0.0905927345156669,-0.6261753439903259,0.0365761034190654,0.0,0.0,-0.4178332090377807,-0.5500880479812622
-0.3375469744205475,0.8675239682197571,-0.1140493154525756,-0.1020175144076347,-0.6230962872505188,0.0615814812481403,0.0,0.0,0.6344759464263916,-0.2949841022491455
-0.3383658826351166,0.8655148148536682,-0.0845372006297111,-0.0880287513136863,-0.6198866963386536,0.0641919821500778,0.0,0.0,0.3205015659332275,-0.3326079845428467
-0.3389599919319153,0.863459050655365,-0.0624668002128601,-0.0899158790707588,-0.6161857843399048,0.0740183070302009,0.0,0.0,-0.0839703679084777,-0.5571264028549194
-0.3396041393280029,0.8611301779747009,-0.0683256089687347,-0.1016652360558509,-0.6114647388458252,0.0944208651781082,0.0,0.0,-0.4923943281173706,-0.5561577677726746
-0.3402957320213318,0.8585349321365356,-0.0740502029657363,-0.1130712181329727,-0.6055803894996643,0.1176874488592147,0.0,0.0,0.1384695768356323,-0.6858209371566772
