x_pos,y_pos,x_vel,y_vel,angle,ang_vel,leg_1,leg_2,main_booster,lat_booster
-0.0015310287708416,1.4031764268875122,-0.1551950722932815,-0.3441672623157501,0.0018665110692381,0.0368269123136997,0.0,0.0,-0.3517636656761169,0.749809980392456
-0.0030094147659838,1.395004153251648,-0.1481548249721527,-0.3632087707519531,0.0021777458023279,0.0062259803526103,0.0,0.0,0.0990780591964721,0.8591587543487549
-0.004331684205681,1.386780858039856,-0.130987599492073,-0.3654817938804626,0.0009549464448355,-0.0244582407176494,0.0,0.0,-0.2399601936340332,0.4740691184997558
-0.0056718825362622,1.3781092166900637,-0.1329113394021988,-0.385405570268631,-0.0001416029845131,-0.0219332762062549,0.0,0.0,-0.0401774048805236,0.2255928516387939
-0.0070334435440599,1.3689894676208496,-0.1351796239614486,-0.4053213894367218,-0.0011010748567059,-0.0191914923489093,0.0,0.0,-0.3265801668167114,0.8182706832885742
-0.0083404537290334,1.3594202995300293,-0.1278686821460724,-0.4252978265285492,-0.0038996879011392,-0.0559775605797767,0.0,0.0,0.3232945203781128,0.5318409204483032
-0.0096508981660008,1.3500968217849731,-0.1272707730531692,-0.4143880009651184,-0.0076380115933716,-0.0747735351324081,0.0,0.0,-0.2762801051139831,0.4844286441802978
-0.0109918592497706,1.3403253555297852,-0.130493551492691,-0.4343112409114837,-0.0112067367881536,-0.0713810622692108,0.0,0.0,0.2776343822479248,0.3314752578735351
-0.0123682972043752,1.331076741218567,-0.1341763436794281,-0.4110799729824066,-0.0146410632878541,-0.0686923712491989,0.0,0.0,-0.2036073207855224,0.8617615699768066
-0.0137130739167332,1.3213839530944824,-0.1294722110033035,-0.4308497309684753,-0.0195917319506406,-0.0990223214030265,0.0,0.0,0.3548926115036011,0.881790041923523
-0.0149369239807128,1.311970829963684,-0.1158976107835769,-0.4184598326683044,-0.0260062236338853,-0.1283017843961715,0.0,0.0,-0.2890793085098266,-0.3413046002388
-0.0162020679563283,1.302109956741333,-0.1202264279127121,-0.4383851885795593,-0.0322145260870456,-0.1241774335503578,0.0,0.0,-0.1309427618980407,0.6292531490325928
-0.0174503326416015,1.2918018102645874,-0.1172320023179054,-0.4583212733268738,-0.0397263169288635,-0.1502496898174286,0.0,0.0,0.1274991035461425,0.176446795463562
-0.0186877250671386,1.2814065217971802,-0.1165923103690147,-0.4622155725955963,-0.0467935428023338,-0.1413575261831283,0.0,0.0,-0.3740952014923095,-0.4338474869728088
-0.019973088055849,1.2705636024475098,-0.1216256842017173,-0.482138842344284,-0.0536326766014099,-0.1367951482534408,0.0,0.0,0.4680225849151611,0.0005892515182495
-0.0211969371885061,1.259660720825195,-0.1161887496709823,-0.4848054647445678,-0.0597783103585243,-0.1229239553213119,0.0,0.0,-0.2121167182922363,-0.7037225365638733
-0.0225153919309377,1.2483220100402832,-0.1269687712192535,-0.5041505098342896,-0.0646027624607086,-0.0964981764554977,0.0,0.0,0.3412364721298218,0.0418481826782226
-0.0237525943666696,1.2369792461395264,-0.1196480020880699,-0.5043050050735474,-0.0686380937695503,-0.0807138159871101,0.0,0.0,-0.284692645072937,-0.5170702934265137
-0.0250793453305959,1.2251965999603271,-0.1297291219234466,-0.5238135457038879,-0.0715574398636818,-0.0583920888602733,0.0,0.0,-0.3096058368682861,-0.0948793292045593
-0.0264633186161518,1.2129656076431274,-0.1357121169567108,-0.5437287092208862,-0.0742189511656761,-0.0532348752021789,0.0,0.0,0.263740062713623,-0.3175216913223266
-0.0277660377323627,1.2011358737945557,-0.1283095777034759,-0.5258686542510986,-0.0761620849370956,-0.0388664118945598,0.0,0.0,0.5177834033966064,-0.5229101777076721
-0.0291277877986431,1.189465880393982,-0.1355610191822052,-0.5186958312988281,-0.0767685398459434,-0.0121301505714654,0.0,0.0,0.2537108659744262,0.5994923114776611
-0.030363654717803,1.1779465675354004,-0.122245468199253,-0.5120356678962708,-0.0780960991978645,-0.0265535600483417,0.0,0.0,-0.6446595191955566,0.2596087455749511
-0.0316620841622352,1.1659789085388184,-0.1287824660539627,-0.5319540500640869,-0.0791472643613815,-0.0210254695266485,0.0,0.0,-0.426089346408844,0.26766037940979
-0.033024214208126,1.1535629034042358,-0.1354313343763351,-0.5518687963485718,-0.0799187645316124,-0.0154314190149307,0.0,0.0,-0.2671433091163635,0.6893901824951172
-0.034410573542118,1.140675663948059,-0.1371045410633087,-0.5728492140769958,-0.0814467668533325,-0.0305598489940166,0.0,0.0,-0.620854914188385,0.3149347305297851
-0.035862635821104,1.1273401975631714,-0.143948882818222,-0.5927625894546509,-0.0826886370778083,-0.0248375423252582,0.0,0.0,-0.1954603195190429,-0.4368680119514465
-0.0373809821903705,1.1135560274124146,-0.1508748829364776,-0.6126758456230164,-0.0836417824029922,-0.0190629642456769,0.0,0.0,-0.9365692138671876,0.3133790493011474
-0.0389663688838481,1.0993236303329468,-0.1578731387853622,-0.6325891017913818,-0.0843038260936737,-0.0132409017533063,0.0,0.0,-0.6803803443908691,-0.0368766188621521
-0.0406194701790809,1.0846426486968994,-0.1649345755577087,-0.652502179145813,-0.084672600030899,-0.0073756859637796,0.0,0.0,-0.6726602911949158,0.1439028978347778
-0.0423407554626464,1.0695134401321411,-0.1720502525568008,-0.6724151968955994,-0.0847461745142936,-0.0014716529985889,0.0,0.0,-0.2822471857070923,0.3455471992492676
-0.0441306121647357,1.0539357662200928,-0.1792114228010177,-0.6923282742500305,-0.0845228359103202,0.004466718994081,0.0,0.0,-0.4803348779678345,-0.647661030292511
-0.0460471138358116,1.0379230976104736,-0.1936621516942978,-0.7115603089332581,-0.0825320184230804,0.0398162491619586,0.0,0.0,-0.5773642659187317,-0.0725230574607849
-0.0480329506099224,1.0214622020721436,-0.2008888274431228,-0.7314736843109131,-0.0802414193749427,0.0458120144903659,0.0,0.0,0.5629807710647583,-0.3605939149856567
-0.050025176256895,1.0054380893707275,-0.2019156962633133,-0.7120344638824463,-0.0775787532329559,0.0532535016536712,0.0,0.0,-0.5105966925621033,-0.5022403001785278
-0.0521251671016216,0.9889742732048036,-0.2139774113893509,-0.73153156042099,-0.0736430659890174,0.0787140652537345,0.0,0.0,0.3347554206848144,-0.4902665615081787
-0.0542887672781944,0.9726146459579468,-0.2205485999584198,-0.7268909811973572,-0.0695027410984039,0.0828064829111099,0.0,0.0,0.7407090663909912,0.5783648490905762
-0.0563774108886718,0.957002341747284,-0.212310716509819,-0.6937299966812134,-0.0660968422889709,0.0681179240345954,0.0,0.0,-0.653493344783783,0.2469041347503662
-0.0585354790091514,0.9409415125846864,-0.2195593863725662,-0.7136443853378296,-0.0623871237039566,0.0741943567991256,0.0,0.0,-0.8593769073486328,0.7397801876068115
-0.060701560229063,0.92442786693573,-0.2191095054149627,-0.7338370084762573,-0.0599148161709308,0.0494463667273521,0.0,0.0,-0.0565647482872009,0.1142330169677734
-0.0629365891218185,0.9074659943580629,-0.2263130396604538,-0.7537510395050049,-0.0571382194757461,0.0555317401885986,0.0,0.0,-0.4906686544418335,0.6222527027130127
-0.0651811584830284,0.8900495171546936,-0.2260551452636718,-0.7740113139152527,-0.0555499531328678,0.0317653715610504,0.0,0.0,-0.0803743600845336,0.6725417375564575
-0.0674324035644531,0.8721719980239868,-0.2254678308963775,-0.7945423126220703,-0.0552135184407234,0.0067289220169186,0.0,0.0,-0.9018695950508118,0.6106457710266113
-0.0696952790021896,0.8538402915000916,-0.2255008220672607,-0.8147714734077454,-0.0559892170131206,-0.0155138671398162,0.0,0.0,0.5191686153411865,-0.1146162748336792
-0.0720474272966384,0.8354689478874207,-0.2345674037933349,-0.8165279626846313,-0.0566345229744911,-0.0129060838371515,0.0,0.0,0.1624150276184082,0.1592662334442138
-0.0744205489754676,0.8169986009597778,-0.2371241301298141,-0.8209095597267151,-0.0568276196718215,-0.0038620964623987,0.0,0.0,-0.3625800013542175,0.7799410820007324
-0.0767919570207595,0.7980698943138123,-0.2355202436447143,-0.841335654258728,-0.0584292002022266,-0.0320318639278411,0.0,0.0,-0.3301230669021606,0.7069530487060547
-0.0791827216744422,0.7786964774131775,-0.2366108447313308,-0.861134946346283,-0.0608727000653743,-0.0488697215914726,0.0,0.0,0.7856392860412598,0.65333092212677
-0.0816886872053146,0.7601656317710876,-0.2467341870069503,-0.8237607479095459,-0.0646922811865806,-0.0763915032148361,0.0,0.0,-0.5046291947364807,0.4578135013580322
-0.0842581763863563,0.7411864995956421,-0.2533841133117676,-0.8436754941940308,-0.0682130828499794,-0.070416010916233,0.0,0.0,0.8573858737945557,0.978251338005066
-0.0865898132324218,0.7226932644844055,-0.2282274216413498,-0.8221467137336731,-0.0731022581458091,-0.0977833718061447,0.0,0.0,0.7199466228485107,0.7885816097259521
-0.0889302268624305,0.7049052715301514,-0.227687194943428,-0.7909032106399536,-0.0793916657567024,-0.1257880926132202,0.0,0.0,0.1536563634872436,0.5251268148422241
-0.0911815613508224,0.6871158480644226,-0.2181919813156128,-0.7910292148590088,-0.0862703397870063,-0.1375736594200134,0.0,0.0,0.7422895431518555,0.1409922838211059
-0.0934164077043533,0.6701351404190063,-0.2168553322553634,-0.7550922632217407,-0.0928409621119499,-0.1314121484756469,0.0,0.0,0.2016248703002929,0.1686660051345825
-0.0955686569213867,0.6532211899757385,-0.2093971967697143,-0.7521079182624817,-0.0986196473240852,-0.1155738607048988,0.0,0.0,0.6209049224853516,0.1684117317199707
-0.0978256240487098,0.6365630030632019,-0.2197270095348358,-0.7407674193382263,-0.1045434772968292,-0.118476465344429,0.0,0.0,-0.1353497505187988,0.1238640546798706
-0.1001383811235427,0.6194568276405334,-0.2255882918834686,-0.760683000087738,-0.110180951654911,-0.1127497181296348,0.0,0.0,-0.3992524147033691,-0.0257999897003173
-0.1025054007768631,0.6019026041030884,-0.2313143759965896,-0.7805981040000916,-0.1155344620347023,-0.1070702075958252,0.0,0.0,0.9596176147460938,0.6125478744506836
-0.1046701446175575,0.5853367447853088,-0.2104080021381378,-0.7367388606071472,-0.1215680241584777,-0.1206714361906051,0.0,0.0,-0.4554256796836853,0.473939299583435
-0.1068864837288856,0.5683228969573975,-0.2158489525318145,-0.7566542029380798,-0.1273227781057357,-0.1150949746370315,0.0,0.0,0.7763968706130981,0.3595659732818603
-0.1090476959943771,0.5514428019523621,-0.2108790129423141,-0.7506839632987976,-0.132546916604042,-0.1044825911521911,0.0,0.0,0.8907911777496338,0.6499181985855103
-0.1112224608659744,0.535325825214386,-0.2108848094940185,-0.7169126272201538,-0.1391094624996185,-0.1312512010335922,0.0,0.0,0.5693824291229248,0.4337434768676758
-0.1132597923278808,0.5194661021232605,-0.1979757696390152,-0.7054271697998047,-0.1448593586683273,-0.1149974912405014,0.0,0.0,0.0273597240447998,0.2956013679504394
-0.1152730956673622,0.5037207007408142,-0.1959074586629867,-0.7003322839736938,-0.1502747386693954,-0.1083075255155563,0.0,0.0,-0.0727502703666687,0.5773309469223022
-0.1172849684953689,0.4875125885009765,-0.1948587596416473,-0.7210139632225037,-0.1565989553928375,-0.1264843791723251,0.0,0.0,0.6448780298233032,0.0382859706878662
-0.1193690299987793,0.4717570841312408,-0.2017664015293121,-0.7009594440460205,-0.1632335484027862,-0.1326918452978134,0.0,0.0,-0.5345020890235901,-0.0740118026733398
-0.1214935332536697,0.4555534124374389,-0.2060777395963668,-0.7208747863769531,-0.1696120649576187,-0.1275704056024551,0.0,0.0,0.3967690467834472,-0.4156380891799927
-0.1235466971993446,0.439249575138092,-0.1995207816362381,-0.7252877950668335,-0.1754173934459686,-0.1161058321595192,0.0,0.0,0.4617822170257568,0.1423494815826416
-0.125481516122818,0.4236067831516266,-0.1880521476268768,-0.6958854794502258,-0.1808638870716095,-0.1089299917221069,0.0,0.0,0.4390901327133178,0.7146672010421753
-0.1274116486310959,0.4081304371356964,-0.1862475574016571,-0.6886777877807617,-0.1876569092273712,-0.1358603984117508,0.0,0.0,-0.3459775447845459,-0.0945861935615539
-0.1293752640485763,0.392206072807312,-0.1898495703935623,-0.70859295129776,-0.1942101567983627,-0.1310653984546661,0.0,0.0,0.7976226806640625,-0.3662821054458618
-0.1312071830034256,0.3768203258514404,-0.1770691573619842,-0.6846235394477844,-0.2003733366727829,-0.1232634633779525,0.0,0.0,0.8100817203521729,-0.0392464399337768
-0.1330232620239257,0.3623887598514557,-0.1750718057155609,-0.6423028111457825,-0.2069586962461471,-0.1317075043916702,0.0,0.0,0.0639156103134155,-0.1788625717163086
-0.1347448378801345,0.3480403125286102,-0.1660718023777008,-0.6385733485221863,-0.2130992710590362,-0.1228114962577819,0.0,0.0,0.8887853622436523,-0.1291151046752929
-0.1364359855651855,0.3339113593101501,-0.163079172372818,-0.6288367509841919,-0.2191971391439438,-0.1219570785760879,0.0,0.0,0.6157352924346924,-0.2840622663497925
-0.1380178481340408,0.3197779059410095,-0.15267014503479,-0.6289836168289185,-0.2247713357210159,-0.1114842519164085,0.0,0.0,0.8910927772521973,-0.8033909201622009
-0.1396374702453613,0.3057907223701477,-0.1581861078739166,-0.6222347021102905,-0.2286048829555511,-0.0766709744930267,0.0,0.0,0.9801797866821288,-0.0328626036643981
-0.1410727500915527,0.2927473187446594,-0.1398996412754058,-0.5802729725837708,-0.232279285788536,-0.0734879374504089,0.0,0.0,0.6419954299926758,-0.2819377183914184
-0.1422634124755859,0.2804113626480102,-0.1160063594579696,-0.5487498641014099,-0.2353855818510055,-0.0621257051825523,0.0,0.0,0.5039618015289307,-0.8460878133773804
-0.1434733420610427,0.2687837481498718,-0.1196585893630981,-0.5169965624809265,-0.2367382049560547,-0.0270520243793725,0.0,0.0,0.7632365226745605,-0.6787598133087158
-0.144815057516098,0.2572875916957855,-0.1340329349040985,-0.5109631419181824,-0.2368828654289245,-0.0028928136453032,0.0,0.0,0.9440277814865112,0.5162632465362549
-0.1458639204502105,0.2466715425252914,-0.1040418744087219,-0.4719609320163727,-0.2377323061227798,-0.0169890988618135,0.0,0.0,0.802048921585083,0.6156835556030273
-0.1468458175659179,0.2365466654300689,-0.0960129052400589,-0.4503482580184936,-0.2399490177631378,-0.0443345569074153,0.0,0.0,0.6937603950500488,-0.7789414525032043
-0.147793099284172,0.2270327657461166,-0.0941439643502235,-0.4229341149330139,-0.2405364662408828,-0.0117488438263535,0.0,0.0,0.663970947265625,0.1554764509201049
-0.1485939025878906,0.2181005775928497,-0.0796148404479026,-0.3970637619495392,-0.2410143315792083,-0.009556932374835,0.0,0.0,0.7945102453231812,-0.268379807472229
-0.1491601914167404,0.2096063494682312,-0.0567415542900562,-0.3775009214878082,-0.2408948391675949,0.0023897832725197,0.0,0.0,-0.3330811262130737,-0.7454802989959717
-0.1497892439365387,0.2006767392158508,-0.0645927339792251,-0.3965988457202911,-0.2391830086708068,0.0342367440462112,0.0,0.0,0.6675257682800293,-0.386979877948761
-0.1502365171909332,0.191857561469078,-0.0469733029603958,-0.3915992379188537,-0.236891284584999,0.0458346232771873,0.0,0.0,0.2837468385696411,-0.4989842772483825
-0.1504723578691482,0.1831966787576675,-0.0265048183500766,-0.3844620585441589,-0.2339302599430084,0.0592205114662647,0.0,0.0,0.0449798107147216,-0.742120087146759
-0.1506119668483734,0.1744309216737747,-0.0185466464608907,-0.3888677060604095,-0.2292816787958145,0.0929717272520065,0.0,0.0,0.0143536329269409,-0.8152517676353455
-0.1507138311862945,0.1659200340509414,-0.0165275000035762,-0.3772913217544555,-0.2228579521179199,0.128474622964859,0.0,0.0,0.5284216403961182,-0.8412243723869324
-0.1506933271884918,0.1580054312944412,-0.0061392309144139,-0.3505389988422394,-0.2145681530237198,0.1657955795526504,0.0,0.0,0.0976053476333618,-0.2506747245788574
-0.1504965722560882,0.1502665877342224,0.0109728081151843,-0.3427100777626037,-0.2057806700468063,0.1757496744394302,0.0,0.0,-0.1034134626388549,0.1243748664855957
-0.1502978354692459,0.1420803368091583,0.0110530043020844,-0.362629622220993,-0.1968845576047897,0.1779222786426544,0.0,0.0,0.4407112598419189,0.4439444541931152
-0.1500541716814041,0.1341133862733841,0.0156427733600139,-0.3529473841190338,-0.1880981177091598,0.1757283508777618,0.0,0.0,0.8525135517120361,0.2989970445632934
-0.1495322287082672,0.1270981580018997,0.0429042279720306,-0.3106379508972168,-0.1787767708301544,0.1864262372255325,0.0,0.0,0.7191853523254395,-0.557280421257019
-0.1489691734313964,0.1205285415053367,0.0458747074007988,-0.2907590866088867,-0.1683174520730972,0.209186390042305,0.0,0.0,0.2068151235580444,-0.4659022688865661
-0.148392766714096,0.1143941506743431,0.0475243777036666,-0.2715231776237488,-0.1581951081752777,0.2024467885494232,0.0,0.0,0.0384396314620971,-0.3371878862380981
-0.1476868689060211,0.1084498018026351,0.0601150915026664,-0.2631168365478515,-0.1477423310279846,0.2090557813644409,0.0,0.0,0.1615881919860839,-0.2090517282485962
-0.14693383872509,0.1028494909405708,0.0649303942918777,-0.2479044944047927,-0.1373922824859619,0.2070009410381317,0.0,0.0,-0.164937674999237,-0.3008349537849426
-0.1461733877658844,0.0968025028705596,0.0655867308378219,-0.2678277194499969,-0.1269767433404922,0.2083106935024261,0.0,0.0,0.3534259796142578,0.1637998819351196
-0.1453737318515777,0.0909195244312286,0.0695349425077438,-0.260610431432724,-0.1165957897901535,0.2076191157102584,0.0,0.0,0.7455834150314331,0.7337216138839722
-0.1445678770542144,0.0855502486228942,0.0718510523438453,-0.2379724532365799,-0.1079113334417343,0.1736892312765121,0.0,0.0,0.0229878425598144,-0.0785340070724487
-0.1438112258911132,0.0802326053380966,0.067300871014595,-0.2357614040374755,-0.0996093153953552,0.1660401821136474,0.0,0.0,0.4053709506988525,0.5250282287597656
-0.1428465843200683,0.0753622874617576,0.0888595581054687,-0.2159703522920608,-0.0920771658420562,0.1506430804729461,0.0,0.0,0.2660610675811767,0.1918809413909912
-0.1418004930019378,0.0704605653882026,0.0967507362365722,-0.2173943221569061,-0.0842895358800888,0.1557526439428329,0.0,0.0,0.1144683361053466,0.3907002210617065
-0.1406047791242599,0.0658683404326438,0.1112152338027954,-0.2036504000425338,-0.0760163217782974,0.1654644906520843,0.0,0.0,0.0297313928604125,-0.194658875465393
-0.1393778771162033,0.061553917825222,0.1143712848424911,-0.191350445151329,-0.0677809193730354,0.1647082865238189,0.0,0.0,-0.052835464477539,0.5447161197662354
-0.1380888968706131,0.0567931048572063,0.1219024062156677,-0.2112927734851837,-0.0608619377017021,0.1383795291185379,0.0,0.0,0.4329895973205566,0.7155038118362427
-0.1366312950849533,0.0523255430161953,0.1400573253631591,-0.1983360648155212,-0.0552224367856979,0.112790048122406,0.0,0.0,0.2768728733062744,0.3792657852172851
-0.1351364105939865,0.0483559481799602,0.1437941342592239,-0.1762302368879318,-0.0495938211679458,0.1125724911689758,0.0,0.0,0.1098661422729492,-0.2605907917022705
-0.1335670500993728,0.0447282418608665,0.1510442197322845,-0.1610483080148697,-0.0437658056616783,0.1165602803230285,0.0,0.0,0.1563819646835327,0.5046117305755615
-0.1318750381469726,0.0411244966089725,0.1641885787248611,-0.1600272059440612,-0.0388084948062896,0.0991459712386131,0.0,0.0,0.2539986371994018,-0.7540636658668518
-0.1303226500749588,0.0377874001860618,0.1488168239593505,-0.1481617391109466,-0.0324722006916999,0.1267260462045669,0.0,0.0,0.0469205379486084,-0.1481732130050659
-0.1288352012634277,0.03449572250247,0.1427104771137237,-0.1461776942014694,-0.0265119094401597,0.1192059069871902,0.0,0.0,-0.1356416344642639,-0.2100078463554382
-0.1273426115512848,0.0307564362883567,0.143220379948616,-0.1660957783460617,-0.0205544121563434,0.1191499382257461,0.0,0.0,0.6128010749816895,0.5634626150131226
-0.125763326883316,0.0273471698164939,0.1529698371887207,-0.1514640003442764,-0.0156543403863906,0.0980015844106674,0.0,0.0,0.404752254486084,0.1414093971252441
-0.1240649223327636,0.0239461995661258,0.1643694341182708,-0.1511106193065643,-0.0102488407865166,0.1081097722053527,0.0,0.0,0.4605963230133056,0.2791571617126465
-0.1222717314958572,0.0210028514266014,0.1734411716461181,-0.1307862699031829,-0.0044553484767675,0.1158698797225952,0.0,0.0,0.489227294921875,-0.408984899520874
-0.1204516440629959,0.0187023729085922,0.1760494410991668,-0.1022378578782081,0.0014299529138952,0.1177060008049011,0.0,0.0,-0.0552030801773071,-0.2461090087890625
