x_pos,y_pos,x_vel,y_vel,angle,ang_vel,leg_1,leg_2,main_booster,lat_booster
-0.0015275955665856,1.4034137725830078,-0.1550139486789703,-0.3336113393306732,0.0020129918120801,0.0397269055247306,0.0,0.0,-0.3498907165119,-0.9238546824719946
-0.0031276703812181,1.395715594291687,-0.1639104783535003,-0.3421560823917389,0.0058725816197693,0.0771999806165695,0.0,0.0,0.8169087345879982,0.8490736877227061
-0.0045098303817212,1.388468623161316,-0.140976995229721,-0.3221015334129333,0.0086027439683675,0.0546082444489002,0.0,0.0,-0.9593548329101776,0.971088626661606
-0.0058404924347996,1.381008505821228,-0.1344776302576065,-0.3315686881542206,0.0099985711276531,0.0279191769659519,0.0,0.0,-0.6018421653739814,-0.6522120736015654
-0.0072233201935887,1.3733394145965576,-0.1409250646829605,-0.3408701717853546,0.0126063143834471,0.0521597936749458,0.0,0.0,-0.1622875274758595,-0.814725828264615
-0.0086697582155466,1.3654576539993286,-0.1487302482128143,-0.350335955619812,0.0166451446712017,0.0807842686772346,0.0,0.0,-0.415703704991974,-0.5796682982355454
-0.0101798055693507,1.3573646545410156,-0.1564740240573883,-0.3597640693187713,0.0220490079373121,0.1080871671438217,0.0,0.0,-0.8261101918634932,0.7702095753827312
-0.011633014306426,1.3490660190582275,-0.1490166783332824,-0.3688880801200866,0.0257133897393941,0.0732939839363098,0.0,0.0,-0.6014332710224819,-0.9523681900742618
-0.01318359375,1.340564489364624,-0.1608700603246688,-0.3779551386833191,0.0314550809562206,0.1148444041609764,0.0,0.0,0.7386684892756634,-0.5754766946407119
-0.0148279191926121,1.3330005407333374,-0.1715264618396759,-0.3363432586193084,0.0384743884205818,0.1403993666172027,0.0,0.0,-0.6459366262099824,-0.9850733428597724
-0.0165645591914653,1.3252235651016235,-0.1825769692659378,-0.3459006547927856,0.0472973845899105,0.17647585272789,0.0,0.0,-0.8152648559667919,0.7730332803123734
-0.018261432647705,1.3172401189804075,-0.1769905984401703,-0.3550652861595154,0.0545259751379489,0.1445851922035217,0.0,0.0,0.1070014533165284,0.9968651829220648
-0.0198321342468261,1.3097686767578125,-0.1624700725078582,-0.3322678506374359,0.0598698034882545,0.1068862080574035,0.0,0.0,-0.8451999348689103,0.81725645517468
-0.0213641170412302,1.3020857572555542,-0.1568619310855865,-0.3416159749031067,0.0635045170783996,0.072700947523117,0.0,0.0,0.4581783273735356,0.5199788956192573
-0.0228034015744924,1.2953037023544312,-0.1469855457544326,-0.301557183265686,0.0665368512272834,0.0606520064175128,0.0,0.0,-0.2446065033253441,0.7943838548906821
-0.024206543341279,1.288309097290039,-0.1415720880031585,-0.3109301626682281,0.067781426012516,0.0248936675488948,0.0,0.0,-0.7434080937086962,0.7339591408375798
-0.025579834356904,1.2811195850372314,-0.1368458420038223,-0.3195045888423919,0.0672975108027458,-0.0096792075783014,0.0,0.0,0.5686624673669052,-0.9925304801363826
-0.0269448272883892,1.2742514610290527,-0.1382249891757965,-0.3053358793258667,0.0690104365348815,0.0342617332935333,0.0,0.0,-0.5453552547757814,0.7405374451355227
-0.0282883644104003,1.267186403274536,-0.1344014555215835,-0.3139999806880951,0.0690539181232452,0.0008701252518221,0.0,0.0,-0.2742798512573903,-0.9070050272758235
-0.029761504381895,0.0,-0.1494573950767517,-0.3238476812839508,0.0711769014596939,0.0424631163477897,0.0,0.0,0.0667606526828878,-0.5345234789913649
-0.0312717445194721,1.2531428337097168,-0.154409259557724,-0.3005790114402771,0.0745429098606109,0.0673265010118484,0.0,0.0,-0.2996578211025344,0.9107221055979742
-0.0327621474862098,1.246175765991211,-0.1505962759256363,-0.3097187280654907,0.0760757178068161,0.0306588076055049,0.0,0.0,0.0510877125432951,0.6075662514241804
-0.0341947562992572,1.239531636238098,-0.1437073349952697,-0.2953184843063354,0.0765278413891792,0.0090433247387409,0.0,0.0,0.0431379199827903,-0.6908309996458539
-0.0357048027217388,1.2329633235931396,-0.1529034376144409,-0.2920185327529907,0.0783974975347518,0.0373964495956897,0.0,0.0,-0.2592893921130343,-0.6306498028657899
-0.0373380668461322,1.226179122924805,-0.1667497158050537,-0.301706999540329,0.0818038955330848,0.0681338533759117,0.0,0.0,0.6860595094627491,-0.788560575074009
-0.0393182747066021,0.0,-0.2027148753404617,-0.2653931975364685,0.0864494666457176,0.0929113328456878,0.0,0.0,-0.0059378139476398,-0.6592859059119088
-0.0414167419075965,1.2140355110168457,-0.2158122807741165,-0.2749461531639099,0.0923680514097213,0.11837188154459,0.0,0.0,-0.1880772161818988,-0.94454395410155
-0.0436749458312988,1.2076443433761597,-0.2340626418590545,-0.2845757603645324,0.1005350574851036,0.1633401811122894,0.0,0.0,-0.6557694591773193,0.5393629224336751
-0.045971393585205,1.2010529041290283,-0.2369700223207473,-0.2934623062610626,0.10781080275774,0.1455149352550506,0.0,0.0,0.2045866806456435,-0.6576984466344169
-0.0484477989375591,1.194768309593201,-0.2562224864959717,-0.2799620628356933,0.1163193210959434,0.1701701879501342,0.0,0.0,-0.1015328240593658,-0.6302912996388286
-0.0510486587882041,1.1882727146148682,-0.2697938978672027,-0.2894819974899292,0.1259812712669372,0.1932390481233596,0.0,0.0,-0.903157651424408,0.9979116916656494
-0.0536585822701454,0.0,-0.2688904404640198,-0.2983819842338562,0.1338412314653396,0.1571996510028839,0.0,0.0,-0.9110243320465088,0.9987223148345948
-0.0562817566096782,1.1746894121170044,-0.2684060037136078,-0.3065707385540008,0.1398988962173462,0.121153213083744,0.0,0.0,-0.9856829643249512,0.9916350841522216
-0.0589168556034565,1.1675994396209717,-0.2677208185195923,-0.3155098855495453,0.1441065073013305,0.0841521993279457,0.0,0.0,-0.9472190141677856,0.9955589771270752
-0.0615561492741107,1.1603184938430786,-0.2660060524940491,-0.3238059282302856,0.1461804509162902,0.041478507220745,0.0,0.0,-0.9561888575553894,0.9945785999298096
-0.0642020255327224,1.1528518199920654,-0.2645160257816314,-0.3318482637405395,0.1461075544357299,-0.0014577868860214,0.0,0.0,-0.8945060968399048,0.961822748184204
-0.066863439977169,1.1451852321624756,-0.2641200423240661,-0.3405360281467438,0.1440984159708023,-0.040182814002037,0.0,0.0,-0.8656736612319946,0.984246015548706
-0.0695333480834961,1.1373332738876345,-0.2627753019332886,-0.348565936088562,0.1398887932300567,-0.0841926112771034,0.0,0.0,-0.9047603011131288,0.9811512231826782
-0.0722241401672363,1.129297137260437,-0.2628976106643677,-0.3565988540649414,0.1337318122386932,-0.123139701783657,0.0,0.0,-0.8172729015350342,0.9301191568374634
-0.0749320015311241,1.1210674047470093,-0.2625294327735901,-0.3650480508804321,0.1255155354738235,-0.1643255949020385,0.0,0.0,-0.8998271822929382,0.8900084495544434
-0.0776779204607009,1.1126463413238523,-0.2647417783737182,-0.3734738230705261,0.1157165616750717,-0.1959792971611023,0.0,0.0,-0.9356752634048462,0.9908795356750488
-0.0804264098405838,1.1040301322937012,-0.2624643743038177,-0.3820261061191559,0.1034150049090385,-0.2460312098264694,0.0,0.0,-0.9081833362579346,0.9945151805877686
-0.0831812843680381,1.0952088832855225,-0.2606445252895355,-0.3910935819149017,0.0886901393532753,-0.2944977283477783,0.0,0.0,-0.8318423628807068,0.972097873687744
-0.0859463661909103,1.0861902236938477,-0.2592354118824005,-0.3998938500881195,0.0715821385383606,-0.3421599566936493,0.0,0.0,-0.8963516354560852,0.9131888151168824
-0.0887447372078895,1.0769615173339844,-0.2606866955757141,-0.4093534648418426,0.0526512823998928,-0.3786173164844513,0.0,0.0,-0.9405165314674376,0.9584746360778807
-0.0915632247924804,1.0675244331359863,-0.2604880630970001,-0.4188163578510284,0.0315368957817554,-0.4222879409790039,0.0,0.0,-0.9389243125915528,0.5572094917297363
-0.0944366455078125,1.057882308959961,-0.2645781636238098,-0.428219735622406,0.0090675596147775,-0.4493871331214905,0.0,0.0,-0.9525929689407348,0.7365133762359619
-0.0973670929670333,1.048045039176941,-0.2689381837844848,-0.4372335076332092,-0.014730080962181,-0.4759530127048492,0.0,0.0,-0.9532769322395324,0.3437426090240478
-0.1004029288887977,1.038004994392395,-0.279352992773056,-0.4466403126716614,-0.0386662185192108,-0.4787229895591736,0.0,0.0,-0.9461828470230104,0.5070946216583252
-0.1035066619515419,1.0277587175369265,-0.2850221991539001,-0.4562380611896515,-0.0637161433696746,-0.5009987950325012,0.0,0.0,-0.94425368309021,0.8388137817382812
-0.1066354736685752,1.0173029899597168,-0.2853508591651916,-0.4660982191562652,-0.0909753739833831,-0.5451850295066833,0.0,0.0,-0.9651201367378236,-0.524827778339386
-0.1099174469709396,1.006656050682068,-0.3017317950725555,-0.4750197529792785,-0.1172303482890129,-0.5250993967056274,0.0,0.0,-0.9811323285102844,-0.8076962828636169
-0.1133603081107139,0.9958122372627258,-0.3190906047821045,-0.4841245412826538,-0.1423120200634002,-0.5016339421272278,0.0,0.0,-0.9785462617874146,-0.3581115007400512
-0.1169125586748123,0.9847662448883056,-0.3299775421619415,-0.4935377240180969,-0.167539045214653,-0.5045406222343445,0.0,0.0,-0.937568187713623,-0.3472843170166015
-0.120574951171875,0.973518431186676,-0.3409424722194671,-0.5029516220092773,-0.1929122805595398,-0.5074648261070251,0.0,0.0,-0.9728227853775024,-0.1386687755584716
-0.1243479698896408,0.9620689153671264,-0.3519801795482635,-0.5123662352561951,-0.2184324413537979,-0.5104034543037415,0.0,0.0,-0.8576682806015015,-0.698570728302002
-0.1282765418291092,0.9504385590553284,-0.3687094151973724,-0.5206567645072937,-0.2429084181785583,-0.4895196855068207,0.0,0.0,-0.6054093837738037,-0.7768765687942505
-0.1323621720075607,0.938625991344452,-0.3855991661548614,-0.5289778113365173,-0.2663207948207855,-0.4682477414608001,0.0,0.0,-0.8167787194252014,-0.6296061277389526
-0.1366007775068283,0.9266332983970642,-0.4019930958747864,-0.5371454358100891,-0.2887589633464813,-0.4487634301185608,0.0,0.0,-0.5570994019508362,-0.4571678638458252
-0.1409521102905273,0.9144369959831238,-0.4132654070854187,-0.5465488433837891,-0.3113457858562469,-0.4517363607883453,0.0,0.0,-0.1927820444107055,-0.200853168964386
-0.1454164534807205,0.9020373225212096,-0.4245850443840027,-0.555952787399292,-0.3340811431407928,-0.4547078609466553,0.0,0.0,-0.2492154836654663,-0.705722987651825
-0.1500546485185623,0.8894690275192261,-0.4435953497886657,-0.5634151101112366,-0.3552772104740143,-0.4239214062690735,0.0,0.0,-0.0266725420951843,-0.1881619691848755
-0.1548065245151519,0.8766964077949524,-0.4549922049045563,-0.5728140473365784,-0.3766213953495025,-0.4268840849399566,0.0,0.0,0.7677278518676758,0.6318743228912354
-0.1593593657016754,0.8645931482315063,-0.4339731633663177,-0.5437067151069641,-0.3993479907512665,-0.4545317590236664,0.0,0.0,0.4797236919403076,-0.9447343945503236
-0.1639496833086013,0.8528144359588623,-0.4395774006843567,-0.5291169881820679,-0.4202697277069092,-0.4184347987174988,0.0,0.0,0.1761598587036132,-0.7337685823440552
-0.1686263084411621,0.8415037989616394,-0.4495752453804016,-0.508212685585022,-0.4399082064628601,-0.3927699029445648,0.0,0.0,-0.2650593519210815,-0.5643776655197144
-0.1734543740749359,0.8300209641456604,-0.4657809734344482,-0.5158053636550903,-0.4585486352443695,-0.3728087842464447,0.0,0.0,-0.1534286737442016,-0.6723894476890564
-0.1784404814243316,0.818355143070221,-0.4827019274234772,-0.5238127708435059,-0.4761301279067993,-0.35163015127182,0.0,0.0,-0.2486703991889953,-0.205707311630249
-0.1835415810346603,0.8064834475517273,-0.4942164421081543,-0.5332005620002747,-0.4938545525074005,-0.3544885218143463,0.0,0.0,0.6650424003601074,-0.6389141082763672
-0.1886667311191558,0.7951415181159973,-0.4976367056369781,-0.5095165371894836,-0.5106069445610046,-0.3350478112697601,0.0,0.0,-0.2256966829299926,-0.5555317401885986
-0.193949893116951,0.7836317420005798,-0.514633297920227,-0.5167375206947327,-0.5261419415473938,-0.3107004761695862,0.0,0.0,0.2641663551330566,-0.1578866839408874
-0.1990885734558105,0.7725149989128113,-0.5002853274345398,-0.4994184076786041,-0.5417061448097229,-0.311284601688385,0.0,0.0,0.644767165184021,-0.5527424216270447
-0.2040611207485199,0.7624167203903198,-0.484412282705307,-0.454043835401535,-0.5565615892410278,-0.297108918428421,0.0,0.0,0.0569450855255126,-0.29207843542099
-0.2089134156703949,0.7525444626808167,-0.472572386264801,-0.4440911710262298,-0.5713335275650024,-0.2954388856887817,0.0,0.0,0.6620666980743408,-0.7353307604789734
-0.2137490212917328,0.7430329918861389,-0.4721806943416595,-0.427673190832138,-0.5847398638725281,-0.2681264579296112,0.0,0.0,0.5587184429168701,-0.6579530835151672
-0.2185168266296386,0.733676016330719,-0.466682106256485,-0.4203743040561676,-0.5967360138893127,-0.2399232685565948,0.0,0.0,0.9323850870132446,-0.4535369873046875
-0.2232062816619873,0.72463458776474,-0.4586841166019439,-0.4065373241901397,-0.6090295910835266,-0.2458719909191131,0.0,0.0,0.8242495059967041,-0.5080575346946716
-0.2275471687316894,0.7165087461471558,-0.4246929287910461,-0.3655650019645691,-0.6203687787055969,-0.2267851829528808,0.0,0.0,0.8009586334228516,-0.8736534118652344
-0.2314577996730804,0.7092415690422058,-0.3833439350128174,-0.3266880810260772,-0.6297693252563477,-0.1880113184452057,0.0,0.0,0.7802300453186035,-0.2867995500564575
-0.2350605428218841,0.7029403448104858,-0.3520524799823761,-0.2840847969055176,-0.6398468017578125,-0.2015489339828491,0.0,0.0,0.9256038665771484,-0.3434115648269653
-0.238666146993637,0.6970301866531372,-0.3517441153526306,-0.2670898735523224,-0.6507359743118286,-0.2177837342023849,0.0,0.0,0.9283044338226318,-0.7992550134658813
-0.2418301105499267,0.6920278072357178,-0.3090514540672302,-0.2260868400335312,-0.6598791480064392,-0.1828629523515701,0.0,0.0,0.8244483470916748,-0.8859412670135498
-0.244867518544197,0.6877461671829224,-0.2977409958839416,-0.1934171169996261,-0.6673846244812012,-0.1501090824604034,0.0,0.0,0.9859237670898438,-0.8569679260253906
-0.2476181089878082,0.6843461394309998,-0.2704100310802459,-0.1535652577877044,-0.6732446551322937,-0.1172004789113998,0.0,0.0,0.9898281097412108,-0.9124972820281982
-0.2500189244747162,0.6818088293075562,-0.2369375228881836,-0.1144534796476364,-0.6772221326828003,-0.0795492976903915,0.0,0.0,0.9558250904083252,-0.7701466679573059
-0.2520562708377838,0.6798176765441895,-0.2020400464534759,-0.0894025191664695,-0.6793720722198486,-0.042999293655157,0.0,0.0,0.8915127515792847,-0.8010494709014893
-0.2539839148521423,0.6780984997749329,-0.1924197673797607,-0.0765898004174232,-0.6798121333122253,-0.0088017247617244,0.0,0.0,0.7041721343994141,-0.6906184554100037
-0.2557202875614166,0.6766026020050049,-0.1745694875717163,-0.0659811720252037,-0.6786227822303772,0.0237871147692203,0.0,0.0,0.3455662727355957,-0.6812158823013306
-0.2572080492973327,0.6753643751144409,-0.1509819030761718,-0.0538507513701915,-0.675832211971283,0.0558125600218772,0.0,0.0,0.3458214998245239,-0.9453646540641784
-0.2585574686527252,0.6742329597473145,-0.1387592405080795,-0.0482545867562294,-0.671013355255127,0.0963779315352439,0.0,0.0,-0.4171440601348877,-0.7545019388198853
-0.2600535452365875,0.6729511022567749,-0.1547098457813263,-0.054284606128931,-0.6645891070365906,0.1284853667020797,0.0,0.0,0.5316605567932129,-0.7493571639060974
-0.2612352967262268,0.6723188161849976,-0.1246150583028793,-0.0247618611901998,-0.6565354466438293,0.1610728353261947,0.0,0.0,-0.1021658778190612,-0.4455354213714599
-0.2625165581703186,0.6714772582054138,-0.1345505714416504,-0.0341285951435565,-0.648546040058136,0.1597882509231567,0.0,0.0,-0.2996053695678711,-0.2860326170921325
-0.2638955116271972,0.6704262495040894,-0.1443147957324981,-0.0434950105845928,-0.6406161189079285,0.158598318696022,0.0,0.0,-0.1710689067840576,-0.6672859191894531
-0.2654160857200622,0.6692147254943848,-0.1597602814435959,-0.0500519908964633,-0.6311652660369873,0.1890170127153396,0.0,0.0,-0.3441492319107055,0.2961580753326416
-0.2670303881168365,0.6677938103675842,-0.1691454946994781,-0.0594196543097496,-0.621764600276947,0.1880136132240295,0.0,0.0,0.200655460357666,0.2365326881408691
-0.2685090899467468,0.6666828989982605,-0.1555398851633072,-0.0457469783723354,-0.6124879121780396,0.1855331808328628,0.0,0.0,0.4868296384811401,0.6624627113342285
-0.2697215676307678,0.6663073897361755,-0.1275509595870971,-0.0137564400210976,-0.6048966646194458,0.1518246233463287,0.0,0.0,0.1388231515884399,-0.0438286662101745
-0.2706981301307678,0.6662644743919373,-0.104196086525917,0.0010884335497394,-0.5970647931098938,0.1566369235515594,0.0,0.0,-0.3214061260223388,-0.6652668714523315
-999.0,0.6660634875297546,-0.1184263229370117,-0.0053974282927811,-0.5876964926719666,0.187366247177124,0.0,0.0,0.1157659292221069,0.0416692495346069
-0.272756814956665,0.6663306951522827,-0.1029959768056869,0.0152604933828115,-0.5786152482032776,0.1816252470016479,0.0,0.0,-0.4397954940795898,-0.1237342357635498
-0.2737886011600494,0.6663886308670044,-0.110882356762886,0.0058944383636116,-0.5695586800575256,0.1811319440603256,0.0,0.0,-0.2691685557365417,-0.3802438974380493
-0.2748959064483642,0.6662369966506958,-0.1184603720903396,-0.0034714352805167,-0.5605230331420898,0.1807128190994262,0.0,0.0,0.1955697536468505,-0.054785132408142
-0.2759661674499511,0.6664441227912903,-0.1143520697951316,0.0122420405969023,-0.5520085096359253,0.1702906489372253,0.0,0.0,0.2587629556655884,-0.1688895225524902
-0.276749312877655,0.6670775413513184,-0.0859947055578231,0.0312667824327945,-0.5431349277496338,0.1774710863828659,0.0,0.0,0.0282524824142456,-0.6402565240859985
-0.2774865627288818,0.6677965521812439,-0.0826403498649597,0.0355112440884113,-0.5328806042671204,0.205086201429367,0.0,0.0,-0.1750561594963073,-0.1534162759780883
-0.2782849371433258,0.6683060526847839,-0.0887999311089515,0.0261441674083471,-0.5226345658302307,0.2049202471971511,0.0,0.0,-0.685333788394928,-0.0203645229339599
-0.2791403830051422,0.6686064600944519,-0.0945564210414886,0.0167771689593791,-0.5123942494392395,0.204805850982666,0.0,0.0,-0.322141945362091,-0.4502242803573608
-0.280048668384552,0.6686975955963135,-0.0998904556035995,0.0074102352373301,-0.5021573901176453,0.2047375738620758,0.0,0.0,-0.4600504636764526,-0.3237298727035522
-0.2810054421424866,0.6685792803764343,-0.1047828644514083,-0.0019566544797271,-0.4919219017028808,0.204709768295288,0.0,0.0,-0.479478120803833,0.0865697860717773
-0.2820059359073639,0.6682515740394592,-0.1092148572206497,-0.0113235171884298,-0.4816860854625702,0.2047164738178253,0.0,0.0,-0.3803693056106567,-0.0154997706413269
-0.2830454707145691,0.667714536190033,-0.1131682246923446,-0.0206903684884309,-0.4714484810829162,0.2047518789768219,0.0,0.0,-0.3230516314506531,-0.2375637292861938
-0.2841190695762634,0.6669681072235107,-0.1166255623102188,-0.0300572235137224,-0.4612079858779907,0.2048098146915435,0.0,0.0,-0.000112771987915,-0.033009648323059
-0.285221666097641,0.6660124063491821,-0.1195704191923141,-0.0394240841269493,-0.4509637951850891,0.2048841267824173,0.0,0.0,-0.0322111845016479,-0.2759751081466675
-0.2863479256629944,0.6648472547531128,-0.1219876259565353,-0.0487909838557243,-0.4407153725624084,0.2049687653779983,0.0,0.0,0.3161678314208984,-0.2293023467063903
-0.2873163223266601,0.6640930771827698,-0.1061834841966629,-0.030614772811532,-0.4305419027805328,0.2034693509340286,0.0,0.0,0.1121768951416015,-0.5295006036758423
-0.2881680130958557,0.663632333278656,-0.0956069976091384,-0.0173281822353601,-0.4192306995391845,0.2262241840362548,0.0,0.0,-0.2706233263015747,0.0099949836730957
-0.2890267968177795,0.6629623770713806,-0.0963665395975112,-0.0266969762742519,-0.4079155921936035,0.2263024598360061,0.0,0.0,0.0787912607192993,-0.1771682500839233
-0.2896512448787689,0.6626604199409485,-0.0732723921537399,-0.0103472284972667,-0.3963029980659485,0.2322521209716797,0.0,0.0,-0.5085912346839905,0.1830698251724243
-0.2902713418006897,0.6621494293212891,-0.0728819444775581,-0.019716715440154,-0.3846881687641144,0.2322966754436493,0.0,0.0,-0.2958782911300659,-0.2962519526481628
