x_pos,y_pos,x_vel,y_vel,angle,ang_vel,leg_1,leg_2,main_booster,lat_booster
-0.0014873504405841,1.403141736984253,-0.1506232023239135,-0.3457094430923462,0.0016846078215166,0.0332250259816646,0.0,0.0,-0.6215337514877319,0.927217960357666
-0.0028598785866051,1.3948993682861328,-0.1368303596973419,-0.3663299977779388,0.0012755349744111,-0.0081817051395773,0.0,0.0,-0.2703375816345215,0.1514997482299804
-0.0041966438293457,1.3861734867095947,-0.1332131177186966,-0.3878121376037597,0.0008102966239675,-0.0093053961172699,0.0,0.0,0.0177860260009765,0.5629817247390747
-0.0055364607833325,1.3774245977401731,-0.1322021484375,-0.3888376951217651,-0.000954009941779,-0.0352894887328147,0.0,0.0,-0.6992754340171814,0.7196681499481201
-0.0067729949951171,1.3681950569152832,-0.1200758069753646,-0.4102058708667755,-0.0044942386448383,-0.070811316370964,0.0,0.0,-0.0713919401168823,0.0349292755126953
-0.0079754833132028,1.3584829568862915,-0.1166234612464904,-0.4316634833812713,-0.0080782696604728,-0.0716874599456787,0.0,0.0,0.5832583904266357,-0.0552647709846496
-0.0091616632416844,1.34911847114563,-0.114847794175148,-0.4162193238735199,-0.0118059869855642,-0.0745611637830734,0.0,0.0,-0.4219927191734314,0.0633710622787475
-0.0103150364011526,1.3392714262008667,-0.1115275621414184,-0.4376856982707977,-0.0155691327527165,-0.0752696692943573,0.0,0.0,0.2943542003631592,0.6700217723846436
-0.0113836284726858,1.329931378364563,-0.1016626805067062,-0.4151751399040222,-0.0207085236907005,-0.1027972921729087,0.0,0.0,-0.1869763731956482,0.1769726276397705
-0.012420654296875,1.3201087713241575,-0.0984825193881988,-0.4366439282894134,-0.0258733928203582,-0.1033068671822547,0.0,0.0,-0.5881245136260986,-0.3554482460021972
-0.0134268756955862,1.3098037242889404,-0.095378890633583,-0.4581015706062317,-0.031059943139553,-0.1037402600049972,0.0,0.0,-0.2104169726371765,-0.4212706089019775
-0.014402961358428,1.2990162372589111,-0.0923542529344558,-0.47956183552742,-0.0362630300223827,-0.1040709987282753,0.0,0.0,-0.7339125871658325,-0.5647665858268738
-0.0153846740722656,1.2877509593963623,-0.0937808081507682,-0.5007891058921814,-0.040599301457405,-0.0867334529757499,0.0,0.0,-0.3368297219276428,-0.7934827208518982
-0.0163933746516704,1.2759990692138672,-0.0978905111551284,-0.5223900079727173,-0.0435500517487525,-0.0590204671025276,0.0,0.0,-0.2992773056030273,-0.3660693168640136
-0.0173744205385446,1.2637646198272705,-0.0951245874166488,-0.543849766254425,-0.0465034544467926,-0.0590733662247657,0.0,0.0,0.149083137512207,-0.8644848465919495
-0.0182990077883005,1.2513455152511597,-0.0912565812468528,-0.5519996285438538,-0.0476929955184459,-0.0237929970026016,0.0,0.0,-0.4907094240188598,-0.7892851829528809
-0.0192455295473337,1.2384560108184814,-0.0946687087416648,-0.5728617310523987,-0.0476657599210739,0.000544664915651,0.0,0.0,-0.4787155389785766,-0.3959608674049377
-0.0201668739318847,1.225083827972412,-0.0921823233366012,-0.5943194627761841,-0.0476269535720348,0.0007762797176837,0.0,0.0,-0.587972104549408,-0.6820003390312195
-0.0211091991513967,1.2112385034561155,-0.0954315513372421,-0.615312933921814,-0.0464340597391128,0.0238598957657814,0.0,0.0,-0.4833835959434509,-0.0548740029335022
-0.0220282562077045,1.1969102621078491,-0.0931379497051239,-0.6367719769477844,-0.0452210828661918,0.0242618471384048,0.0,0.0,-0.0104112029075622,-0.5819271802902222
-0.0229612346738576,1.1821058988571167,-0.0954709947109222,-0.6579051613807678,-0.0430706441402435,0.0430129431188106,0.0,0.0,0.2280859947204589,0.1619752645492553
-0.0238499641418457,1.1673110723495483,-0.0911280363798141,-0.6574819087982178,-0.0408510528504848,0.0443960689008235,0.0,0.0,-0.6202805042266846,-0.4636693000793457
-0.0247184745967388,1.1520335674285889,-0.0891298949718475,-0.6789448261260986,-0.0385982766747474,0.0450595207512378,0.0,0.0,-0.4874542355537414,0.0733848810195922
-0.0255676265805959,1.1362731456756592,-0.0872307270765304,-0.7004038691520691,-0.0363086052238941,0.0457976199686527,0.0,0.0,0.5054986476898193,-0.0560598373413085
-0.0265063289552927,1.1209160089492798,-0.0956294685602188,-0.6824924945831299,-0.0345783531665802,0.0346082895994186,0.0,0.0,-0.1706283092498779,0.3731116056442261
-0.0274281501770019,1.1050548553466797,-0.0939773321151733,-0.7049082517623901,-0.0328033976256847,0.0354992672801017,0.0,0.0,-0.0366679430007934,0.0116304159164428
-0.0283333770930767,1.0887107849121094,-0.0923710316419601,-0.7263654470443726,-0.0309804491698741,0.0364589057862758,0.0,0.0,0.4864118099212646,0.2876033782958984
-0.0293175689876079,1.0730024576187134,-0.0997630655765533,-0.6981145739555359,-0.0296500828117132,0.0266071520745754,0.0,0.0,0.4522159099578857,0.1152573823928833
-0.0303815845400095,1.0578374862670898,-0.1072633266448974,-0.6739845871925354,-0.0287959035485982,0.0170836709439754,0.0,0.0,-0.840155839920044,-0.1296854615211486
-0.0314318649470806,1.0421897172927856,-0.1059545502066612,-0.6954415440559387,-0.0278843212872743,0.0182317160069942,0.0,0.0,0.2254396677017212,-0.1499462127685547
-0.0324380882084369,1.027000069618225,-0.1016684770584106,-0.6750744581222534,-0.0268483646214008,0.0207190215587615,0.0,0.0,-0.197046160697937,-0.3460338115692138
-0.0334324836730957,1.0113277435302734,-0.1005541831254959,-0.6965314745903015,-0.0257496107369661,0.0219751838594675,0.0,0.0,-0.7571828961372375,0.2378560304641723
-0.0344160087406635,0.9951725006103516,-0.0995353311300277,-0.7179884314537048,-0.0245855823159217,0.0232806913554668,0.0,0.0,-0.0283713936805725,0.0894865989685058
-0.0353897102177143,0.9785345196723938,-0.0986104384064674,-0.7394455075263977,-0.0233539529144763,0.0246324688196182,0.0,0.0,0.6231939792633057,-0.050616979598999
-0.0363239273428916,0.9623372554779052,-0.0948140099644661,-0.7198550701141357,-0.0219786744564771,0.0275054425001144,0.0,0.0,0.2745369672775268,-0.3439600467681885
-0.0372230522334575,0.9465318322181702,-0.0914507806301117,-0.7024425268173218,-0.0204667765647172,0.0302381180226802,0.0,0.0,-0.1432077884674072,-0.284649133682251
-0.0381150245666503,0.9302436113357544,-0.0907967537641525,-0.7238996624946594,-0.0188811775296926,0.0317116901278495,0.0,0.0,-0.0238819122314453,-0.3883775472640991
-0.0390004143118858,0.913472592830658,-0.0902287140488624,-0.7453567385673523,-0.017220139503479,0.0332207903265953,0.0,0.0,-0.2350435256958007,-0.7622826099395752
-0.0399444587528705,0.8962290287017822,-0.0977966412901878,-0.7663450241088867,-0.0138665223494172,0.0670720413327217,0.0,0.0,-0.149120032787323,0.5814305543899536
-0.0408354774117469,0.8785025477409363,-0.0913484171032905,-0.7878257632255554,-0.0116447722539305,0.0444350056350231,0.0,0.0,0.808508038520813,0.1321045160293579
-0.0418292991816997,0.8615737557411194,-0.1011671647429466,-0.752379298210144,-0.0098836431279778,0.0352226719260215,0.0,0.0,0.194032073020935,0.4160208702087402
-0.0427268035709857,0.8447283506393433,-0.0920397266745567,-0.7486708164215088,-0.0076284483075141,0.0451040789484977,0.0,0.0,0.3434420824050903,0.3993113040924072
-0.0435407646000385,0.8277817964553833,-0.0841355696320533,-0.7531659007072449,-0.0049250656738877,0.0540672950446605,0.0,0.0,-0.5607625842094421,-0.0387163162231445
-0.0443528182804584,0.8103525638580322,-0.0840252935886383,-0.7746235728263855,-0.0021378344390541,0.0557445995509624,0.0,0.0,-0.060139000415802,0.7050449848175049
-0.045111559331417,0.7924321293830872,-0.0774529725313186,-0.7964620590209961,-0.0005731144919991,0.0312942862510681,0.0,0.0,0.5953665971755981,0.3056087493896484
-0.0458250045776367,0.7745129466056824,-0.0732213407754898,-0.7964096069335938,0.0012827469035983,0.0371172167360782,0.0,0.0,0.6263582706451416,0.3827630281448364
-0.0464787483215332,0.75677090883255,-0.0676266103982925,-0.7885342836380005,0.0035032420419156,0.0444098934531211,0.0,0.0,0.672656774520874,0.1498692035675048
-0.0472496971487998,0.739811897277832,-0.0788934379816055,-0.7537416815757751,0.0052850344218313,0.035635869950056,0.0,0.0,-0.1561654210090637,0.2571717500686645
-0.048021413385868,0.7223700881004333,-0.0790714472532272,-0.7751990556716919,0.0071553378365933,0.0374059453606605,0.0,0.0,0.5886008739471436,0.6391708850860596
-0.048769474029541,0.7051776647567749,-0.0754587054252624,-0.7641143202781677,0.0077943396754562,0.0127803860232234,0.0,0.0,0.6693964004516602,0.65201735496521
-0.0493149757385253,0.6883701682090759,-0.0543411001563072,-0.746999204158783,0.007588233333081,-0.0041221403516829,0.0,0.0,-0.2470521926879882,0.3253191709518432
-0.0498625747859478,0.6710798144340515,-0.0546442680060863,-0.7684563398361206,0.0074725896120071,-0.0023128986358642,0.0,0.0,0.382083535194397,0.0271788835525512
-0.0503239631652832,0.65386563539505,-0.0465408340096473,-0.7650771737098694,0.0078709721565246,0.0079675931483507,0.0,0.0,0.5663557052612305,0.7039158344268799
-0.0507349967956543,0.6373102068901062,-0.0401864610612392,-0.7357906103134155,0.0069673485122621,-0.0180722903460264,0.0,0.0,0.4981374740600586,0.3337198495864868
-0.0510169044137001,0.6209366917610168,-0.0280041843652725,-0.7277137637138367,0.0067806201986968,-0.0037346228491514,0.0,0.0,0.2348541021347046,0.7429211139678955
-0.0513262748718261,0.6046051383018494,-0.029249895364046,-0.7258419394493103,0.0051128440536558,-0.0333551652729511,0.0,0.0,-0.0259008407592773,0.7583928108215332
-0.0515695586800575,0.5877984166145325,-0.0209698118269443,-0.7469595670700073,0.001793905859813,-0.0663788691163063,0.0,0.0,0.4275567531585693,0.4307130575180053
-0.0516981109976768,0.5713834166526794,-0.010140735656023,-0.7295531034469604,-0.0008805954712443,-0.0534900724887847,0.0,0.0,0.4080920219421386,0.3018825054168701
-0.0517656318843364,0.5555381178855896,-0.0044465395621955,-0.7042332291603088,-0.0031675330828875,-0.0457384809851646,0.0,0.0,-0.3142868876457214,0.303297758102417
-0.0518367774784565,0.5392102003097534,-0.0048871235921978,-0.7256907820701599,-0.0053612943738698,-0.043874941766262,0.0,0.0,0.7075761556625366,0.4288613796234131
-0.0518563278019428,0.5229732394218445,-7.408424426103011e-05,-0.7216506600379944,-0.0072170072235167,-0.0371145904064178,0.0,0.0,0.6077696084976196,-0.1708869338035583
-0.0519718155264854,0.5072785019874573,-0.0093076359480619,-0.6975581645965576,-0.0094308070838451,-0.0442759096622467,0.0,0.0,0.8244771957397461,-0.0043261051177978
-0.0519487373530864,0.4919556379318237,0.0038188402540981,-0.6810242533683777,-0.0109203038737177,-0.0297899637371301,0.0,0.0,-0.8424792289733887,0.2462515830993652
-0.0519286170601844,0.4761500358581543,0.003423674730584,-0.7024813294410706,-0.0123164625838398,-0.0279233213514089,0.0,0.0,0.8978615999221802,0.5011599063873291
-0.051856517791748,0.4605477452278137,0.0095147052779793,-0.6934559345245361,-0.0145875550806522,-0.0454218573868274,0.0,0.0,0.7424235343933105,0.1017364263534545
-0.0519082061946392,0.4454004168510437,-0.0023597022518515,-0.673241913318634,-0.0173695012927055,-0.0556387677788734,0.0,0.0,0.9546854496002196,0.2162760496139526
-0.0519190803170204,0.4312884211540222,0.0015133402775973,-0.627236008644104,-0.0199410207569599,-0.0514303371310234,0.0,0.0,0.6344971656799316,0.3838148117065429
-0.0518448837101459,0.4171250760555267,0.0095590157434344,-0.6295118927955627,-0.0220441333949565,-0.0420624129474163,0.0,0.0,0.1480238437652588,0.2542965412139892
-0.0517400726675987,0.4033679068088531,0.0124307358637452,-0.6114584803581238,-0.0239678900688886,-0.0384752117097377,0.0,0.0,0.585639476776123,0.7799375057220459
-0.0516634956002235,0.3898073732852936,0.0112623609602451,-0.6027554273605347,-0.0275263674557209,-0.0711696445941925,0.0,0.0,-0.3204467296600342,-0.7671945095062256
-0.0516571030020713,0.3757701218128204,0.0023661334998905,-0.6239099502563477,-0.0292341597378253,-0.0341558717191219,0.0,0.0,0.7420592308044434,-0.1127158403396606
-0.0515989288687706,0.3622326254844665,0.0073087522760033,-0.601697564125061,-0.0307004284113645,-0.0293256137520074,0.0,0.0,0.8452064990997314,0.0088157653808593
-0.0516546256840229,0.3496330380439758,-0.0035050506703555,-0.5600218176841736,-0.0327412337064743,-0.0408159270882606,0.0,0.0,0.5362273454666138,0.5830917358398438
-0.0515711791813373,0.3373499512672424,0.01131849642843,-0.5459848642349243,-0.0356767661869525,-0.0587107241153717,0.0,0.0,0.3703151941299438,-0.6785210371017456
-0.0515586845576763,0.3250695765018463,0.0028248804155737,-0.5458338260650635,-0.0372270345687866,-0.0310054533183574,0.0,0.0,0.1602435111999511,0.3471431732177734
-0.0514867790043354,0.3126458823680877,0.0084354300051927,-0.5521953701972961,-0.0384668968617916,-0.0247969143092632,0.0,0.0,0.4568120241165161,0.3875514268875122
-0.0514274612069129,0.3001895546913147,0.0072265239432454,-0.553645670413971,-0.0397467017173767,-0.025596123188734,0.0,0.0,0.8992490768432617,0.1647064685821533
-0.0513367652893066,0.288617730140686,0.0103155011311173,-0.5143373608589172,-0.0409827269613742,-0.0247205588966608,0.0,0.0,0.2879830598831177,-0.5673677325248718
-0.0511909499764442,0.2775204479694366,0.0144695024937391,-0.4932096302509308,-0.0408629886806011,0.00239476445131,0.0,0.0,0.4575586318969726,0.4228041172027588
-0.0511078834533691,0.2670270800590515,0.008552604354918,-0.4663780033588409,-0.0411143377423286,-0.0050267940387129,0.0,0.0,0.0864533185958862,-0.2133359909057617
-0.051093578338623,0.2563825845718384,0.0020074681378901,-0.4731037318706512,-0.0416730754077434,-0.0111751016229391,0.0,0.0,0.3722543716430664,0.0175552368164062
-0.051009751856327,0.2462371736764907,0.0087002962827682,-0.4509150385856628,-0.0419914610683918,-0.0063678659498691,0.0,0.0,-0.1490278244018554,0.0619494915008544
-0.0509163849055767,0.2356089651584625,0.0095707448199391,-0.4723717272281647,-0.0422252789139747,-0.0046765813603997,0.0,0.0,0.1775506734848022,-0.3238385915756225
-0.0508310310542583,0.2252244502305984,0.0088710878044366,-0.4615450203418731,-0.0425561591982841,-0.0066174394451081,0.0,0.0,0.4344388246536255,0.0574215650558471
-0.0507184974849224,0.2152675241231918,0.0115603851154446,-0.4425351023674011,-0.0428522564470768,-0.0059219342656433,0.0,0.0,0.3035380840301513,-0.5292640328407288
-0.0505402572453022,0.2055137902498245,0.0167998559772968,-0.4334718286991119,-0.041847787797451,0.0200896486639976,0.0,0.0,-0.1693654060363769,-0.5576490759849548
-0.0503905303776264,0.1952744871377945,0.0127990739420056,-0.455024391412735,-0.0396975092589855,0.0430055595934391,0.0,0.0,0.0616713762283325,0.2171533107757568
-0.0501556396484375,0.1849365383386612,0.020955266430974,-0.4593960344791412,-0.0371915735304355,0.0501184538006782,0.0,0.0,0.6037397384643555,0.6895679235458374
-0.0496729835867881,0.1749348193407058,0.0467108450829982,-0.44448122382164,-0.0356530919671058,0.0307697299867868,0.0,0.0,0.4032034873962402,-0.5943875908851624
-0.0490783676505088,0.1649436354637146,0.0563428290188312,-0.4439842402935028,-0.0325811207294464,0.061439573764801,0.0,0.0,0.4286226034164428,-0.8239307999610901
-0.0485141761600971,0.1554532647132873,0.0515849702060222,-0.4217003881931305,-0.0278002507984638,0.0956174358725547,0.0,0.0,0.14449143409729,-0.4666509628295898
-0.0478935241699218,0.1462673097848892,0.0570515170693397,-0.4081789553165436,-0.0228447467088699,0.0991098508238792,0.0,0.0,0.2832342386245727,-0.5727898478507996
-0.0471784584224224,0.1373760253190994,0.0650416985154151,-0.3950817883014679,-0.0164637994021177,0.1276188045740127,0.0,0.0,-0.0590899586677551,-0.5745320320129395
-0.046478271484375,0.1279975324869156,0.0625138059258461,-0.4167586266994476,-0.0090589495375752,0.1480968743562698,0.0,0.0,0.701690673828125,-0.1233090758323669
-0.0458031669259071,0.1189244389533996,0.0601938664913177,-0.4032230079174042,-0.0018326573772355,0.144525796175003,0.0,0.0,0.852665901184082,-0.3989557027816772
-0.0450056083500385,0.1108202338218689,0.0719171985983848,-0.3601952493190765,0.0059031560085713,0.1547164469957351,0.0,0.0,0.1916170120239257,0.3523037433624267
-0.0442002303898334,0.1028497070074081,0.0727051421999931,-0.3542979061603546,0.0136303445324301,0.1545439213514328,0.0,0.0,0.2656838893890381,0.8661940097808838
-0.0434158332645893,0.0953181385993957,0.0723743289709091,-0.334803968667984,0.0196172818541526,0.1197388544678688,0.0,0.0,0.0094566345214843,-0.4123740196228027
-0.0425569526851177,0.0879453495144844,0.0795096307992935,-0.3277775943279266,0.0259166415780782,0.1259873211383819,0.0,0.0,-0.0029277205467224,0.1796661615371704
-0.0416669845581054,0.0800902694463729,0.0825464874505996,-0.3492381274700165,0.032280970364809,0.1272864639759063,0.0,0.0,0.7800445556640625,0.7192842960357666
-0.0408108718693256,0.072965607047081,0.0807716473937034,-0.3167631328105926,0.0370615907013416,0.0956126973032951,0.0,0.0,0.3554446697235107,0.2036744356155395
-0.0399565696716308,0.0659697651863098,0.0806189700961113,-0.3110525906085968,0.0418097302317619,0.0949629545211792,0.0,0.0,0.3253055810928345,0.5561264753341675
-0.0391455665230751,0.0592113099992275,0.0775740519165992,-0.3004774153232574,0.0452930964529514,0.0696674734354019,0.0,0.0,0.4268985986709595,0.4036613702774048
-0.0384486205875873,0.052639327943325,0.0667177066206932,-0.2921839356422424,0.0482339560985565,0.058817058801651,0.0,0.0,0.7534952163696289,0.4594025611877441
-0.0376386642456054,0.0467355363070964,0.0774393007159233,-0.2625097036361694,0.0517517998814582,0.0703569799661636,0.0,0.0,0.3677625656127929,0.5256679058074951
-0.0367090217769146,0.0408096425235271,0.090273693203926,-0.2634693682193756,0.0544079765677452,0.0531237013638019,0.0,0.0,0.6987059116363525,-0.6906009316444397
-0.035674761980772,0.0355902053415775,0.0989314764738082,-0.2321446388959884,0.0588495768606662,0.0888321176171302,0.0,0.0,-0.1030055284500122,-0.4238874316215515
-0.0345994010567665,0.0298882573843002,0.1029969602823257,-0.2536035776138305,0.0633426010608673,0.0898603498935699,0.0,0.0,0.8917765617370605,-0.3887840509414673
-0.0333805084228515,0.0251842364668846,0.116533026099205,-0.2093062102794647,0.0686407908797264,0.1059636920690536,0.0,0.0,0.146729826927185,-0.2179902195930481
-0.0320929512381553,0.0206052400171756,0.1231118291616439,-0.2037780284881591,0.074231244623661,0.1118090748786926,0.0,0.0,0.7514008283615112,-0.8845412135124207
-0.0309036262333393,0.0168390609323978,0.1114770025014877,-0.1677774935960769,0.0816116109490394,0.1476070135831833,0.0,0.0,0.3115835189819336,-0.0340800881385803
-0.0296716690063476,0.0135313607752323,0.1154832616448402,-0.1474465280771255,0.0892575904726982,0.1529194265604019,0.0,0.0,-0.2877306342124939,-0.5060853958129883
-0.0284272190183401,0.0097347116097807,0.1157963052392005,-0.1692791581153869,0.0978183671832084,0.1712153702974319,0.0,0.0,0.5146468877792358,0.1465027332305908
-0.0273853298276662,0.0070447418838739,0.1149916052818298,-0.1189059242606163,0.0870335027575492,-0.2157883644104004,0.0,1.0,0.8031575679779053,0.164264440536499
-0.0266351699829101,0.0052961921319365,0.1027590408921241,-0.076358288526535,0.059485800564289,-0.5510703921318054,0.0,1.0,-0.0943118333816528,-0.3692314624786377
-0.0258708000183105,0.0030521487351506,0.1034218817949295,-0.0988817065954208,0.0328109078109264,-0.5334976315498352,0.0,1.0,0.3439569473266601,-0.3265621662139892
-0.0250998493283987,0.0009862398728728,0.1040161475539207,-0.0914402455091476,0.0062352577224373,-0.5315132141113281,0.0,1.0,0.1170084476470947,-0.550658643245697
-0.0242761615663766,-0.0011932515772059,0.1080033034086227,-0.0969546884298324,-0.0190728660672903,-0.506162703037262,1.0,0.0,0.2786304950714111,-0.60081946849823
-0.0233547203242778,-0.0025788450147956,0.1043595075607299,-0.0620095357298851,-0.0302693173289299,-0.2228279113769531,1.0,0.0,-0.0098288655281066,-0.553478479385376
-0.0223607067018747,-0.0038539313245564,0.0926156267523765,-0.0565569847822189,-0.0235267933458089,0.1348968148231506,1.0,0.0,-0.2006168961524963,-0.9536941647529602
