x_pos,y_pos,x_vel,y_vel,angle,ang_vel,leg_1,leg_2,main_booster,lat_booster
-0.0015357971424236,1.4031102657318115,-0.1554010808467865,-0.3471071422100067,0.0016314791282638,0.0321729071438312,0.0,0.0,-0.3203383684158325,0.693023681640625
-0.0030243874061852,1.3948060274124146,-0.1488100588321685,-0.3690780103206634,0.0015853067161515,-0.0009229943389073,0.0,0.0,-0.0590978860855102,0.6486399173736572
-0.0044619562104344,1.3859825134277344,-0.1419741213321685,-0.392158955335617,-0.0001746238704072,-0.0352020412683486,0.0,0.0,0.2106634378433227,0.275714635848999
-0.0059974668547511,1.3771936893463137,-0.1511996388435363,-0.3906097412109375,-0.0024997112341225,-0.0465059801936149,0.0,0.0,-0.1708676218986511,0.6160249710083008
-0.0074843405745923,1.367892503738403,-0.1446988582611084,-0.4133974909782409,-0.0064501026645302,-0.0790153890848159,0.0,0.0,0.0831642150878906,0.5112297534942627
-0.0088393213227391,1.3586095571517944,-0.1305379420518875,-0.4126113653182983,-0.0113569693639874,-0.0981463342905044,0.0,0.0,0.3425956964492798,-0.1040192246437072
-0.0102166179567575,1.34951651096344,-0.1325275748968124,-0.4041767716407776,-0.0164959486573934,-0.1027894467115402,0.0,0.0,0.078590989112854,-0.0588453412055969
-0.0114980693906545,1.3405407667160034,-0.1232756972312927,-0.3989864587783813,-0.0213137418031692,-0.0963645279407501,0.0,0.0,-0.1700708270072937,0.3469588756561279
-0.0127878189086914,1.3310508728027344,-0.1239618211984634,-0.421847403049469,-0.0262746773660182,-0.0992277860641479,0.0,0.0,-0.3289042711257934,0.4884728193283081
-0.0140853878110647,1.321047306060791,-0.124602124094963,-0.4447042047977447,-0.0313771851360797,-0.1020591482520103,0.0,0.0,-0.0257091522216796,0.7503001689910889
-0.0153227802366018,1.3105274438858032,-0.1167240738868713,-0.467716783285141,-0.0383198261260986,-0.1388656198978424,0.0,0.0,-0.1991910338401794,-0.4187034368515014
-0.0165670402348041,1.2994939088821411,-0.1172700151801109,-0.4905776381492615,-0.045400820672512,-0.1416330933570861,0.0,0.0,0.7537826299667358,-0.0586262345314025
-0.0176458358764648,1.2890501022338867,-0.1012431606650352,-0.4643869996070862,-0.0519662238657474,-0.1313197761774063,0.0,0.0,-0.0420861840248107,-0.183099627494812
-0.0187306404113769,1.278092384338379,-0.1017056927084922,-0.4872565865516662,-0.0586684867739677,-0.1340577006340026,0.0,0.0,-0.62235027551651,-0.6579673290252686
-0.0198602676391601,1.2666314840316772,-0.107078269124031,-0.5096165537834167,-0.0645031854510307,-0.1167046874761581,0.0,0.0,-0.1290613412857055,0.1830328702926635
-0.0209951400756835,1.2546567916870115,-0.1074600592255592,-0.5324772000312805,-0.0704714804887771,-0.1193766146898269,0.0,0.0,0.0270256996154785,-0.8615838289260864
-0.0220635421574115,1.242970585823059,-0.1024344787001609,-0.5196037292480469,-0.0748454108834266,-0.0874866247177124,0.0,0.0,-0.5065691471099854,-0.8692053556442261
-0.0231890678405761,1.2307686805725098,-0.1093367710709571,-0.5424692034721375,-0.0780321583151817,-0.0637405961751937,0.0,0.0,0.0976907014846801,-0.8779265284538269
-0.0242701526731252,1.218858003616333,-0.1065532192587852,-0.5294495224952698,-0.0795776695013046,-0.03091287240386,0.0,0.0,-0.2463563680648803,0.3135316371917724
-0.0253549572080373,1.2064330577850342,-0.1067955642938613,-0.5523138046264648,-0.0812490805983543,-0.0334308743476867,0.0,0.0,-0.7396398186683655,0.4758001565933227
-0.0264430996030569,1.1934940814971924,-0.1070009917020797,-0.5751703381538391,-0.0830427780747413,-0.035877339541912,0.0,0.0,-0.3404971361160278,-0.661487877368927
-0.0275854114443063,1.180043339729309,-0.1136042475700378,-0.5978386998176575,-0.0836665332317352,-0.0124763380736112,0.0,0.0,-0.3371721506118774,-0.6897019743919373
-0.0287731178104877,1.1660829782485962,-0.1191021203994751,-0.6204398274421692,-0.0833310410380363,0.0067104040645062,0.0,0.0,-0.7025938034057617,-0.1408429145812988
-0.0299630165100097,1.1516084671020508,-0.1192170828580856,-0.6432977318763733,-0.0831098854541778,0.004423342179507,0.0,0.0,0.0979745388031005,-0.130275011062622
-0.0312134735286235,1.1372710466384888,-0.1247162595391273,-0.6372416615486145,-0.0834368765354156,-0.0065401829779148,0.0,0.0,0.1760854721069336,0.0687743425369262
-0.0325284004211425,1.1231601238250732,-0.1305674910545349,-0.6272051930427551,-0.0843507125973701,-0.0182769186794757,0.0,0.0,0.5685751438140869,-0.2193876504898071
-999.0,1.109565496444702,-0.1244402155280113,-0.6042631268501282,-0.0853511095046997,-0.0200080759823322,0.0,0.0,-0.134073257446289,-0.8179717063903809
-0.0351164825260639,1.095475196838379,-0.1342463493347168,-0.6261808276176453,-0.0844648852944374,0.0177243091166019,0.0,0.0,-0.9374530911445618,0.1228728294372558
-0.0364507660269737,1.0808708667755127,-0.1342287361621856,-0.6490363478660583,-0.0836736038327217,0.0158257447183132,0.0,0.0,-0.9251107573509216,0.2281839847564697
-0.0377856269478797,1.0657525062561035,-0.1341897100210189,-0.6718918085098267,-0.0829726681113243,0.0140187246724963,0.0,0.0,-0.2410508394241333,-0.0542865395545959
-0.0391207709908485,1.0501199960708618,-0.1341309547424316,-0.694747269153595,-0.0823572352528572,0.012308538891375,0.0,0.0,-0.5524746775627136,-0.2375077009201049
-0.0404559150338172,1.033973217010498,-0.1340541243553161,-0.7176027297973633,-0.0818222090601921,0.0107004242017865,0.0,0.0,-0.1241992115974426,-0.5979540348052979
-0.0418441779911518,1.017324686050415,-0.140659362077713,-0.7398414015769958,-0.0800061598420143,0.0363211221992969,0.0,0.0,-0.3619810938835144,0.0061836242675781
-0.0432320609688758,1.00016188621521,-0.1405514031648636,-0.7626970410346985,-0.0782595127820968,0.0349329896271228,0.0,0.0,-0.83461993932724,0.4063233137130737
-0.044619370251894,0.9824848771095276,-0.1404303908348083,-0.7855525612831116,-0.0765763893723487,0.0336626693606376,0.0,0.0,0.929501175880432,-0.539073646068573
-0.0459581390023231,0.965621292591095,-0.1366747915744781,-0.7493520975112915,-0.0738101303577423,0.0553252585232257,0.0,0.0,-0.0983281731605529,-0.1887201070785522
-0.0472960472106933,0.9482435584068298,-0.1365327984094619,-0.7722079157829285,-0.0710948407649993,0.0543055906891822,0.0,0.0,0.4592735767364502,-0.1854418516159057
-0.0485515594482421,0.9313542246818542,-0.1284080892801284,-0.750505805015564,-0.0682684108614921,0.0565286390483379,0.0,0.0,0.3825756311416626,0.2281781435012817
-0.0497906692326068,0.915009379386902,-0.1265709549188614,-0.7263201475143433,-0.0656317993998527,0.0527321584522724,0.0,0.0,-0.7685091495513916,0.2715342044830322
-0.0510284416377544,0.8981505036354065,-0.1264100223779678,-0.7491756677627563,-0.0630256533622741,0.052122950553894,0.0,0.0,-0.4021661281585693,0.0944803953170776
-0.0522647872567176,0.8807773590087891,-0.1262461245059967,-0.7720311284065247,-0.0604427382349967,0.0516584515571594,0.0,0.0,-0.0917484760284423,0.4846947193145752
-0.053499698638916,0.8628901243209839,-0.1260809153318405,-0.794886589050293,-0.0578756295144557,0.0513420179486274,0.0,0.0,0.6498293876647949,0.2729074954986572
-0.0546179786324501,0.8449493646621704,-0.1148714572191238,-0.7972551584243774,-0.0548680163919925,0.0601521655917167,0.0,0.0,0.758804440498352,0.0007412433624267
-0.0555981621146202,0.827328622341156,-0.1015612110495567,-0.7830187082290649,-0.0513721406459808,0.0699178650975227,0.0,0.0,0.391079306602478,-0.0808351039886474
-0.0565981864929199,0.8095678091049194,-0.1033853664994239,-0.7892540097236633,-0.0480274409055709,0.0668939054012298,0.0,0.0,-0.0143864154815673,0.4636235237121582
-0.057596493512392,0.7912930250167847,-0.1032311171293258,-0.812109649181366,-0.0446678027510643,0.0671923831105232,0.0,0.0,0.8454694747924805,0.692611575126648
-0.0584425926208496,0.7732396721839905,-0.0868089869618415,-0.802306592464447,-0.0424884557723999,0.0435869507491588,0.0,0.0,0.8207926750183105,0.3998556137084961
-0.059371568262577,0.7560569643974304,-0.0945593267679214,-0.7636231780052185,-0.0408515259623527,0.0327386632561683,0.0,0.0,-0.3596978187561035,-0.2170194387435913
-0.0602990165352821,0.7383602261543274,-0.0944296717643737,-0.7864781618118286,-0.0391762182116508,0.0335059650242328,0.0,0.0,0.426114559173584,0.2230879068374633
-0.061225701123476,0.7208084464073181,-0.0943299978971481,-0.7800400257110596,-0.0375393666326999,0.0327371321618557,0.0,0.0,0.0255404710769653,0.4852790832519531
-0.0620485320687294,0.7032684683799744,-0.0844117775559425,-0.7794924974441528,-0.0354369208216667,0.0420490875840187,0.0,0.0,0.5875399112701416,0.6372214555740356
-0.0628542900085449,0.6862806081771851,-0.0813509076833725,-0.7550060153007507,-0.0346750952303409,0.0152365593239665,0.0,0.0,0.5000336170196533,0.2214875221252441
-0.0635454207658767,0.6693782210350037,-0.0704190731048584,-0.7511860132217407,-0.0333855748176574,0.0257905311882495,0.0,0.0,-0.462557315826416,0.4356101751327514
-0.0642352104187011,0.651961624622345,-0.0703596249222755,-0.7740407586097717,-0.0320202820003032,0.0273054894059896,0.0,0.0,0.5493888854980469,0.6494402885437012
-0.0647053718566894,0.6347042322158813,-0.0475056506693363,-0.7669925093650818,-0.0315376222133636,0.0096532311290502,0.0,0.0,0.3744364976882934,0.5004546642303467
-0.0652082413434982,0.6175200343132019,-0.0496450625360012,-0.763754665851593,-0.0321709550917148,-0.012666592374444,0.0,0.0,0.7938439846038818,0.0122441053390502
-0.0655802711844444,0.6011139750480652,-0.0371326431632041,-0.7291577458381653,-0.0322360508143901,-0.0013021632330492,0.0,0.0,0.1915673017501831,0.0390627384185791
-0.0658362358808517,0.5849180817604065,-0.0261016525328159,-0.7198045253753662,-0.0317384116351604,0.0099529381841421,0.0,0.0,0.4048328399658203,0.4032793045043945
-0.0660058036446571,0.5692545175552368,-0.0178683884441852,-0.6961379647254944,-0.0308384858071804,0.0179985612630844,0.0,0.0,0.1418795585632324,0.4477165937423706
-0.0662108436226844,0.5538933873176575,-0.0212743990123271,-0.6826999187469482,-0.0300678722560405,0.0154119478538632,0.0,0.0,-0.6137070059776306,0.8058762550354004
-0.066346451640129,0.538007915019989,-0.0127023877575993,-0.706039309501648,-0.0309175383299589,-0.0169935692101717,0.0,0.0,0.1770640611648559,-0.1426693201065063
-0.0665379539132118,0.5223607420921326,-0.0180806368589401,-0.695453941822052,-0.0319727845489978,-0.0211049206554889,0.0,0.0,0.7725000381469727,0.740123987197876
-0.0665088668465614,0.507019579410553,0.0050210524350404,-0.6818783283233643,-0.0340595133602619,-0.0417348332703113,0.0,0.0,0.793852686882019,0.1271400451660156
-0.0664319023489952,0.4921604692935943,0.0095535377040505,-0.6604459881782532,-0.0358932539820671,-0.0366748087108135,0.0,0.0,0.0324459075927734,-0.904474675655365
-0.0664124488830566,0.4771595001220703,0.0018423551227897,-0.6667079925537109,-0.0357903838157653,0.0020573730580508,0.0,0.0,0.8488941192626953,0.7839728593826294
-0.066459372639656,0.4626409411430359,-0.0030346682760864,-0.6453095078468323,-0.0374239645898342,-0.0326715037226676,0.0,0.0,-0.397556722164154,0.6757140159606934
-0.0664517432451248,0.4476129114627838,0.0036673662252724,-0.6679874658584595,-0.0403013750910759,-0.0575479045510292,0.0,0.0,0.9049482345581056,-0.531458854675293
-0.0663739219307899,0.4325661659240722,0.0091773997992277,-0.6687828898429871,-0.0416777394711971,-0.0275275148451328,0.0,0.0,0.8835474252700806,0.4582546949386596
-0.0662263855338096,0.418461799621582,0.0158467181026935,-0.6268917322158813,-0.0427570678293705,-0.0215864665806293,0.0,0.0,0.6232433319091797,0.2033226490020752
-0.0661532431840896,0.4045460224151611,0.0086756478995084,-0.6185179948806763,-0.0441063679754734,-0.0269856359809637,0.0,0.0,0.6980721950531006,0.1224839687347412
-0.0661458969116211,0.3911651372909546,0.0023716497235,-0.5947566628456116,-0.045731384307146,-0.0325003638863563,0.0,0.0,0.6965360641479492,0.81911301612854
-0.0660122856497764,0.3782222270965576,0.0164277218282222,-0.5753344297409058,-0.0487593449652195,-0.0605591051280498,0.0,0.0,0.445271372795105,-0.7800763249397278
-0.0660325065255165,0.3658944368362427,-0.0005137665430083,-0.5479533672332764,-0.0502565130591392,-0.02994323708117,0.0,0.0,0.1185910701751709,0.7479901313781738
-0.0659202560782432,0.353629320859909,0.0140243303030729,-0.545212984085083,-0.0530246384441852,-0.0553626045584678,0.0,0.0,-0.0663538575172424,-0.930393397808075
-0.0658893585205078,0.3408487737178802,0.0037373497616499,-0.5680454969406128,-0.053667776286602,-0.0128625128418207,0.0,0.0,0.3998520374298095,0.541074275970459
-0.065742589533329,0.3279523551464081,0.0160972774028778,-0.5732284188270569,-0.0550703704357147,-0.0280518736690282,0.0,0.0,0.8150224685668945,0.3568202257156372
-0.065614029765129,0.3151028454303741,0.0142609421163797,-0.5711392164230347,-0.0564580224454402,-0.0277533140033483,0.0,0.0,0.9574284553527832,-0.4399757385253906
-0.0654466599225997,0.3031472861766815,0.0180040597915649,-0.5314067006111145,-0.0577141493558883,-0.0251221507787704,0.0,0.0,0.7286026477813721,-0.0416586995124816
-0.0651512145996093,0.2919483184814453,0.0302464626729488,-0.4977605640888214,-0.0584036409854888,-0.0137898679822683,0.0,0.0,0.5493208169937134,-0.8579649329185486
-0.0650010108947753,0.2814075052738189,0.0139683037996292,-0.4684376120567322,-0.0573715157806873,0.0206425860524177,0.0,0.0,0.5369265079498291,0.1173353195190429
-0.064958669245243,0.2708241641521454,0.0035644918680191,-0.4703450202941894,-0.0567137561738491,0.0131551073864102,0.0,0.0,0.1224229335784912,0.1343104839324951
-0.0648642554879188,0.260528415441513,0.0084682144224643,-0.4575522840023041,-0.0557453483343124,0.0193679183721542,0.0,0.0,0.0653228759765625,0.8440147638320923
-0.0647647827863693,0.2502748668193817,0.0104967802762985,-0.4557356238365173,-0.0562911890447139,-0.0109166819602251,0.0,0.0,0.149938702583313,0.6876480579376221
-0.0646335631608963,0.2402154356241226,0.0149158593267202,-0.4471553564071655,-0.0580705441534519,-0.0355868861079216,0.0,0.0,0.3203654289245605,-0.7286596298217773
-0.064544677734375,0.2304880917072296,0.0090550361201167,-0.4323301613330841,-0.0582267120480537,-0.0031237702351063,0.0,0.0,0.3322645425796509,0.6436923742294312
-0.0643067359924316,0.2209378629922866,0.0249083694070577,-0.4244985580444336,-0.0593356415629386,-0.0221784748136997,0.0,0.0,-0.3637846708297729,-0.938155710697174
-0.0641475692391395,0.2108703404664993,0.0150347109884023,-0.4474090337753296,-0.0584631003439426,0.0174507983028888,0.0,0.0,0.2027490139007568,-0.4382637143135071
-0.0639112442731857,0.2007215768098831,0.0222410894930362,-0.4510054886341095,-0.0570875369012355,0.0275114234536886,0.0,0.0,-0.1600300073623657,-0.3990079164505005
-0.0636826530098915,0.1900584101676941,0.0212796218693256,-0.4738595187664032,-0.0555204525589942,0.0313414745032787,0.0,0.0,0.6986594200134277,0.0088248252868652
-0.0632963180541992,0.1794762760400772,0.0361824445426464,-0.4702275991439819,-0.0530980750918388,0.0484476499259471,0.0,0.0,0.7234385013580322,0.5516293048858643
-0.0628391280770301,0.1695547401905059,0.0441986732184886,-0.4409036040306091,-0.0515967048704624,0.0300275776535272,0.0,0.0,0.5922338962554932,-0.2960972785949707
-0.0623228065669536,0.1602116376161575,0.0497687384486198,-0.4151839017868042,-0.0497636422514915,0.0366613082587718,0.0,0.0,0.0654529333114624,-0.9247784614562988
-0.0617714896798133,0.1510006487369537,0.0512269958853721,-0.4092527329921722,-0.045904517173767,0.0771825462579727,0.0,0.0,0.0264040231704711,-0.6412989497184753
-0.0611995682120323,0.14157135784626,0.0517180860042572,-0.4189222753047943,-0.0404994562268257,0.1081013828516006,0.0,0.0,0.6287789344787598,0.2421193122863769
-0.0606682784855365,0.1323836892843246,0.0477061532437801,-0.4082038104534149,-0.0351384691894054,0.1072194799780845,0.0,0.0,0.3720148801803589,-0.2434486150741577
-0.0600507743656635,0.1237524151802063,0.0557863935828208,-0.3834803998470306,-0.0292563512921333,0.1176424473524093,0.0,0.0,0.3251740932464599,-0.5047224164009094
-0.0594897270202636,0.1152944415807724,0.0489825457334518,-0.3757887780666351,-0.0222215428948402,0.1406962871551513,0.0,0.0,0.112782597541809,0.6066577434539795
-0.058972168713808,0.1071332991123199,0.0457994788885116,-0.3626419007778168,-0.0163343418389558,0.1177439540624618,0.0,0.0,0.3835917711257934,0.8837389945983887
-0.0583019256591796,0.0993354395031929,0.0625566393136978,-0.3465302884578705,-0.0119239585474133,0.0882078856229782,0.0,0.0,0.4809920787811279,-0.110944926738739
-0.0576817505061626,0.0920331105589866,0.0575761720538139,-0.3245166540145874,-0.007537945639342,0.0877203345298767,0.0,0.0,-0.2978986501693725,-0.1314789056777954
-0.0570717826485633,0.0842168629169464,0.0563491098582744,-0.3473729193210602,-0.0029539784882217,0.0916794314980506,0.0,0.0,0.7815444469451904,0.8706884384155273
-0.0564313903450965,0.0766889452934265,0.0609988868236541,-0.3345712423324585,4.418863682076335e-05,0.0599632486701011,0.0,0.0,0.6685123443603516,-0.0411931276321411
-0.0559194572269916,0.0695579126477241,0.0485122464597225,-0.316936194896698,0.0026958128437399,0.0530324764549732,0.0,0.0,0.7161306142807007,0.0154790878295898
-0.0555759444832801,0.0627282261848449,0.0322004184126853,-0.3035492599010467,0.0048230327665805,0.0425443388521671,0.0,0.0,0.637353777885437,0.918781280517578
-0.055056095123291,0.0564593635499477,0.0513112656772136,-0.278617799282074,0.0054860804229974,0.0132609158754348,0.0,0.0,0.1325567960739135,0.356795072555542
-0.054506491869688,0.0500560365617275,0.0538914278149604,-0.2845958769321441,0.0065426365472376,0.0211311243474483,0.0,0.0,0.5192301273345947,0.4231919050216675
-0.0538390167057514,0.0441921576857566,0.0648488253355026,-0.2606264948844909,0.0084152724593877,0.0374526903033256,0.0,0.0,0.3211506605148315,0.3905955553054809
-0.0532061569392681,0.0387446992099285,0.0612782537937164,-0.242122545838356,0.0104024177417159,0.03974274918437,0.0,0.0,0.1571545600891113,0.7368167638778687
-0.0524185188114643,0.0336919873952865,0.0779135376214981,-0.224571481347084,0.0112382369115948,0.0167163591831922,0.0,0.0,0.0978606939315795,0.0323524475097656
-0.0515956878662109,0.0287036523222923,0.0809960216283798,-0.2217147350311279,0.0125077618286013,0.025390401482582,0.0,0.0,0.0104541778564453,0.0660929679870605
-0.0507947914302349,0.0239499900490045,0.0786314010620117,-0.2112853229045868,0.0139560457319021,0.0289657060056924,0.0,0.0,0.1145970821380615,0.2818692922592163
-0.0499713905155658,0.0194799993187189,0.0804686918854713,-0.1986858695745468,0.0157927386462688,0.0367337241768837,0.0,0.0,0.2647569179534912,0.298440933227539
-0.0491032600402832,0.0150236701592803,0.0844697430729866,-0.1980834901332855,0.0181137435138225,0.046420183032751,0.0,0.0,0.2713897228240967,0.7345640659332275
-0.0483026504516601,0.0107668256387114,0.0791258290410041,-0.1892055720090866,0.0190339311957359,0.0184038467705249,0.0,0.0,0.3874987363815307,0.8197180032730103
-0.0475782379508018,0.0066403364762663,0.0731157213449478,-0.1833902448415756,0.0183715224266052,-0.0132481707260012,0.0,0.0,0.1859041452407837,0.5326962471008301
-0.046847153455019,0.0026069378945976,0.0746825337409973,-0.1792429834604263,0.0168145522475242,-0.0311392005532979,0.0,0.0,0.7209649085998535,0.4386202096939087
-0.0461094863712787,-0.0011065625585615,0.0750150382518768,-0.1650297939777374,0.0155809167772531,-0.0246728360652923,0.0,1.0,0.8162457942962646,0.8290749788284302
-0.0451927185058593,-0.0044083977118134,0.1027651280164718,-0.1468377858400344,0.0040085408836603,-0.2322366535663604,1.0,1.0,0.9725196361541748,-0.9681903123855592
-0.0443002693355083,-0.0061408900655806,0.0997452586889267,-0.0772549659013748,-0.0053749987855553,-0.1864377558231353,1.0,1.0,0.672950029373169,-0.950981855392456
-0.0434903129935264,-0.0061754011549055,0.0847607925534248,-0.0015646913088858,-0.0090640075504779,-0.0737469866871833,1.0,1.0,-0.0836017727851867,-0.9843857884407043
-0.0428170189261436,-0.0057209990918636,0.0666633769869804,0.0201929900795221,-0.0084017273038625,0.0132563905790448,1.0,1.0,-0.4131337404251098,-0.9911359548568726
