x_pos,y_pos,x_vel,y_vel,angle,ang_vel,leg_1,leg_2,main_booster,lat_booster
-0.0015207290416583,1.4034945964813232,-0.1535132825374603,-0.3300281763076782,0.0012906027259305,0.0254231952130794,0.0,0.0,0.4408673813937189,-0.9341295249873828
-0.0030609131790697,1.3965610265731812,-0.1567500680685043,-0.3081640601158142,0.0039880108088254,0.0539539046585559,0.0,0.0,-0.7192966296064316,0.9182235920987896
-0.0045102117583155,1.3894907236099243,-0.1449514329433441,-0.3142377138137817,0.004014931153506,0.0005384064861573,0.0,0.0,0.578722319106618,0.6411112619490761
-0.0060318945907056,1.3830039501190186,-0.1501762419939041,-0.2882956564426422,0.0020425450056791,-0.0394515469670295,0.0,0.0,-0.2816359270955795,0.9149454669334918
-0.0074635506607592,1.3763903379440308,-0.1385244876146316,-0.2939372360706329,-0.0025469441898167,-0.091798223555088,0.0,0.0,0.1611917987260607,0.8743198459526742
-0.0087106702849268,1.37021803855896,-0.1179919019341468,-0.2743548452854156,-0.0092016337439417,-0.133105918765068,0.0,0.0,-0.9224869812447172,-0.7499439611894123
-0.010016918182373,1.3639168739318848,-0.125051200389862,-0.2800932228565216,-0.0147007349878549,-0.1099922806024551,0.0,0.0,0.2556809023165038,-0.9471746394120146
-0.0112563129514455,1.3582251071929932,-0.1199905127286911,-0.2530078589916229,-0.0186136234551668,-0.0782649144530296,0.0,0.0,0.2081832778317425,-0.9556535728291546
-0.0125684738159179,1.3533340692520142,-0.1288100183010101,-0.2174119055271148,-0.0209827367216348,-0.0473868027329444,0.0,0.0,-0.7669237284403791,0.980256702889182
-0.0138023374602198,1.34831702709198,-0.1187068074941635,-0.2230588048696518,-0.0256145093590021,-0.0926437526941299,0.0,0.0,-0.4205404640312955,0.9870402600023128
-0.0149468425661325,1.343167781829834,-0.1072050482034683,-0.2289943546056747,-0.0327803753316402,-0.1433305442333221,0.0,0.0,0.2645271954127746,-0.6578316566284643
-0.0160696990787982,1.3384937047958374,-0.1061931997537612,-0.2078842222690582,-0.038813229650259,-0.1206681951880455,0.0,0.0,0.0374588054636932,0.722334906236432
-0.0170252807438373,1.334343433380127,-0.0878296718001365,-0.184672325849533,-0.0464516207575798,-0.1527818441390991,0.0,0.0,0.7998269379864267,0.9360388798910514
-0.0178070068359375,1.3306243419647217,-0.0685029774904251,-0.1656219810247421,-0.056028239428997,-0.1915498524904251,0.0,0.0,0.5373849049339441,0.713216716291742
-0.0183470733463764,1.327916145324707,-0.043008841574192,-0.1208127662539482,-0.0669263079762458,-0.2179814875125885,0.0,0.0,-0.2147430798280898,-0.9090187711120086
-0.0189490318298339,1.3250744342803955,-0.0505229607224464,-0.1267537027597427,-0.0765156596899032,-0.1918044984340667,0.0,0.0,0.3353218282828838,-0.7126887656566772
-0.0194336883723735,1.3231385946273804,-0.0402858033776283,-0.0864724591374397,-0.084624670445919,-0.1621945351362228,0.0,0.0,-0.3272216941564982,-0.8016475323377517
-0.0199716575443744,1.3210728168487549,-0.0467394441366195,-0.0922256931662559,-0.0916259437799453,-0.1400381475687027,0.0,0.0,0.7895663501408741,0.6800977187653325
-0.0202685352414846,1.320160150527954,-0.0214736443012952,-0.0410852991044521,-0.0997809469699859,-0.1631150543689727,0.0,0.0,-0.5348149351160836,0.8840391518382289
-0.0205119140446186,1.3191088438034058,-0.0145659046247601,-0.047403622418642,-0.1095060482621193,-0.1945196688175201,0.0,0.0,-0.0597782681575178,-0.8716339427787108
-0.0208168029785156,1.3179439306259155,-0.0220712833106517,-0.0524085611104965,-0.1178736239671707,-0.1673659831285476,0.0,0.0,-0.7734962921995432,-0.8646379602081297
-0.0211976058781147,1.3166565895080566,-0.0313948318362236,-0.0577506422996521,-0.1245371401309967,-0.1332823932170868,0.0,0.0,0.075772801297443,-0.7023035960080737
-0.0215042121708393,1.3157588243484497,-0.0255239158868789,-0.0403384715318679,-0.1296620517969131,-0.1025072932243347,0.0,0.0,0.3519982500627043,0.8676144769732965
-0.0216579437255859,1.3150757551193235,-0.0086312983185052,-0.0309592206031084,-0.1363822817802429,-0.1344162374734878,0.0,0.0,0.3289811902216006,0.7525502958495438
-0.0218222625553607,1.3150484561920166,-0.0081261126324534,-0.0019879566971212,-0.1446712911128997,-0.1657952219247818,0.0,0.0,-0.4787584005904772,0.680081386087313
-0.0219623558223247,1.3148654699325562,-0.0048197107389569,-0.0090510183945298,-0.1538519263267517,-0.1836126148700714,0.0,0.0,0.1855431973743135,-0.9182865173929736
-0.0221067424863576,1.3153475522994995,-0.0072535672225058,0.0206608735024929,-0.1610256731510162,-0.1434745639562606,0.0,0.0,-0.5271291689371869,0.694479304131212
-0.0222254749387502,1.3156967163085938,-0.0038103822153061,0.0146223409101367,-0.1690906435251236,-0.161299392580986,0.0,0.0,-0.7043569128147718,0.8603043884778713
-0.0223099701106548,1.3159098625183103,0.0007192355114966,0.0084045296534895,-0.1782810240983963,-0.1838082671165466,0.0,0.0,0.7897712690873482,-0.9592264462527044
-0.0224216468632221,1.3167965412139893,-0.0041246809996664,0.0385438874363899,-0.1853420734405517,-0.1412209570407867,0.0,0.0,0.9922549829427788,-0.728398273682622
-0.0223990436643362,1.3190754652023315,0.0074956910684704,0.1006195321679115,-0.1906058341264724,-0.1052750945091247,0.0,0.0,-0.4195359546020507,0.6096319564272286
-0.0223599430173635,1.3212087154388428,0.0099158231168985,0.0940246656537056,-0.1966423094272613,-0.1207293644547462,0.0,0.0,0.6386900628719323,-0.9981047868242412
-0.0223581306636333,1.3244404792785645,0.0039575402624905,0.1431291401386261,-0.2004533112049102,-0.0762200206518173,0.0,0.0,0.7590596685750981,-0.8409361841765419
-0.0224472042173147,1.3281407356262207,-0.0069879083894193,0.1641976982355117,-0.2023752182722091,-0.0384381376206874,0.0,0.0,-0.2526854568864849,0.6249108709014315
-0.0225156787782907,1.3316961526870728,-0.0040238974615931,0.157629981637001,-0.2052257508039474,-0.0570110455155372,0.0,0.0,0.3757139376043772,-0.9548136681858128
-0.0225427635014057,1.3360700607299805,-0.0021772957406938,0.1943297088146209,-0.2057598978281021,-0.0106824468821287,0.0,0.0,0.6582155672471337,-0.8652845144295225
-0.0226056091487407,1.3410098552703855,-0.0078300070017576,0.2197536379098892,-0.2042056918144226,0.0310841314494609,0.0,0.0,-0.5056765817766304,-0.8185139958304318
-0.0227616317570209,1.3458430767059326,-0.0190951414406299,0.2152882665395736,-0.2006905078887939,0.0703036785125732,0.0,0.0,0.5037135085974587,0.849288751166619
-0.0227738376706838,1.3516738414764404,-0.0033904160372912,0.2594358026981354,-0.1984981149435043,0.0438478663563728,0.0,0.0,-0.3696170566402348,0.8773986145784612
-0.0227531436830759,1.3573529720306396,0.0012800351250916,0.2525160014629364,-0.197703942656517,0.0158834494650363,0.0,0.0,-0.737576626454381,-0.7554092762979061
-0.0228407867252826,1.3629281520843506,-0.0117829330265522,0.2481816262006759,-0.1946581900119781,0.0609146356582641,0.0,0.0,-0.0236187577247619,0.4603583812713623
-0.0229703895747661,1.368372082710266,-0.0164634529501199,0.2424125075340271,-0.1911385655403137,0.070392370223999,0.0,0.0,-0.3111979365348816,0.6826655864715576
-0.023083496838808,1.37365984916687,-0.0137016400694847,0.2353164702653885,-0.1887293457984924,0.0481839850544929,0.0,0.0,-0.5348067283630371,0.5197708606719971
-0.0231953617185354,1.3788018226623535,-0.0128731187433004,0.2287491858005523,-0.1870382577180862,0.0338216796517372,0.0,0.0,-0.5190966725349426,0.2779115438461303
-0.0233547203242778,1.383812665939331,-0.018126755952835,0.2229808270931244,-0.1848385781049728,0.0439935773611068,0.0,0.0,-0.378598153591156,-0.0794036388397216
-0.0235633850097656,1.3886926174163818,-0.023566298186779,0.2172123789787292,-0.1821202635765075,0.0543661043047905,0.0,0.0,-0.4165533781051636,0.258325457572937
-0.0238228794187307,1.3934412002563477,-0.0291886292397975,0.2114437073469162,-0.1788739711046219,0.0649255514144897,0.0,0.0,-0.6666649580001831,0.6284136772155762
-0.0240944866091012,1.398054599761963,-0.0299152173101902,0.2053678631782531,-0.1761116981506347,0.0552453510463237,0.0,0.0,-0.6633468270301819,0.5746526718139648
-0.0243849754333496,1.4025323390960691,-0.031452402472496,0.1993014514446258,-0.1736997365951538,0.0482391156256198,0.0,0.0,-0.4322253465652466,0.1046524047851562
-0.024731446057558,1.406879186630249,-0.0376013591885566,0.1935329139232635,-0.1707354933023452,0.0592849254608154,0.0,0.0,-0.1823629140853881,-0.3352774977684021
-0.0251354221254587,1.4110949039459229,-0.0439179614186286,0.1877641081809997,-0.1672119796276092,0.0704706683754921,0.0,0.0,-0.5687843561172485,-0.1240562200546264
-0.0255985260009765,1.4151794910430908,-0.0503979101777076,0.1819949150085449,-0.1631226539611816,0.0817864388227462,0.0,0.0,-0.557780921459198,0.5674991607666016
-0.0260704047977924,1.4191172122955322,-0.0504998788237571,0.1753656715154647,-0.1598060131072998,0.0663326904177665,0.0,0.0,-0.634705662727356,0.2323435544967651
-0.0266043655574321,0.0,-0.0572927184402942,0.1695964187383651,-0.1559119373559951,0.0778815001249313,0.0,0.0,-0.7328054904937744,-0.4046993255615234
-0.0272019393742084,1.4265995025634766,-0.0642350390553474,0.1638266742229461,-0.1514351814985275,0.0895343944430351,0.0,0.0,-0.6379011869430542,0.3744032382965088
-0.0278644561767578,1.430144429206848,-0.0713219940662384,0.1580563932657241,-0.146370992064476,0.1012839078903198,0.0,0.0,-0.6510939598083496,0.2280142307281494
-0.0285932533442974,1.433558464050293,-0.0785486623644828,0.1522854268550872,-0.1407148540019989,0.1131229624152183,0.0,0.0,-0.7944717407226562,0.5577459335327148
-0.0293356887996196,1.4368326663970947,-0.0791479051113128,0.1459768861532211,-0.1358318626880645,0.0976598039269447,0.0,0.0,-0.851314127445221,0.1975307464599609
-0.0301470756530761,0.0,-0.0866387337446212,0.1402056664228439,-0.1303489208221435,0.1096587181091308,0.0,0.0,-0.8114873170852661,0.2705203294754028
-0.0310283657163381,1.4429892301559448,-0.0942542180418968,0.134433701634407,-0.1242624893784523,0.1217285618185997,0.0,0.0,-0.7438366413116455,0.2195602655410766
-0.0319808945059776,1.4458718299865725,-0.1019892692565918,0.1286608576774597,-0.1175693124532699,0.1338638812303543,0.0,0.0,-0.8122144937515259,0.1678472757339477
-0.0330058112740516,1.4486241340637207,-0.1098388582468032,0.1228870898485183,-0.1102663502097129,0.1460594981908798,0.0,0.0,-0.85298752784729,0.3258187770843506
-0.0341040603816509,1.4512465000152588,-0.1177979484200477,0.1171122565865516,-0.1023508161306381,0.1583106219768524,0.0,0.0,-0.7584943175315857,0.6083178520202637
-0.035226821899414,1.4537320137023926,-0.1196109652519226,0.1109486669301986,-0.0950803831219673,0.1454089134931564,0.0,0.0,-0.7171047925949097,0.4140326976776123
-0.0364250168204307,1.456087350845337,-0.1277738362550735,0.1051731184124946,-0.0871925055980682,0.1577575504779815,0.0,0.0,-0.813620924949646,0.5960052013397217
-0.0376621261239051,1.4583083391189575,-0.1313453167676925,0.0991384163498878,-0.0796284452080726,0.1512810736894607,0.0,0.0,-0.7415987253189087,0.2489025592803955
-0.0389763824641704,1.4603997468948364,-0.1396924406290054,0.0933617353439331,-0.0714429318904876,0.1637103259563446,0.0,0.0,-0.6880825757980347,0.6132919788360596
-0.0403139106929302,1.4623479843139648,-0.1412567198276519,0.0869297683238983,-0.0640237852931022,0.1483826339244842,0.0,0.0,-0.6546346545219421,0.5341472625732422
-0.0416859611868858,1.4641684293746948,-0.1442117393016815,0.0811902955174446,-0.0570895932614803,0.1386838406324386,0.0,0.0,-0.6198723912239075,0.3071705102920532
-0.0431374534964561,1.4658589363098145,-0.1527993530035019,0.0754132121801376,-0.0495293140411376,0.1512057334184646,0.0,0.0,-0.7880107164382935,0.6033632755279541
-0.044628620147705,1.4674195051193235,-0.1563781350851059,0.0695792213082313,-0.0423588715493679,0.1434090435504913,0.0,0.0,-0.5338467359542847,0.569318413734436
-0.0461533553898334,1.468848466873169,-0.1591634750366211,0.0636808946728706,-0.0357505120337009,0.1321674883365631,0.0,0.0,-0.7518683671951294,0.2274173498153686
-0.0477595329284668,1.4701476097106934,-0.1679506301879882,0.0579030774533748,-0.0285129584372043,0.1447509080171585,0.0,0.0,-0.5399494767189026,0.1842529773712158
-0.0494478233158588,1.4713174104690552,-0.1767955720424652,0.0521241500973701,-0.0206455439329147,0.1573482602834701,0.0,0.0,-0.7340436577796936,0.3860316276550293
-0.0512186996638774,1.4723581075668335,-0.1856939941644668,0.0463440082967281,-0.012147725559771,0.1699565201997757,0.0,0.0,-0.6483390927314758,-0.1201317906379699
-0.053072739392519,1.4732695817947388,-0.1946416646242141,0.0405625589191913,-0.0030190816614776,0.1825725138187408,0.0,0.0,-0.564322829246521,0.7356796264648438
-0.0549550056457519,1.474044680595398,-0.1967141479253769,0.0344396121799945,0.0053542903624475,0.1674678176641464,0.0,0.0,-0.5778800249099731,0.6065481901168823
-0.0568739883601665,1.4746965169906616,-0.1998105645179748,0.028922289609909,0.013169283978641,0.1562995463609695,0.0,0.0,-0.5776951909065247,0.8970392942428589
-0.0587969794869422,1.4752297401428225,-0.1987984627485275,0.0236271061003208,0.0195938814431428,0.1284916400909423,0.0,0.0,-0.5321593880653381,0.8699696063995361
-0.0607485771179199,1.4756441116333008,-0.2008857727050781,0.0183269325643777,0.0252409279346466,0.1129407882690429,0.0,0.0,-0.4885247945785522,0.5302808284759521
-0.0627521499991417,1.475924730300903,-0.2058764696121215,0.0123733235523104,0.0306909251958131,0.1090001240372657,0.0,0.0,-0.6014534831047058,0.6203680038452148
-0.0647887215018272,1.4760839939117432,-0.2084757983684539,0.0069736442528665,0.0354537107050418,0.0952556356787681,0.0,0.0,-0.3852638006210327,0.4289932250976562
-0.0669106468558311,1.47611403465271,-0.2176549881696701,0.0011938291136175,0.0408458746969699,0.107843279838562,0.0,0.0,-0.513712465763092,0.9578015804290771
-0.0690494552254676,1.4760230779647827,-0.2182243317365646,-0.0041726063936948,0.0451339036226272,0.0857609510421752,0.0,0.0,-0.6737484931945801,0.5373120307922363
-0.0712325125932693,1.475808024406433,-0.222218245267868,-0.0096735069528222,0.0490012429654598,0.0773468166589737,0.0,0.0,-0.6692025065422058,0.528586745262146
-0.0734536200761795,1.4754674434661863,-0.2254364788532257,-0.0152529003098607,0.0522909015417099,0.0657932832837104,0.0,0.0,-0.7655178904533386,0.8618490695953369
-0.0756895095109939,1.474994421005249,-0.2257495671510696,-0.0210996083915233,0.054424725472927,0.0426765717566013,0.0,0.0,-0.8564268350601196,0.4530545473098755
-0.0780114158987999,1.4743918180465698,-0.2349765002727508,-0.0268788747489452,0.0571822375059127,0.0551500543951988,0.0,0.0,-0.9039722681045532,0.9449191093444824
-0.0803263634443283,1.4736677408218384,-0.2325437813997268,-0.0322249755263328,0.0582216568291187,0.0207883287221193,0.0,0.0,-0.9585672616958618,0.8712935447692871
-0.0826421752572059,1.4728147983551023,-0.2310996800661087,-0.0378874018788337,0.0577470362186431,-0.0094923889264464,0.0,0.0,-0.9526649117469788,0.5117499828338623
-0.085003949701786,1.4718396663665771,-0.2352962046861648,-0.0433074012398719,0.056880809366703,-0.0173247065395116,0.0,0.0,-0.8781430125236511,0.1513510942459106
-0.0874513611197471,1.4707348346710205,-0.2444892823696136,-0.0490864440798759,0.0566304959356784,-0.0050063244998455,0.0,0.0,-0.7418308258056641,0.7965488433837891
-0.0899085029959678,1.469510197639465,-0.2441442757844925,-0.0543725043535232,0.0550798214972019,-0.0310135092586278,0.0,0.0,-0.9255176782608032,0.5546913146972656
-0.0923995003104209,1.4681544303894043,-0.2468528002500534,-0.0601745024323463,0.0528523102402687,-0.0445501431822776,0.0,0.0,-0.8238981366157532,0.6820182800292969
-0.0949263572692871,1.466671109199524,-0.2497955560684204,-0.0658225044608116,0.0499942563474178,-0.0571610145270824,0.0,0.0,-0.8977104425430298,-0.1430168151855468
-0.0975379943847656,1.465058445930481,-0.2588852345943451,-0.0716017559170723,0.047740988433361,-0.0450653620064258,0.0,0.0,-0.974398136138916,0.7526376247406006
-0.1001770049333572,1.4633201360702517,-0.2607602775096893,-0.0771637484431266,0.0446495302021503,-0.0618291310966014,0.0,0.0,-0.838521420955658,0.3317676782608032
-0.1028998345136642,0.0,-0.269769549369812,-0.0829428359866142,0.0421557798981666,-0.049874760210514,0.0,0.0,-0.9456902742385864,0.2125439643859863
-0.1057064086198806,1.4594547748565674,-0.2787307798862457,-0.0887214988470077,0.0402558147907257,-0.0379994548857212,0.0,0.0,-0.9658631682395936,0.5066733360290527
-0.1085596084594726,1.4573335647583008,-0.283067911863327,-0.0942139253020286,0.0380264148116111,-0.044588066637516,0.0,0.0,-0.9629338383674622,-0.114334762096405
-0.1114954948425293,1.4550827741622925,-0.2919162809848785,-0.0999922603368759,0.0363819599151611,-0.0328891687095165,0.0,0.0,-0.8936061859130859,0.863577127456665
-0.1144476905465126,1.4527031183242798,-0.2924767136573791,-0.1056987196207046,0.0336709655821323,-0.0542196817696094,0.0,0.0,-0.8192797303199768,0.269719123840332
-0.1174812316894531,1.4501938819885254,-0.3011879920959472,-0.1114770025014877,0.0315347909927368,-0.0427235886454582,0.0,0.0,-0.8818779587745667,0.6933465003967285
-0.1205540671944618,1.4475553035736084,-0.3046557605266571,-0.1172157227993011,0.0289334394037723,-0.0520268604159355,0.0,0.0,-0.9742584824562072,0.8111399412155151
-0.1236313804984092,1.4447952508926392,-0.3037452697753906,-0.1225978955626487,0.0249976105988025,-0.0787164792418479,0.0,0.0,-0.9726048111915588,-0.548894464969635
-0.1268264800310135,1.441899299621582,-0.3170857727527618,-0.1286710798740387,0.0225994959473609,-0.0479623638093471,0.0,0.0,-0.9754127860069276,0.394207239151001
-0.1300996840000152,1.4388736486434937,-0.3254404067993164,-0.1344486624002456,0.0207513999193906,-0.0369619950652122,0.0,0.0,-0.9201662540435792,0.5165040493011475
-0.1334104537963867,1.4357236623764038,-0.3287595212459564,-0.1399667561054229,0.0184575207531452,-0.0458775348961353,0.0,0.0,-0.8744292855262756,0.9287786483764648
-0.1367064416408538,1.432457447052002,-0.3254958093166351,-0.1451245993375778,0.0144131910055875,-0.0808866173028945,0.0,0.0,-0.9709514379501344,-0.5018120408058167
-0.1401117295026779,1.429060697555542,-0.3378497958183288,-0.1509424895048141,0.0117672653868794,-0.0529188401997089,0.0,0.0,-0.9783670902252196,0.1293520927429199
-0.1435904502868652,1.4255341291427612,-0.3457173705101013,-0.1567196249961853,0.0096395835280418,-0.0425534844398498,0.0,0.0,-0.9721983671188354,0.5158712863922119
-0.1470963507890701,1.4218828678131104,-0.3478039801120758,-0.1622583717107772,0.0068916142918169,-0.0549593679606914,0.0,0.0,-0.767185389995575,-0.1715973615646362
-0.1506728231906891,1.4181019067764282,-0.3553701341152191,-0.1680353134870529,0.0046430802904069,-0.0449707210063934,0.0,0.0,-0.6667327284812927,0.4415578842163086
-0.1543183326721191,1.4141910076141355,-0.3627694249153137,-0.1738119572401046,0.0028837549034506,-0.0351864099502563,0.0,0.0,-0.911710262298584,0.7477273941040039
-0.1579846441745758,1.4101486206054688,-0.3641477823257446,-0.1796645075082779,0.0004329372313804,-0.0490167140960693,0.0,0.0,-0.409888744354248,0.3483405113220215
-0.1617165505886078,1.405976176261902,-0.3711783289909363,-0.1854410469532013,-0.001550770481117,-0.0396741665899753,0.0,0.0,-0.8254070281982422,0.657386302947998
-0.1654578149318695,1.401672601699829,-0.3711969554424286,-0.1912783235311508,-0.00444289855659,-0.0578425452113151,0.0,0.0,-0.9847947359085084,0.8438220024108887
-0.1691794395446777,1.397230863571167,-0.3676151931285858,-0.1974275112152099,-0.0089343003928661,-0.0898278504610061,0.0,0.0,-0.8466622233390808,0.1147354841232299
-0.172960564494133,1.3926595449447632,-0.3739977478981018,-0.2032049298286438,-0.0129959620535373,-0.0812334716320037,0.0,0.0,-0.9769977927207948,0.3253661394119262
-0.1767989099025726,1.3879581689834597,-0.3801371157169342,-0.208981916308403,-0.0166415479034185,-0.0729117766022682,0.0,0.0,-0.5451338887214661,-0.2744501829147339
-0.1806919127702713,1.3831270933151243,-0.3860189020633697,-0.21475850045681,-0.0198852661997079,-0.0648744329810142,0.0,0.0,-0.9316195249557496,0.7017168998718262
