x_pos,y_pos,x_vel,y_vel,angle,ang_vel,leg_1,leg_2,main_booster,lat_booster
-0.0015556334983557,1.4031109809875488,-0.1575118899345398,-0.3470753729343414,0.0017388666747137,0.0342991724610328,0.0,0.0,-0.3462773561477661,0.9023624658584596
-0.0030664443038403,1.39480721950531,-0.1507734954357147,-0.3690565824508667,0.001436922000721,-0.0060390946455299,0.0,0.0,-0.2328452467918396,0.7683072090148926
-0.004535102751106,1.385983943939209,-0.1446106433868408,-0.3921441733837127,-0.0007839851314201,-0.0444224998354911,0.0,0.0,-0.1651355028152465,0.5534322261810303
-0.0059998510405421,1.37664532661438,-0.143272191286087,-0.4150553047657013,-0.0039516719989478,-0.0633597522974014,0.0,0.0,0.2456587553024292,0.6964879035949707
-0.0073295594193041,1.3675318956375122,-0.1284822821617126,-0.4050528705120086,-0.0083992592990398,-0.0889596790075302,0.0,0.0,0.1762205362319946,0.6279259920120239
-0.008528041653335,1.3584824800491333,-0.1142053827643394,-0.4022434949874878,-0.0139824887737631,-0.1116747632622718,0.0,0.0,-0.3364846110343933,-0.2401177287101745
-0.0097564700990915,1.3489198684692385,-0.1171102970838546,-0.4250724613666534,-0.0196479484438896,-0.1133193001151084,0.0,0.0,0.1415016651153564,-0.3126739263534546
-0.0109023097902536,1.339511513710022,-0.1092633977532386,-0.4182315468788147,-0.0249087698757648,-0.1052263230085372,0.0,0.0,-0.5033501386642456,0.0344716310501098
-0.0120771406218409,1.3295897245407104,-0.1120738834142685,-0.4410640895366668,-0.0302619934082031,-0.1070741862058639,0.0,0.0,0.5411745309829712,-0.7862566709518433
-0.0133227352052927,1.320178747177124,-0.1206182241439819,-0.4183597862720489,-0.0341548137366771,-0.0778636038303375,0.0,0.0,-0.3627310395240783,0.5109241008758545
-0.0145503040403127,1.310252070426941,-0.117559790611267,-0.4413102567195892,-0.0393074005842208,-0.1030611768364906,0.0,0.0,-0.4190961122512817,-0.0765817761421203
-0.0158056262880563,1.2998123168945312,-0.120211623609066,-0.4641337990760803,-0.0445654466748237,-0.1051704660058021,0.0,0.0,0.532421350479126,-0.2403770089149475
-0.0169382095336914,1.2898236513137815,-0.1084178686141967,-0.4440930783748626,-0.0493634603917598,-0.0959689766168594,0.0,0.0,-0.8789491653442383,0.56500244140625
-0.0180479995906353,1.2793128490447998,-0.1047519892454147,-0.4673669040203094,-0.0555279217660427,-0.1233002692461013,0.0,0.0,-0.151397168636322,0.4308984279632568
-0.0191836357116699,1.2682892084121704,-0.1072263568639755,-0.4901919364929199,-0.0618114955723285,-0.125682920217514,0.0,0.0,-0.5790676474571228,-0.6633833646774292
-0.0203877445310354,1.2567485570907593,-0.115034595131874,-0.5131456255912781,-0.0671434849500656,-0.1066492944955825,0.0,0.0,-0.6479127407073975,-0.727344810962677
-0.0216605179011821,1.2447078227996826,-0.1228935569524765,-0.5353488326072693,-0.0714879781007766,-0.0868973210453987,0.0,0.0,-0.2056338191032409,-0.8973447680473328
-0.0230117794126272,1.2321518659591677,-0.1319912374019622,-0.5581920146942139,-0.0746058672666549,-0.0623631291091442,0.0,0.0,0.6066739559173584,-0.7431159615516663
-0.0242831222712993,1.220252275466919,-0.1255487948656082,-0.5289496779441833,-0.0761783719062805,-0.0314526222646236,0.0,0.0,0.5351055860519409,-0.1285659074783325
-0.0256123542785644,1.2086342573165894,-0.1308304965496063,-0.5164657235145569,-0.078243613243103,-0.0413088724017143,0.0,0.0,0.5372436046600342,-0.710909366607666
-0.0268346779048442,1.1975454092025757,-0.1216887831687927,-0.4928665459156036,-0.0787837952375412,-0.0108046643435955,0.0,0.0,-0.1831677556037902,-0.1098985075950622
-0.0280789379030466,1.1859431266784668,-0.1237174421548843,-0.5156980752944946,-0.079475000500679,-0.0138252647593617,0.0,0.0,-0.1051356196403503,0.0842093229293823
-0.0293441768735647,1.1738274097442627,-0.1256721913814544,-0.538521945476532,-0.0803193747997284,-0.0168893299996852,0.0,0.0,-0.305301308631897,0.3486292362213135
-0.0306298248469829,1.161198377609253,-0.1275547444820404,-0.5613473057746887,-0.0813209936022758,-0.0200342517346143,0.0,0.0,0.6378374099731445,-0.3225975036621094
-0.0320237167179584,1.1490269899368286,-0.1375560462474823,-0.541053056716919,-0.0831360444426536,-0.0363044701516628,0.0,0.0,-0.4206768870353699,-0.0022892951965332
-0.0334378257393837,1.1363205909729004,-0.1394071727991104,-0.5648343563079834,-0.0851148664951324,-0.0395766012370586,0.0,0.0,0.1579564809799194,0.0784777402877807
-0.0348242744803428,1.1238619089126587,-0.1364861130714416,-0.5538526177406311,-0.0872489139437675,-0.0426810607314109,0.0,0.0,-0.7432246804237366,-0.0872936248779296
-0.0362281799316406,1.110889554023743,-0.1380745321512222,-0.5766774415969849,-0.0895537659525871,-0.0460967943072319,0.0,0.0,0.1092497110366821,-0.6558071970939636
-0.037752341479063,1.0982067584991455,-0.1511119753122329,-0.5637603402137756,-0.0908460095524787,-0.0258448626846075,0.0,0.0,-0.7848290205001831,0.5178099870681763
-0.0392534248530864,1.08500337600708,-0.1476197987794876,-0.5869714617729187,-0.093311570584774,-0.0493114590644836,0.0,0.0,-0.923065721988678,-0.3745827674865722
-0.0407699570059776,1.0712865591049194,-0.1489831060171127,-0.6097966432571411,-0.0959566086530685,-0.0529006011784076,0.0,0.0,0.3660064935684204,-0.1643605232238769
-0.0423304550349712,1.0576071739196775,-0.1529016345739364,-0.6081856489181519,-0.0990812256932258,-0.0624922737479209,0.0,0.0,-0.9039534330368042,0.4104750156402588
-0.0439049713313579,1.0434144735336304,-0.1541157513856887,-0.6310111880302429,-0.1023902297019958,-0.0661802142858505,0.0,0.0,-0.3207836151123047,-0.4734295606613159
-0.0454927459359169,1.0287086963653564,-0.1552559584379196,-0.6538369059562683,-0.1058858558535575,-0.0699124857783317,0.0,0.0,-0.1147181391716003,-0.9660359025001526
-0.0471668243408203,1.0135035514831543,-0.1655900776386261,-0.6759162545204163,-0.1076947972178459,-0.0361786261200904,0.0,0.0,-0.6475455164909363,-0.425994873046875
-0.0488528236746788,0.9977850317955016,-0.1665845513343811,-0.6987413763999939,-0.109694205224514,-0.0399882271885871,0.0,0.0,-0.662055253982544,-0.6598507165908813
-0.0506044402718544,0.9815590381622314,-0.1743288934230804,-0.7212169766426086,-0.1105134636163711,-0.0163851454854011,0.0,0.0,-0.445841372013092,-0.7664147019386292
-0.0524224266409873,0.9648351073265076,-0.1822244077920913,-0.7432572245597839,-0.1100917384028434,0.0084343533962965,0.0,0.0,0.0191644430160522,-0.0990993380546569
-0.0542172417044639,0.9483767747879028,-0.1795953959226608,-0.7314706444740295,-0.1099772006273269,0.0022908446844667,0.0,0.0,-0.0327045321464538,-0.4328997731208801
-0.0560212135314941,0.9314053058624268,-0.1803115755319595,-0.7542955875396729,-0.1100585833191871,-0.0016278537223115,0.0,0.0,-0.7853208780288696,-0.3956353664398193
-0.0578335747122764,0.913920760154724,-0.1809617131948471,-0.7771205902099609,-0.1103367954492569,-0.0055639995262026,0.0,0.0,0.7435297966003418,-0.5527467131614685
-0.0594981200993061,0.8967294096946716,-0.1674696505069732,-0.7639853358268738,-0.1093338206410408,0.0200594011694192,0.0,0.0,0.5700819492340088,-0.1863927841186523
-0.0610456466674804,0.8794541358947754,-0.1559918224811554,-0.7677001357078552,-0.1081016734242439,0.0246428940445184,0.0,0.0,0.0413969755172729,-0.5758324265480042
-0.0625394806265831,0.86215740442276,-0.1516837328672409,-0.7685787081718445,-0.1058194860816001,0.0456439182162284,0.0,0.0,-0.1933349370956421,-0.1010911464691162
-0.0640394240617752,0.8443475365638733,-0.1520876884460449,-0.7914040684700012,-0.1037354692816734,0.041680134832859,0.0,0.0,0.1485954523086547,-0.1888474225997924
-0.0654889121651649,0.826366126537323,-0.1470008492469787,-0.7990356087684631,-0.1017017140984535,0.0406749583780765,0.0,0.0,0.6195023059844971,-0.062443733215332
-0.0668394118547439,0.8085159659385681,-0.1371746957302093,-0.7931934595108032,-0.0995889380574226,0.0422554202377796,0.0,0.0,0.6069846153259277,-0.069893479347229
-0.0682224258780479,0.7913793921470642,-0.139718160033226,-0.7615299224853516,-0.09817885607481,0.0282016638666391,0.0,0.0,-0.3684597015380859,-0.479209303855896
-0.0696092620491981,0.7737297415733337,-0.139909341931343,-0.7843549847602844,-0.0969647914171218,0.0242811329662799,0.0,0.0,0.3659809827804565,0.0251246690750122
-0.0709762573242187,0.7561969757080078,-0.1376403719186782,-0.7791680693626404,-0.0960265845060348,0.0187640525400638,0.0,0.0,0.6384410858154297,-0.1169817447662353
-0.0721502304077148,0.7389761805534363,-0.11881123483181,-0.7652791738510132,-0.0946238711476326,0.0280544850975275,0.0,0.0,0.2354282140731811,0.2792054414749145
-0.0733175277709961,0.7220708727836609,-0.1177467703819274,-0.7512843012809753,-0.0936122238636016,0.0202329661697149,0.0,0.0,-0.6980226039886475,-0.4212663173675537
-0.0744868293404579,0.7046522498130798,-0.1177637577056884,-0.7741090059280396,-0.0927905812859535,0.0164329670369625,0.0,0.0,0.3377735614776611,0.5081466436386108
-0.0755548477172851,0.687683641910553,-0.1064312309026718,-0.7541796565055847,-0.0931614488363266,-0.0074171544983983,0.0,0.0,0.5220881700515747,-0.4270682334899902
-0.0764457732439041,0.6708536744117737,-0.089168980717659,-0.7479994893074036,-0.0930827185511589,0.0015744736883789,0.0,0.0,0.5408730506896973,-0.1150586009025573
-0.0773854255676269,0.654179036617279,-0.0934539213776588,-0.741127073764801,-0.0935989841818809,-0.0103250248357653,0.0,0.0,0.2003350257873535,-0.299440860748291
-0.0782037749886512,0.6378461718559265,-0.0814427435398101,-0.7259236574172974,-0.0939790233969688,-0.0076005398295819,0.0,0.0,0.4634439945220947,-0.480509877204895
-0.0788446441292762,0.6218751072883606,-0.0640928149223327,-0.7098255157470703,-0.0939700528979301,0.0001789549423847,0.0,0.0,-0.3004894852638244,-0.615131139755249
-0.0795275717973709,0.6054031252861023,-0.0692148655652999,-0.7320350408554077,-0.0930579826235771,0.0182413794100284,0.0,0.0,0.7038156986236572,-0.1376053094863891
-0.080213263630867,0.5896389484405518,-0.0689501017332077,-0.7006052136421204,-0.0926783010363578,0.0075936503708362,0.0,0.0,0.086521029472351,-0.472486138343811
-0.0808424949645996,0.5737205743789673,-0.0632964670658111,-0.7074618935585022,-0.0923077166080474,0.0074117085896432,0.0,0.0,0.4471528530120849,-0.3408171534538269
-0.0815019607543945,0.5582187175750732,-0.0657482296228408,-0.6889863610267639,-0.0925037786364555,-0.0039211241528391,0.0,0.0,-0.1458814144134521,-0.0131945013999938
-0.0821606665849685,0.5422034859657288,-0.0655166953802108,-0.7118107080459595,-0.0928553268313407,-0.0070310356095433,0.0,0.0,0.8711116313934326,-0.7828038930892944
-0.0827866569161415,0.5267174243927002,-0.063733123242855,-0.6881995797157288,-0.0917343497276306,0.02241962403059,0.0,0.0,0.2736387252807617,-0.1871269941329956
-0.0833773612976074,0.5111786723136902,-0.0600808747112751,-0.6905444860458374,-0.0907303169369697,0.0200804509222507,0.0,0.0,0.8259027004241943,-0.3461536169052124
-0.0840438827872276,0.4961210489273071,-0.0668947547674179,-0.6692149043083191,-0.0904982164502143,0.0046423403546214,0.0,0.0,0.909576416015625,0.1708630323410034
-0.0845952033996582,0.4820243716239929,-0.0553428120911121,-0.6265077590942383,-0.0902841538190841,0.0042811366729438,0.0,0.0,0.4031590223312378,-0.0262343883514404
-0.0850533470511436,0.4677759110927582,-0.0462322458624839,-0.6332405805587769,-0.0898739323019981,0.0082044852897524,0.0,0.0,0.1309564113616943,0.4433799982070923
-0.0854393020272255,0.4538846313953399,-0.038980133831501,-0.6173688173294067,-0.0894975736737251,0.007527285721153,0.0,0.0,0.2871556282043457,-0.1116827726364135
-0.0858640670776367,0.4400407075881958,-0.0424010679125785,-0.6152892708778381,-0.0895725861191749,-0.0014999418053776,0.0,0.0,-0.0129362344741821,0.3000893592834472
-0.0862875953316688,0.4256834685802459,-0.0421682298183441,-0.6381132006645203,-0.089752197265625,-0.0035926748532801,0.0,0.0,0.8997211456298828,0.5239568948745728
-999.0,0.4118722379207611,-0.026719968765974,-0.6139060854911804,-0.0909620746970176,-0.0241976641118526,0.0,0.0,0.5797300338745117,-0.4643464088439941
-0.0868946090340614,0.3987706899642944,-0.0308673288673162,-0.5824071168899536,-0.0928301438689231,-0.037361666560173,0.0,0.0,0.8128774166107178,-0.8321622610092163
-0.08713960647583,0.3860989809036255,-0.0243735872209072,-0.5631961226463318,-0.0929489880800247,-0.0023764767684042,0.0,0.0,0.6907849311828613,0.2148293256759643
-0.0873807892203331,0.3735163509845733,-0.0237618573009967,-0.5592489242553711,-0.0932982861995697,-0.0069859377108514,0.0,0.0,0.2684520483016968,-0.4130641222000122
-0.0875457748770713,0.3607858121395111,-0.0163328405469656,-0.565815806388855,-0.0934676229953765,-0.0033869419712573,0.0,0.0,0.7937028408050537,-0.0716278553009033
-0.087709903717041,0.3480968773365021,-0.016023801639676,-0.5639756321907043,-0.0938476100564003,-0.0075998320244252,0.0,0.0,0.8928842544555664,0.2140200138092041
-0.0877977386116981,0.3362530469894409,-0.008316857740283,-0.5264238119125366,-0.0943140611052513,-0.0093287313356995,0.0,0.0,-0.5437043905258179,-0.8532274961471558
-0.0879428833723068,0.3239123821258545,-0.0155084934085607,-0.548409104347229,-0.0933348834514617,0.0195834022015333,0.0,0.0,0.8998956680297852,0.4450205564498901
-0.088128849864006,0.312480092048645,-0.0189544074237346,-0.5080809593200684,-0.0929740071296691,0.007217398378998,0.0,0.0,0.6024298667907715,0.2578332424163818
-0.0884099975228309,0.3010315597057342,-0.0278761498630046,-0.5088390707969666,-0.0932042524218559,-0.0046051144599914,0.0,0.0,0.1038277149200439,0.147637128829956
-0.0886153206229209,0.2898544669151306,-0.0204320363700389,-0.4967647790908813,-0.0933095067739486,-0.0021049135830253,0.0,0.0,0.1077723503112793,0.2841629981994629
-0.0888529792428016,0.2787497043609619,-0.0233511887490749,-0.4935720860958099,-0.0937175080180168,-0.0081602158024907,0.0,0.0,0.0103284120559692,0.1350044012069702
-0.0890860557556152,0.2677550613880157,-0.0227596145123243,-0.4886834323406219,-0.0942577272653579,-0.0108043439686298,0.0,0.0,0.2593269348144531,-0.1060857772827148
-0.0892791748046875,0.2570441961288452,-0.0187550131231546,-0.4760756194591522,-0.0948057547211647,-0.0109605863690376,0.0,0.0,0.4843275547027588,-0.2490779161453247
-0.0893462151288986,0.2465890794992447,-0.006562998984009,-0.4646791815757751,-0.0949453860521316,-0.0027925805188715,0.0,0.0,0.0565313100814819,-0.4584497213363647
-0.0893791168928146,0.2359451353549957,-0.0032847733236849,-0.473065584897995,-0.0949571728706359,-0.0002353666059207,0.0,0.0,0.1322996616363525,-0.8160443902015686
-0.0893794074654579,0.2251924127340316,-0.0017784141236916,-0.4777885675430298,-0.0932313799858093,0.0345159471035003,0.0,0.0,0.2935283184051513,0.6585855484008789
-0.089161492884159,0.2145685106515884,0.021088907495141,-0.4721288084983825,-0.0925247892737388,0.0141316400840878,0.0,0.0,0.5993733406066895,-0.3943239450454712
-0.0887765884399414,0.2039825022220611,0.0370469018816947,-0.4703995287418365,-0.0911008194088935,0.0284796152263879,0.0,0.0,0.6982167959213257,-0.8800162672996521
-999.0,0.1940532475709915,0.0343476682901382,-0.4411022961139679,-0.0878265798091888,0.0654849633574485,0.0,0.0,0.034487247467041,-0.5744265913963318
-0.0880087837576866,0.1843277066946029,0.0345102399587631,-0.4319818317890167,-0.0832590013742446,0.0913517326116561,0.0,0.0,0.318660020828247,0.118584394454956
-0.087478257715702,0.1748723089694976,0.0478489249944686,-0.4199592769145965,-0.0781034082174301,0.1031119003891944,0.0,0.0,0.3168282508850097,0.3227388858795166
-0.0868516936898231,0.1652833819389343,0.0569325983524322,-0.4258896112442016,-0.0724362954497337,0.1133422702550888,0.0,0.0,0.2612805366516113,-0.1407436728477478
-0.0862418189644813,0.1557670384645462,0.0552940852940082,-0.4226805567741394,-0.06680379062891,0.1126500591635704,0.0,0.0,0.3183920383453369,0.2574337720870971
-0.0855238884687423,0.1467612534761428,0.065620943903923,-0.3999948799610138,-0.0606968067586422,0.1221396476030349,0.0,0.0,0.3205904960632324,-0.5631364583969116
-0.0848487839102745,0.1379292756319046,0.0600608065724372,-0.3922500908374786,-0.0533389002084732,0.147158145904541,0.0,0.0,-0.0491818785667419,0.5839629173278809
-0.0841431617736816,0.1285866051912307,0.0638681128621101,-0.4150037765502929,-0.0467184484004974,0.1324092000722885,0.0,0.0,0.786772608757019,0.7704513072967529
-0.0832449942827224,0.1198541224002838,0.0842551589012146,-0.3879498243331909,-0.0412225611507892,0.1099179238080978,0.0,0.0,0.5098268985748291,-0.293053925037384
-0.0823744758963584,0.1116389110684394,0.0815062597393989,-0.3649759292602539,-0.0357490219175815,0.1094710379838943,0.0,0.0,0.1793247461318969,0.489643931388855
-0.0815514549612999,0.1037149503827095,0.0768195539712905,-0.3520561754703522,-0.0303349047899246,0.1082823127508163,0.0,0.0,0.0199294090270996,-0.3718543648719787
-0.0807424560189247,0.0957394242286682,0.0752601772546768,-0.3543666303157806,-0.0247685965150594,0.1113261431455612,0.0,0.0,0.6476268768310547,0.8461422920227051
-0.0799893364310264,0.088153064250946,0.071349486708641,-0.3371112644672394,-0.0208649653941392,0.078072614967823,0.0,0.0,0.5415892601013184,0.5898504257202148
-0.0793405547738075,0.080788142979145,0.0622399076819419,-0.3272959589958191,-0.0182497780770063,0.05230363458395,0.0,0.0,0.6379095315933228,0.8609950542449951
-0.0785028487443924,0.0739781931042671,0.0824112743139267,-0.3026499450206756,-0.0169124472886323,0.0267464853823184,0.0,0.0,-0.211258590221405,0.4534931182861328
-0.0776751488447189,0.066654622554779,0.0811599567532539,-0.3254729807376861,-0.0153174148872494,0.0319005995988845,0.0,0.0,0.5683227777481079,0.2977238893508911
-0.0767089873552322,0.0599006749689579,0.0940889865159988,-0.3001545667648315,-0.0128199784085154,0.0499486066401004,0.0,0.0,0.4317891597747803,-0.5364772081375122
-0.0758088082075119,0.0536476224660873,0.0861801132559776,-0.2778849899768829,-0.009033914655447,0.0757215172052383,0.0,0.0,0.1523972749710083,0.8954029083251953
-0.07472725212574,0.0477830283343791,0.1057990789413452,-0.2606367468833923,-0.006709752138704,0.0464832969009876,0.0,0.0,-0.0080562233924865,-0.1928485631942749
-0.0736574158072471,0.0414049476385116,0.1043363213539123,-0.2834602892398834,-0.0040989322587847,0.0522162616252899,0.0,0.0,0.8211126327514648,0.6859855651855469
-0.072550393640995,0.0358699411153793,0.1091694682836532,-0.245996668934822,-0.0025796068366616,0.0303865280002355,0.0,0.0,0.4392333030700683,0.339461088180542
-0.0714013129472732,0.0308503489941358,0.1128232479095459,-0.2230901718139648,-0.0005167274503037,0.041257593780756,0.0,0.0,0.2943207025527954,0.2463202476501464
-0.0702018737792968,0.0258560758084058,0.1172488555312156,-0.2219701558351516,0.0021429758053272,0.0531938076019287,0.0,0.0,0.1650850772857666,-0.0956494808197021
-0.0691030472517013,0.0210021361708641,0.1072777062654495,-0.2157371640205383,0.0047139171510934,0.0514187514781951,0.0,0.0,0.4714446067810058,0.4494276046752929
-0.0681345909833908,0.0163216441869735,0.0944631248712539,-0.2080314308404922,0.0070713949389755,0.0471494495868682,0.0,0.0,0.6665735244750977,0.9603476524353028
-0.067132756114006,0.0119806146249175,0.0994401425123214,-0.1929371356964111,0.0078070978634059,0.0147141618654131,0.0,0.0,0.4195014238357544,0.1658776998519897
-0.0661267265677452,0.007813892327249,0.0994204804301261,-0.1851949244737625,0.0089707663282752,0.0232735127210617,0.0,0.0,0.4080357551574707,0.233879804611206
-0.0650271400809288,0.0035948848817497,0.1079239398241043,-0.1875247806310653,0.0109783541411161,0.0401518084108829,0.0,0.0,0.745642900466919,0.4800480604171753
-0.0638478249311447,-5.216836871113628e-05,0.1150782853364944,-0.1621146649122238,0.0137953916564583,0.056340891867876,0.0,0.0,0.5052571296691895,-0.3704900741577148
-0.0627959221601486,-0.0024261379148811,0.121363379061222,-0.1054685413837432,-0.0022481484338641,-0.3209654986858368,0.0,1.0,-0.2777042388916015,0.0910911560058593
