x_pos,y_pos,x_vel,y_vel,angle,ang_vel,leg_1,leg_2,main_booster,lat_booster
-0.0015583991771563,1.403400421142578,-0.1576131880283355,-0.3342058360576629,0.001590293017216,0.0313569381833076,0.0,0.0,-0.6551357361268293,-0.1273887315357136
-0.0031548500992357,1.395679950714111,-0.1610025316476822,-0.3431336581707001,0.0029297943692654,0.026793310418725,0.0,0.0,-0.3764620187351624,0.1253818160845236
-0.0047921179793775,1.3877350091934204,-0.1648748815059662,-0.3531124293804168,0.0040534101426601,0.0224746130406856,0.0,0.0,-0.8997099313333301,-0.8027088126159951
-0.0065488815307617,1.3795628547668457,-0.178513303399086,-0.3632133603096008,0.0068582771345973,0.0561025738716125,0.0,0.0,0.9674162389933224,0.0018244687032559
-0.0082041742280125,1.372333288192749,-0.1688766181468963,-0.3213332891464233,0.0101733738556504,0.0663080960512161,0.0,0.0,0.2617847334936485,-0.8196897982001251
-0.009858226403594,1.3655016422271729,-0.1703007519245147,-0.3036754429340362,0.0150148691609501,0.0968387350440025,0.0,0.0,0.8193569573929986,-0.5405218508664114
-0.0116432188078761,1.359398365020752,-0.1841619461774826,-0.271321177482605,0.0206154678016901,0.1120222955942154,0.0,0.0,-0.8394001450001121,-0.354640173281647
-0.0134833334013819,1.3530714511871338,-0.1894351541996002,-0.28128382563591,0.0259817019104957,0.1073345392942428,0.0,0.0,0.5412878548330369,-0.3303660451423075
-0.0154127124696969,1.3476910591125488,-0.198066309094429,-0.2392280548810959,0.0310577265918254,0.1015298143029213,0.0,0.0,-0.4660280613611356,-0.0352729919744068
-0.0174023620784282,1.3420865535736084,-0.2038500308990478,-0.2491944730281829,0.0358951687812805,0.0967577919363975,0.0,0.0,0.2159791590537798,-0.0788299625489095
-0.0194069854915142,1.3369176387786863,-0.2054103910923004,-0.2298520356416702,0.0407933145761489,0.0979716032743454,0.0,0.0,0.2080988024322798,-0.983545395284898
-0.0215090755373239,1.3321009874343872,-0.2169024646282196,-0.2142734825611114,0.0474166423082351,0.1324788033962249,0.0,0.0,0.2121433628632916,-0.1283273334992816
-0.0236074440181255,1.327836513519287,-0.2167398929595947,-0.1897714883089065,0.0542487278580665,0.1366539150476455,0.0,0.0,-0.0469437757027861,0.2919961696204207
-0.0257755275815725,1.3233482837677002,-0.2234605103731155,-0.199734017252922,0.060838233679533,0.1318021714687347,0.0,0.0,-0.4039924088475599,0.6378134133819227
-0.0279537197202444,1.3186484575271606,-0.2226447165012359,-0.2090809345245361,0.0656212717294693,0.0956693887710571,0.0,0.0,-0.4511102300024854,-0.327460867859644
-0.0302057266235351,1.3137247562408447,-0.2297748774290084,-0.2190376669168472,0.0701629891991615,0.0908425226807594,0.0,0.0,-0.7037927290824582,0.6013730579743072
-0.032475471496582,1.308590292930603,-0.2298341989517212,-0.2283417135477066,0.0729932487010955,0.0566103868186473,0.0,0.0,-0.6653206275853945,0.2634011195063382
-0.034822653979063,1.3032314777374268,-0.2373404502868652,-0.2382971346378326,0.0755841806530952,0.0518235079944133,0.0,0.0,0.428727184395141,0.6431722250348522
-0.0371593460440635,1.2987090349197388,-0.2349365055561065,-0.2010604292154312,0.0768427401781082,0.025173645466566,0.0,0.0,0.3430393940261069,-0.2595019536945628
-0.0396775230765342,1.2946428060531616,-0.2525453567504883,-0.1807606071233749,0.0775585323572158,0.0143173588439822,0.0,0.0,0.7448708445912113,-0.8311306419600648
-0.0422573089599609,1.291555404663086,-0.260412335395813,-0.1373394429683685,0.0799702331423759,0.0482383891940116,0.0,0.0,-0.5003486406153521,0.6254781006117089
-0.0448707565665245,1.2882463932037354,-0.2622578144073486,-0.1471212655305862,0.08088019490242,0.0182010829448699,0.0,0.0,0.0710261286269648,-0.4884719496943637
-0.0475141517817974,1.2852510213851929,-0.2654248476028442,-0.133185014128685,0.0819528698921203,0.0214555263519287,0.0,0.0,0.7217245042193221,-0.1144107372480607
-0.050198458135128,1.2825267314910889,-0.2696193754673004,-0.1211502626538276,0.0831362009048461,0.0236688088625669,0.0,0.0,0.07231810165505,-0.3806879218429452
-0.0530972480773925,1.2801909446716309,-0.2904223501682281,-0.1038410514593124,0.0836684927344322,0.010646604001522,0.0,0.0,-0.9976944522957596,-0.9057239123277948
-0.0561731345951557,1.277603268623352,-0.3101600706577301,-0.1151560097932815,0.086220808327198,0.0510461702942848,0.0,0.0,-0.8871455698005788,-0.2808132014657136
-0.0593393333256244,1.2747914791107178,-0.318975418806076,-0.1251087039709091,0.0885562300682067,0.0467083491384983,0.0,0.0,0.3747232856606988,-0.9238107099520854
-0.0628551468253135,1.272764801979065,-0.3554716110229492,-0.0903041809797287,0.0924121811985969,0.0771191120147705,0.0,0.0,-0.1107207390200237,0.5001676672400651
-0.0664327591657638,1.2705224752426147,-0.3606513142585754,-0.0998353436589241,0.0952758565545082,0.0572734363377094,0.0,0.0,0.1331065403185083,-0.7372747482351096
-0.0702098831534385,1.2685422897338867,-0.3818484544754028,-0.0882861241698265,0.0993884205818176,0.0822512730956077,0.0,0.0,-0.4248361989610216,-0.5576340732607642
-0.0741240531206131,1.2663378715515137,-0.3964453637599945,-0.0983163565397262,0.1043736934661865,0.0997056812047958,0.0,0.0,-0.899218738079071,0.9910615682601928
-0.0780650153756141,1.2639142274856567,-0.3971844017505646,-0.107930801808834,0.1074421033263206,0.0613682344555854,0.0,0.0,-0.9879507422447203,0.9600262641906738
-0.0820372551679611,1.2612861394882202,-0.3984523415565491,-0.1168969720602035,0.108661264181137,0.0243833623826503,0.0,0.0,-0.9794252514839172,0.95580792427063
-0.0860381126403808,1.2584362030029297,-0.3994115889072418,-0.126619204878807,0.1079904586076736,-0.0134161533787846,0.0,0.0,-0.9711806774139404,0.9666589498519896
-0.0900581330060958,1.2553766965866089,-0.3991534411907196,-0.1357738822698593,0.1051550209522247,-0.0567085035145282,0.0,0.0,-0.9860690832138062,0.8792455196380615
-0.0941052436828613,1.2521110773086548,-0.3998482227325439,-0.1448059529066085,0.1003323048353195,-0.096454381942749,0.0,0.0,-0.9919718503952026,0.8155725002288818
-0.0981889739632606,1.248626947402954,-0.4017690122127533,-0.15442755818367,0.0937830656766891,-0.1309849470853805,0.0,0.0,-0.9942545890808104,0.4052557945251465
-0.1023715957999229,1.2449190616607666,-0.4114814400672912,-0.1643835604190826,0.0870667919516563,-0.1343253701925277,0.0,0.0,-0.953957974910736,0.3804690837860107
-0.1066534966230392,1.240987777709961,-0.4212470650672912,-0.1743398755788803,0.0801894441246986,-0.13754703104496,0.0,0.0,-0.977910041809082,0.5748552083969116
-0.1109877601265907,1.2368395328521729,-0.4251088500022888,-0.1839449256658554,0.0719581022858619,-0.1646267622709274,0.0,0.0,-0.9887789487838744,0.7735142707824707
-0.1153721809387207,1.2324801683425903,-0.4286974370479584,-0.1933114826679229,0.0623092576861381,-0.192977175116539,0.0,0.0,-0.9977837204933168,0.5782492160797119
-0.1198021918535232,1.2279021739959717,-0.4316894114017486,-0.2030430734157562,0.0511316545307636,-0.2235521525144577,0.0,0.0,-0.9510467648506165,0.4885406494140625
-0.1243329048156738,1.2231016159057615,-0.441631019115448,-0.2130066901445388,0.0398187078535556,-0.2262588292360305,0.0,0.0,-0.9282094836235046,0.1737959384918213
-0.1289649009704589,1.218078851699829,-0.451608806848526,-0.2229706943035125,0.0283772982656955,-0.2288284748792648,0.0,0.0,-0.9790695309638976,0.695960521697998
-0.1336466819047927,1.2128281593322754,-0.4551625251770019,-0.2331798374652862,0.0155244041234254,-0.2570578157901764,0.0,0.0,-0.9477030634880066,0.3533641099929809
-0.1384300291538238,1.2073553800582886,-0.4652036726474762,-0.2431472688913345,0.0025571992155164,-0.2593441605567932,0.0,0.0,-0.926209568977356,0.4146859645843506
-0.1433152258396148,1.2016611099243164,-0.4752724766731262,-0.2531150877475738,-0.0105170840397477,-0.2614855766296386,0.0,0.0,-0.8728638291358948,0.3565889596939087
-0.1483022719621658,1.1957451105117798,-0.4853662848472595,-0.2630832195281982,-0.0236910786479711,-0.2634799182415008,0.0,0.0,-0.7818867564201355,-0.2653602361679077
-0.1533914506435394,1.1896073818206787,-0.4954826235771179,-0.2730516791343689,-0.0369573459029197,-0.2653254270553589,0.0,0.0,-0.8571097254753113,0.4723812341690063
-0.1585827767848968,1.1832481622695925,-0.5056189894676208,-0.2830204367637634,-0.0503083802759647,-0.2670204639434814,0.0,0.0,-0.7045837044715881,0.5716383457183838
-0.1638203561305999,1.176663160324097,-0.5087540149688721,-0.2932318747043609,-0.0651450678706169,-0.2967337965965271,0.0,0.0,-0.91974139213562,0.8665120601654053
-0.1690980941057205,1.1698572635650637,-0.5111333131790161,-0.3032857179641723,-0.0816100537776947,-0.3292995691299438,0.0,0.0,-0.9574488997459412,-0.2183753252029419
-0.1744779646396637,1.16283118724823,-0.5213167071342468,-0.3132625520229339,-0.0981368049979209,-0.3305348753929138,0.0,0.0,-0.9624421000480652,-0.0571681261062622
-0.179960161447525,1.1555848121643066,-0.5315111875534058,-0.3232395350933075,-0.1147176548838615,-0.331617146730423,0.0,0.0,-0.8279759883880615,0.6474874019622803
-0.1854810714721679,1.1481050252914429,-0.5337648391723633,-0.333936482667923,-0.1329577267169952,-0.3648013472557068,0.0,0.0,-0.854002058506012,0.3981378078460693
-0.1911041289567947,1.1404058933258057,-0.5439757704734802,-0.3439182937145233,-0.1512365490198135,-0.3655766248703003,0.0,0.0,-0.9527685046195984,0.8610156774520874
-0.1967505514621734,1.132477879524231,-0.5443391799926758,-0.3545450866222381,-0.1715337485074997,-0.4059440493583679,0.0,0.0,-0.8151758909225464,-0.0231503248214721
-0.202498584985733,1.12433123588562,-0.5545588731765747,-0.3645332753658294,-0.1918545365333557,-0.4064157009124756,0.0,0.0,-0.9182792901992798,0.0419683456420898
-0.208348274230957,1.1159660816192627,-0.5647792220115662,-0.3745212852954864,-0.2121915072202682,-0.4067395329475403,0.0,0.0,-0.8656870722770691,-0.1613507270812988
-0.2142993509769439,1.1073825359344482,-0.5749979019165039,-0.3845091760158539,-0.2325373739004135,-0.4069176614284515,0.0,0.0,-0.8174184560775757,0.2235301733016967
-0.2203516066074371,1.0985803604125977,-0.5852126479148865,-0.3944968581199646,-0.2528849840164184,-0.406952440738678,0.0,0.0,-0.5094351768493652,0.4435145854949951
-0.226504847407341,1.089559555053711,-0.5954210758209229,-0.4044842422008514,-0.2732273042201996,-0.4068466126918793,0.0,0.0,-0.3494752645492553,0.2835729122161865
-0.2327588498592376,1.0803200006484983,-0.6056208610534668,-0.4144712388515472,-0.2935574650764465,-0.4066031873226166,0.0,0.0,-0.0292365550994873,-0.4043141603469848
-0.239113375544548,1.0708616971969604,-0.6158093810081482,-0.424457848072052,-0.3138687312602997,-0.4062255322933197,0.0,0.0,0.6603199243545532,0.7046334743499756
-0.2453838288784027,1.06172513961792,-0.6061938405036926,-0.4107349514961242,-0.3355790376663208,-0.4342061579227447,0.0,0.0,0.3642866611480713,-0.3948793411254883
-0.2516898214817047,1.0531123876571655,-0.6094806790351868,-0.3878648579120636,-0.357730358839035,-0.4430264830589294,0.0,0.0,0.025498628616333,-0.5585641860961914
-0.2579347193241119,1.045048713684082,-0.6046942472457886,-0.3634602725505829,-0.3786685764789581,-0.4187641739845276,0.0,0.0,0.4342350959777832,-0.4021817445755005
-0.2641187310218811,1.0370806455612185,-0.5991154909133911,-0.3593951761722564,-0.3992335200309753,-0.4112989902496338,0.0,0.0,0.3980195522308349,-0.0670751929283142
-0.2700996994972229,1.0298783779144287,-0.579116940498352,-0.325574517250061,-0.4196434020996094,-0.4081984460353851,0.0,0.0,0.7832406759262085,-0.4822947382926941
-0.2760635912418365,1.0232189893722534,-0.577203631401062,-0.3018231987953186,-0.4404685795307159,-0.4165027141571045,0.0,0.0,0.8280754089355469,-0.5864234566688538
-0.2819450497627258,1.0174578428268433,-0.5700575113296509,-0.2618664503097534,-0.4602919518947601,-0.3964681327342987,0.0,0.0,0.8289023637771606,0.3698238134384155
-0.2875875532627105,1.0123801231384275,-0.546538233757019,-0.2316602766513824,-0.4798934161663055,-0.3920290768146515,0.0,0.0,0.8218216896057129,-0.4883468747138977
-0.2930231690406799,1.00842022895813,-0.5255041122436523,-0.1824017167091369,-0.5000829696655273,-0.4037905633449554,0.0,0.0,0.893639326095581,-0.2849354743957519
-0.2981639802455902,1.0050511360168457,-0.496631771326065,-0.1562272161245346,-0.5198097229003906,-0.394535481929779,0.0,0.0,0.561522364616394,-0.4301127195358276
-0.3032448887825012,1.001967191696167,-0.4907678663730621,-0.1438130736351013,-0.5396068096160889,-0.3959412276744842,0.0,0.0,0.6376471519470215,-0.517763078212738
-0.3082304894924164,0.9990481734275818,-0.4826142191886902,-0.1362083107233047,-0.5580430030822754,-0.3687250912189483,0.0,0.0,0.7019232511520386,-0.0535222291946411
-0.3131534159183502,0.9963794350624084,-0.4764761924743652,-0.1253136098384857,-0.5765459537506104,-0.3700591027736664,0.0,0.0,0.8506430387496948,-0.2860658168792724
-0.3176940381526947,0.9946151971817015,-0.4384702146053314,-0.0853058621287345,-0.5950055122375488,-0.3691909611225128,0.0,0.0,0.8924264907836914,-0.1682273149490356
-0.3217284083366394,0.9937132596969604,-0.3884672820568084,-0.046956680715084,-0.6129517555236816,-0.3589246869087219,0.0,0.0,0.7902653217315674,-0.4487851858139038
-0.3254454135894775,0.9937819242477416,-0.3565278947353363,-0.0041885967366397,-0.6313689351081848,-0.3683428168296814,0.0,0.0,0.1969735622406005,-0.7773839235305786
-0.3292506337165832,0.994061291217804,-0.3669282793998718,0.005678916350007,-0.6480889916419983,-0.3344008326530456,0.0,0.0,0.6354618072509766,-0.3277391791343689
-0.3326427936553955,0.9950183033943176,-0.3260096609592438,0.0357686169445514,-0.66452956199646,-0.3288117945194244,0.0,0.0,0.6347036361694336,-0.6034061312675476
-0.3358957767486572,0.9965688586235046,-0.3131962716579437,0.062497355043888,-0.6797952055931091,-0.3053131699562073,0.0,0.0,0.3707610368728637,-0.4401507377624511
-0.3389198780059814,0.9985960125923156,-0.2903580963611603,0.0835069417953491,-0.6951746344566345,-0.3075883388519287,0.0,0.0,-0.1319730281829834,-0.667837381362915
-0.342070996761322,1.0004534721374512,-0.304448664188385,0.076555423438549,-0.708949625492096,-0.2754990756511688,0.0,0.0,-0.1501276493072509,-0.5865370631217957
-0.3453384935855865,1.0021257400512695,-0.3171319365501404,0.0687661990523338,-0.7215181589126587,-0.251370370388031,0.0,0.0,0.2643775939941406,-0.6389833688735962
-0.3485435843467712,1.0038940906524658,-0.3121512830257416,0.073639340698719,-0.7325560450553894,-0.2207574397325515,0.0,0.0,-0.1080082654953002,-0.2211448550224304
-0.3518331944942474,1.0054386854171753,-0.3207542300224304,0.0636833161115646,-0.7434981465339661,-0.2188417017459869,0.0,0.0,0.3431555032730102,-0.4370521306991577
-0.3548033833503723,1.0071507692337036,-0.2893779873847961,0.0713647976517677,-0.753792405128479,-0.205885574221611,0.0,0.0,-0.0589221715927124,-0.4719067215919494
-0.3578547835350036,1.0086390972137451,-0.2976420223712921,0.0614098757505416,-0.7639936208724976,-0.2040240317583084,0.0,0.0,0.1186667680740356,-0.5453101992607117
-0.3606651723384857,1.010504961013794,-0.2745648324489593,0.0787669792771339,-0.7728811502456665,-0.1777511984109878,0.0,0.0,0.2813508510589599,-0.4675883054733276
-0.3631251752376556,1.0127536058425903,-0.2397179901599884,0.0958262979984283,-0.7815691232681274,-0.1737589091062545,0.0,0.0,0.2244735956192016,0.2156957387924194
-0.3652467131614685,1.0152069330215454,-0.2062947750091552,0.1051360666751861,-0.7897443771362305,-0.1635049879550933,0.0,0.0,-0.4666181206703186,0.5006247758865356
-0.3674121499061584,1.0173847675323486,-0.2098535746335983,0.0922609195113182,-0.7991639971733093,-0.1883921921253204,0.0,0.0,-0.2125588059425354,0.2331968545913696
-0.3696479797363281,1.019338846206665,-0.2170113623142242,0.0823066756129264,-0.8085048198699951,-0.1868161261081695,0.0,0.0,-0.332104742527008,0.219135046005249
-0.3719515204429626,1.0210689306259155,-0.2238965481519699,0.0723523721098899,-0.8177710771560669,-0.1853247880935669,0.0,0.0,-0.1730431318283081,0.2630729675292969
-0.3743198812007904,1.0225751399993896,-0.2304901778697967,0.0623979456722736,-0.8269674777984619,-0.183927372097969,0.0,0.0,0.240149974822998,-0.4612434506416321
-0.3763737082481384,1.0245671272277832,-0.1988575756549835,0.083765223622322,-0.8365312218666077,-0.1912744045257568,0.0,0.0,-0.5848122835159302,-0.1293784379959106
-0.3784860670566559,1.0263352394104004,-0.2048095762729644,0.0738099813461303,-0.8460358381271362,-0.1900926083326339,0.0,0.0,-0.4958417415618896,-0.2986665964126587
-0.3806533813476562,1.0278797149658203,-0.2104099094867706,0.0638545081019401,-0.8554874658584595,-0.1890325844287872,0.0,0.0,-0.1766209006309509,-0.1696815490722656
-0.3828719556331634,1.0292006731033323,-0.2156379967927932,0.0538987591862678,-0.8648926615715027,-0.1881034076213836,0.0,0.0,-0.3205125331878662,-0.6776847839355469
-0.3851742148399353,1.0303581953048706,-0.2251507043838501,0.0474460609257221,-0.8726441264152527,-0.1550289839506149,0.0,0.0,-0.0118405222892761,-0.6446800231933594
-0.3875575661659241,1.0313599109649658,-0.2344686239957809,0.0414273031055927,-0.8785944581031799,-0.1190065369009971,0.0,0.0,0.0822831392288208,-0.766202986240387
-0.3898267149925232,1.032663106918335,-0.2242170572280883,0.0557437762618064,-0.8827765583992004,-0.0836423709988594,0.0,0.0,0.4956248998641968,-0.0573475956916809
-0.3915675282478332,1.0342507362365725,-0.1716884225606918,0.0686218962073326,-0.8864992260932922,-0.0744528025388717,0.0,0.0,-0.4377124309539795,-0.1664973497390747
-0.3933387696743011,1.0356146097183228,-0.1747497022151947,0.0586678981781005,-0.8902144432067871,-0.0743045285344123,0.0,0.0,-0.2124035358428955,0.5331590175628662
-0.3951016068458557,1.036698341369629,-0.172960489988327,0.0454120077192783,-0.8954498767852783,-0.1047088876366615,0.0,0.0,0.271399974822998,0.0934163331985473
-0.3964300155639648,1.0381392240524292,-0.1294747442007064,0.06121776252985,-0.9007778763771056,-0.1065599471330642,0.0,0.0,-0.3579063415527344,-0.1812202930450439
-0.3977739214897156,1.0393564701080322,-0.1310382336378097,0.0512611530721187,-0.9061267971992492,-0.1069784983992576,0.0,0.0,-0.346384048461914,-0.1309231519699096
-0.399128258228302,1.040350317955017,-0.1320784389972686,0.0413038730621337,-0.9115068316459656,-0.1076010689139366,0.0,0.0,-0.1255792379379272,0.3314816951751709
-0.4004876613616943,1.0411207675933838,-0.1325875520706176,0.0313458703458309,-0.91692852973938,-0.1084343418478965,0.0,0.0,-0.3936280012130737,-0.2742872834205627
-0.4018468856811523,1.0416682958602903,-0.1325604766607284,0.0213871244341135,-0.9224027395248412,-0.1094845756888389,0.0,0.0,-0.131732702255249,-0.7316519021987915
-0.4032317698001861,1.042048096656799,-0.1360047757625579,0.0146872457116842,-0.9264748692512512,-0.0814431831240654,0.0,0.0,-0.06617933511734,0.1035176515579223
-0.4046059250831604,1.042204976081848,-0.1348998844623565,0.0047276304103434,-0.930622100830078,-0.082944206893444,0.0,0.0,-0.0579926967620849,-0.3040463924407959
-0.4059640765190124,1.042138934135437,-0.1332605481147766,-0.0052328095771372,-0.9348559975624084,-0.0846780762076377,0.0,0.0,0.1410626173019409,-0.2671792507171631
-0.4069966375827789,1.0422148704528809,-0.1006112247705459,0.0009818327380344,-0.939257264137268,-0.0880251973867416,0.0,0.0,0.2432405948638916,-0.1815221905708313
-0.4076672494411468,1.0424001216888428,-0.0644246712327003,0.0058164265938103,-0.9436787366867064,-0.0884299054741859,0.0,0.0,-0.6393614411354065,-0.4585937857627868
-0.4083065092563629,1.0423628091812134,-0.0612303130328655,-0.0041466201655566,-0.9482229948043824,-0.0908851698040962,0.0,0.0,-0.5132626295089722,-0.5480617880821228
-0.4089285433292389,1.042147159576416,-0.0600816719233989,-0.0115659339353442,-0.9518252015113832,-0.0720442533493042,0.0,0.0,-0.3378381133079529,0.0341942310333251
-0.4095096588134765,1.0417091846466064,-0.0559145137667655,-0.0215303879231214,-0.9555749297142028,-0.0749944001436233,0.0,0.0,-0.1965464353561401,-0.8508497476577759
