x_pos,y_pos,x_vel,y_vel,angle,ang_vel,leg_1,leg_2,main_booster,lat_booster
-0.0015852928627282,1.4031591415405271,-0.1604845970869064,-0.3449350595474243,0.0017513625789433,0.0345464088022708,0.0,0.0,0.3443561499038834,0.9729381345279614
-0.0031076432205736,1.3955144882202148,-0.1519983857870102,-0.3397625982761383,0.0015161886112764,-0.0047031762078404,0.0,0.0,0.044783142952707,-0.7837128500063214
-0.0046548843383789,1.3877813816070557,-0.156071588397026,-0.3436942100524902,0.0028431410901248,0.0265418104827404,0.0,0.0,0.5347753595889781,0.893965845043571
-0.0063182832673192,1.3802759647369385,-0.1656659692525863,,0.0021731699816882,-0.0134006487205624,0.0,0.0,-0.4370412192941522,0.9337559070582844
-0.0079524042084813,1.3723082542419434,-0.1604367792606353,-0.3541192710399627,-0.0007763860048726,-0.0589966587722301,0.0,0.0,-0.960324771516331,0.9025445128390416
-0.0095586776733398,1.363874077796936,-0.1553935706615448,-0.3748664557933807,-0.0059498962946236,-0.1034794449806213,0.0,0.0,-0.557992034752981,0.6125650137233801
-0.0111769679933786,1.3549745082855225,-0.1553939282894134,-0.3955759406089782,-0.0123153841122984,-0.1273214817047119,0.0,0.0,0.3332196425135321,-0.8435056569366091
-0.0127758979797363,1.3463940620422363,-0.1552911698818206,-0.3813941776752472,-0.0168675109744071,-0.0910509377717971,0.0,0.0,0.6272518149748783,-0.943098353062139
-0.0145054813474416,1.3385969400405884,-0.1702074557542801,-0.3465717136859894,-0.0195828583091497,-0.0543119199573993,0.0,0.0,0.4839021451202969,-0.8388757992868322
-0.0163452140986919,1.3313199281692505,-0.1828996837139129,-0.3234357237815857,-0.0206416007131338,-0.0211768187582492,0.0,0.0,-0.5416557334384375,0.6200928724194676
-0.0181843750178813,1.3235763311386108,-0.1814237982034683,-0.3442006707191467,-0.0231021251529455,-0.0492149889469146,0.0,0.0,0.1682454144487575,0.987472197097402
-0.0199320800602436,1.3159209489822388,-0.170325368642807,-0.3403184115886688,-0.0275013595819473,-0.0879930704832077,0.0,0.0,0.3696609845935041,-0.7157161481375824
-0.0216530803591012,1.3086705207824707,-0.1693077087402343,-0.3222887814044952,-0.0302580818533897,-0.0551390647888183,0.0,0.0,0.7642638365811458,-0.8212523174716568
-0.0233982093632221,1.301514983177185,-0.1735595315694809,-0.3180437088012695,-0.0312005542218685,-0.0188512168824672,0.0,0.0,0.227570379911157,0.7467866606172568
-0.0249972343444824,1.2948118448257446,-0.1576313972473144,-0.2979673743247986,-0.0334437862038612,-0.0448689386248588,0.0,0.0,0.0786973225464502,-0.7310393356874106
-0.02661476098001,1.2879244089126587,-0.1610618084669113,-0.3061272501945495,-0.0341226644814014,-0.0135791627690196,0.0,0.0,0.7815707828137874,-0.927484163065059
-0.0281560905277729,1.2819602489471436,-0.1556387245655059,-0.2650297582149505,-0.0326352715492248,0.0297505799680948,0.0,0.0,0.8342807310681228,-0.6153038674069877
-0.029609203338623,0.0,-0.1485524028539657,-0.2584652006626129,-0.0294201280921697,0.0643086954951286,0.0,0.0,-0.1741125755295383,0.8922149094532725
-0.0310245510190725,1.269865870475769,-0.142775684595108,-0.2789773344993591,-0.0282005611807107,0.0243934262543916,0.0,0.0,0.7313731275099458,-0.7132957835833366
-0.0326140411198139,1.264018416404724,-0.161477118730545,-0.2598470747470855,-0.0257000941783189,0.0500137917697429,0.0,0.0,-0.0642884410826785,-0.7254185250931473
-0.0342890731990337,1.2577122449874878,-0.1712555587291717,-0.280206948518753,-0.0219896622002124,0.0742154046893119,0.0,0.0,-0.5410144154939018,-0.8031881434138559
-0.0360647216439247,1.2509386539459229,-0.1829830110073089,-0.3009771108627319,-0.0166351478546857,0.1070998758077621,0.0,0.0,0.930026396711833,-0.899005357000264
-0.0377700813114643,1.2446506023406982,-0.1781628429889679,-0.2794044613838196,-0.0090893032029271,0.1509301960468292,0.0,0.0,0.7178015177413437,-0.8558364335019956
-0.0394933708012104,1.238374948501587,-0.1819165647029876,-0.2788837254047394,0.0003860779688693,0.1895247548818588,0.0,0.0,0.6608043314566252,-0.7095210176608151
-0.0414603240787982,1.232607364654541,-0.2074633836746215,-0.2563636004924774,0.0110364668071269,0.2130266726016998,0.0,0.0,-0.9648219655600814,-0.9760668101616938
-0.0435513481497764,1.2263587713241575,-0.222432404756546,-0.277872622013092,0.0241964627057313,0.2631996273994446,0.0,0.0,-0.809479555709534,-0.7001168148020971
-0.0457228645682334,1.2196495532989502,-0.2319774329662323,-0.2984876334667206,0.0388421602547168,0.2929138839244842,0.0,0.0,0.6862680706013811,0.7636831679126956
-0.0480355247855186,1.2137430906295776,-0.2443734407424926,-0.262898325920105,0.0517855808138847,0.258868396282196,0.0,0.0,-0.5281745461625955,-0.822850827219384
-0.0504468902945518,1.2073745727539062,-0.2563541233539581,-0.2836373150348663,0.0668280199170112,0.3008487820625305,0.0,0.0,-0.5241348893133067,0.9993173661535356
-0.052798081189394,1.2005473375320437,-0.248492807149887,-0.3040804266929626,0.0800614058971405,0.264667809009552,0.0,0.0,0.1983821364525646,-0.8212207738786044
-0.0552609451115131,1.1941790580749512,-0.2614211440086365,-0.283911257982254,0.0950518697500228,0.2998092770576477,0.0,0.0,0.2236157117210313,0.7669333925699715
-0.0577687248587608,1.1878279447555542,-0.2643846869468689,-0.2831994593143463,0.1085595563054084,0.2701541781425476,0.0,0.0,0.3217372126602722,-0.6232888012477539
-0.0604737289249897,1.18195641040802,-0.2853342592716217,-0.2621006667613983,0.1232877895236015,0.2945644557476043,0.0,0.0,-0.0946388985363977,-0.7785771489941913
-0.0632485374808311,1.1756035089492798,-0.2941209375858307,-0.2838159799575805,0.1398536115884781,0.3313164114952087,0.0,0.0,0.1617622906521305,0.7660308423068801
-0.0660112351179122,1.1694607734680176,-0.2914761900901794,-0.2745086550712585,0.1550150066614151,0.3032285869121551,0.0,0.0,-0.0549602372832289,-0.9965218054714284
-0.0688461288809776,1.1628460884094238,-0.3006970584392547,-0.295872151851654,0.1722225993871688,0.3441522717475891,0.0,0.0,-0.6855074568717805,0.9203022329506444
-0.0716044455766677,1.1557830572128296,-0.2913456559181213,-0.3157889246940613,0.1877856999635696,0.3112621903419494,0.0,0.0,-0.5704666903607667,0.8753166901197573
-0.0742804557085037,1.148284912109375,-0.2813214957714081,-0.335049033164978,0.2015932202339172,0.2761508524417877,0.0,0.0,-0.7613119984103658,-0.7572921881265666
-0.0770055800676345,1.1403136253356934,-0.2879220247268677,-0.3564529120922088,0.2171326875686645,0.3107889890670776,0.0,0.0,-0.739574215361654,-0.7407075483943006
-0.0797678977251052,1.131863713264465,-0.2930915057659149,-0.378123939037323,0.234208732843399,0.3415209949016571,0.0,0.0,0.1694447654806843,-0.824659317741159
-0.0827867537736892,1.123710870742798,-0.3203631341457367,-0.3653992712497711,0.2530035078525543,0.3758953809738159,0.0,0.0,-0.8087713718414307,0.9743649959564208
-0.0856919288635253,1.1151297092437744,-0.3067135214805603,-0.3842620551586151,0.2695422172546386,0.3307748734951019,0.0,0.0,-0.9076107740402222,0.9306442737579346
-0.0884865745902061,1.1061108112335205,-0.2935677170753479,-0.4035046696662903,0.2840161919593811,0.2894795536994934,0.0,0.0,-0.9015994071960448,0.9667105674743652
-0.091166116297245,1.096664547920227,-0.2798956036567688,-0.4222017228603363,0.2963211238384247,0.246098518371582,0.0,0.0,-0.8864445090293884,0.9933032989501952
-0.0937411338090896,1.0867758989334106,-0.2677031457424164,-0.4416091740131378,0.3068689703941345,0.2109570950269699,0.0,0.0,-0.8948422074317932,0.9728703498840332
-0.0962003692984581,1.0764514207839966,-0.254170686006546,-0.4606293737888336,0.3154087662696838,0.1707961410284042,0.0,0.0,-0.8061102628707886,0.9432286024093628
-0.0985434502363205,1.0656960010528564,-0.2405969798564911,-0.479404866695404,0.3219494521617889,0.1308136135339737,0.0,0.0,-0.6526408791542053,0.9489576816558838
-0.10079126060009,1.0545144081115725,-0.2296550273895263,-0.4980464279651642,0.3270166218280792,0.1013439148664474,0.0,0.0,-0.9573901295661926,0.9917070865631104
-0.1029416099190712,1.0429058074951172,-0.218474194407463,-0.5167204141616821,0.3306072652339935,0.071812704205513,0.0,0.0,-0.9186227917671204,0.9483554363250732
-0.104979321360588,1.0308650732040403,-0.2055274695158004,-0.5355548858642578,0.3324428796768188,0.0367121547460556,0.0,0.0,-0.9602404236793518,0.9874532222747804
-0.106880284845829,1.0184061527252195,-0.189566284418106,-0.5536090135574341,0.331890732049942,-0.0110431695356965,0.0,0.0,-0.9702290296554564,0.9973732233047484
-0.1086681336164474,1.0055232048034668,-0.1765941381454467,-0.5720683336257935,0.3295983076095581,-0.0458476245403289,0.0,0.0,-0.9935718774795532,0.9789199829101562
-0.1103196144104003,0.9922147989273072,-0.1608030200004577,-0.5905043482780457,0.3250590860843658,-0.0907845348119735,0.0,0.0,-0.9972748160362244,0.9948368072509766
-0.1118483543395996,0.978488028049469,-0.1466334760189056,-0.6086891293525696,0.3185777366161346,-0.1296273171901703,0.0,0.0,-0.993312120437622,0.9940133094787598
-0.1132316589355468,0.964339554309845,-0.1297733634710312,-0.6269638538360596,0.3096806406974792,-0.1779417395591735,0.0,0.0,-0.9939576387405396,0.9965740442276
-0.1144985184073448,0.9497532248497008,-0.1165421828627586,-0.6461514234542847,0.2991895079612732,-0.2098228484392166,0.0,0.0,-0.9947612285614014,0.998631238937378
-0.1156264320015907,0.9347525835037231,-0.1004380136728286,-0.664201557636261,0.2864494621753692,-0.2548014223575592,0.0,0.0,-0.99301677942276,0.998189091682434
-0.1166075691580772,0.9193345308303832,-0.0833924859762191,-0.6824309825897217,0.2713227272033691,-0.3025344014167785,0.0,0.0,-0.9617068767547609,0.6364136934280396
-0.1174800843000412,0.9034835696220398,-0.0711355954408645,-0.7015841603279114,0.2548486292362213,-0.3294820189476013,0.0,0.0,-0.9602704644203186,-0.1769121885299682
-0.1182960495352745,0.8871710300445557,-0.065520629286766,-0.7222913503646851,0.2384825646877288,-0.3273212909698486,0.0,0.0,-0.94869065284729,-0.382714033126831
-0.1190546005964279,0.8703970313072205,-0.0598258972167968,-0.7429983019828796,0.2222241312265396,-0.3251691460609436,0.0,0.0,-0.8395256400108337,0.2324773073196411
-0.1197550743818283,0.8531613349914551,-0.0540582463145256,-0.7637048959732056,0.2060728818178177,-0.3230250477790832,0.0,0.0,-0.8819498419761658,-0.441452145576477
-0.1203967109322547,0.8354640603065491,-0.0482239499688148,-0.7844110727310181,0.1900284588336944,-0.3208886384963989,0.0,0.0,-0.4483637809753418,-0.2675758600234985
-0.1209787353873252,0.8173048496246338,-0.0423287786543369,-0.8051168918609619,0.17409048974514,-0.3187593519687652,0.0,0.0,-0.3225951790809631,-0.9337703585624696
-0.1215714439749717,0.7986578345298767,-0.045313574373722,-0.8271820545196533,0.1601101458072662,-0.2796066105365753,0.0,0.0,0.1024311780929565,-0.9637427926063538
-0.1223385781049728,0.7800906896591187,-0.0647686123847961,-0.823966383934021,0.1481790095567703,-0.238622099161148,0.0,0.0,0.3781434297561645,-0.7150881886482239
-0.123186782002449,0.7621192932128906,-0.0744263976812362,-0.7977314591407776,0.1378108263015747,-0.2073637694120407,0.0,0.0,0.5437166690826416,0.8143081665039062
-0.1238614097237587,0.7441115975379944,-0.0556598976254463,-0.7992975115776062,0.1260580271482467,-0.2350557297468185,0.0,0.0,0.5260101556777954,0.4911866188049316
-0.1245482414960861,0.7268185615539551,-0.0570829100906848,-0.7676432132720947,0.1145255863666534,-0.2306490689516067,0.0,0.0,0.0922720432281494,-0.2965943813323974
-0.1252700835466385,0.7095178365707397,-0.0603871345520019,-0.7680634260177612,0.1028099879622459,-0.2343121021986007,0.0,0.0,-0.8126840591430664,0.0623345375061035
-0.1259290724992752,0.6917535662651062,-0.0541924722492694,-0.7887586355209351,0.0911987870931625,-0.2322239577770233,0.0,0.0,0.2391308546066284,-0.7960218191146851
-0.1266039907932281,0.67421954870224,-0.0575063824653625,-0.7787202596664429,0.0813033059239387,-0.1979099065065384,0.0,0.0,0.3133354187011719,-0.2891451120376587
-0.1273719817399978,0.6572127342224121,-0.0664343982934951,-0.7553319334983826,0.0710380598902702,-0.2053049802780151,0.0,0.0,-0.855475664138794,-0.3106918334960937
-0.1280762702226638,0.6397418975830078,-0.0601595938205719,-0.7760244011878967,0.0608765259385108,-0.2032305002212524,0.0,0.0,-0.6228665113449097,-0.1968801021575927
-0.1287166625261306,0.6218072772026062,-0.0538626424968242,-0.7967166304588318,0.0508185140788555,-0.2011602818965912,0.0,0.0,0.9080772399902344,-0.2303610444068908
-0.1292334496974945,0.6039769649505615,-0.0419753827154636,-0.7921590209007263,0.0412270426750183,-0.1918293535709381,0.0,0.0,0.6249513626098633,-0.2389805316925048
-0.1297307014465332,0.5861809253692627,-0.0399747826159,-0.7906941175460815,0.031594879925251,-0.1926432251930236,0.0,0.0,0.763225793838501,0.6745433807373047
-0.1301465928554535,0.5691983103752136,-0.0305558536201715,-0.7545859813690186,0.0207004472613334,-0.2178886830806732,0.0,0.0,0.3406920433044433,-0.7483372688293457
-0.1304980218410492,0.5527524352073669,-0.0258192010223865,-0.730827271938324,0.0114989411085844,-0.184030219912529,0.0,0.0,0.8981055021286011,-0.0404066443443298
-0.1309242248535156,0.5372485518455505,-0.0328031592071056,-0.6890146136283875,0.0018034854438155,-0.1939091980457306,0.0,0.0,-0.8387259840965271,0.48199462890625
-0.131285473704338,0.5212804675102234,-0.0264108143746852,-0.709705650806427,-0.0077897789888083,-0.1918651461601257,0.0,0.0,-0.3365886807441711,0.0829354524612426
-0.1315817832946777,0.5048482418060303,-0.0200076512992382,-0.7303963303565979,-0.0172810647636652,-0.1898258626461029,0.0,0.0,0.898491621017456,-0.435200035572052
-0.1319177597761154,0.4889467656612396,-0.0235463194549083,-0.7068772912025452,-0.0272092316299676,-0.1985631585121154,0.0,0.0,0.7090352773666382,-0.5879930257797241
-0.1322768181562423,0.4736392796039581,-0.0269811656326055,-0.6805181503295898,-0.03602210059762,-0.1762572675943374,0.0,0.0,0.1014213562011718,-0.789990246295929
-0.1326252967119217,0.4585739970207214,-0.0276165902614593,-0.6697597503662109,-0.0431675314903259,-0.1429085284471511,0.0,0.0,0.7098574638366699,-0.2109764814376831
-0.1327921897172927,0.4439404308795929,-0.0099871158599853,-0.6505897045135498,-0.0497947111725807,-0.1325435936450958,0.0,0.0,0.9205467700958252,-0.5802346467971802
-0.1328907012939453,0.4294335544109344,-0.004487985279411,-0.6449385285377502,-0.0550858192145824,-0.1058222874999046,0.0,0.0,0.2408177852630615,0.4302901029586792
-0.1328373849391937,0.4149086475372314,0.0102543393149971,-0.6457377672195435,-0.0599545016884803,-0.0973737984895706,0.0,0.0,0.8794107437133789,-0.7298603653907776
-0.1325561553239822,0.4008798897266388,0.0310546942055225,-0.6236205697059631,-0.062851533293724,-0.0579407326877117,0.0,0.0,0.9524590969085692,-0.6956711411476135
-0.1320581436157226,0.3870666027069092,0.0507872775197029,-0.6139649152755737,-0.0638241618871688,-0.0194525606930255,0.0,0.0,0.9775073528289796,0.0818874835968017
-0.131443977355957,0.3741345405578613,0.0623350739479064,-0.5747941732406616,-0.064729169011116,-0.0181002803146839,0.0,0.0,0.960308313369751,0.2280570268630981
-0.1306694000959396,0.3620807826519012,0.0781081169843673,-0.5357505083084106,-0.0653658732771873,-0.0127341505140066,0.0,0.0,0.57686448097229,-0.859340250492096
-0.1297226846218109,0.350511372089386,0.0932914242148399,-0.5141342282295227,-0.063997097313404,0.0273752566426992,0.0,0.0,0.6842820644378662,0.1066638231277465
-0.1285864859819412,0.3389648497104645,0.1116572394967079,-0.5130943059921265,-0.0620553158223629,0.0388354733586311,0.0,0.0,-0.0386164784431457,0.0862150192260742
-0.127384752035141,0.3269529938697815,0.1181128025054931,-0.533777117729187,-0.0600166618824005,0.0407731384038925,0.0,0.0,0.5204918384552002,-0.6675893664360046
-0.1260370314121246,0.3156697750091553,0.1310877054929733,-0.5013347268104553,-0.056377824395895,0.0727768689393997,0.0,0.0,-0.0927808880805969,0.1195292472839355
-0.1246238723397255,0.3039212524890899,0.137538805603981,-0.5220184326171875,-0.0526434406638145,0.074687585234642,0.0,0.0,0.3511983156204223,-0.6390290856361389
-0.1232732757925987,0.2927008271217346,0.1300997883081436,-0.4985207617282867,-0.0477495118975639,0.0978785306215286,0.0,0.0,-0.2506564855575561,0.5971857309341431
-0.1218032836914062,0.2810142636299133,0.1433322876691818,-0.5192877054214478,-0.0441211573779583,0.0725670754909515,0.0,0.0,0.4968006610870361,-0.2759606838226318
-0.1202863678336143,0.2698843777179718,0.1481525897979736,-0.4945643842220306,-0.0406240820884704,0.0699415653944015,0.0,0.0,0.358931303024292,-0.1035824418067932
-0.1187472343444824,0.2592164278030395,0.1506078839302063,-0.4740460216999054,-0.0373496189713478,0.0654892772436142,0.0,0.0,-0.0651649236679077,-0.2392537593841552
-0.1171427741646766,0.2480831742286682,0.1570334732532501,-0.4947296977043152,-0.0339840576052665,0.0673111528158187,0.0,0.0,0.1245006322860717,-0.4351564645767212
-0.1155386939644813,0.2371023446321487,0.1572792828083038,-0.487968772649765,-0.0308957751840353,0.0617654435336589,0.0,0.0,0.440950870513916,-0.5600205063819885
-0.1140421852469444,0.2263485491275787,0.1456478387117386,-0.4778687059879303,-0.0269336700439453,0.0792419910430908,0.0,0.0,0.4644837379455566,0.1035234928131103
-0.1123697310686111,0.2160809785127639,0.162710502743721,-0.4562626779079437,-0.0224498398602008,0.0896766632795333,0.0,0.0,-0.0052909851074218,-0.3463151454925537
-0.1106324195861816,0.2053482085466385,0.1690982580184936,-0.4769472181797027,-0.0178799498826265,0.0913976952433586,0.0,0.0,0.5192373991012573,0.1586884260177612
-0.1086846366524696,0.1951990276575088,0.1894418150186538,-0.451020747423172,-0.0126085812225937,0.1054270714521408,0.0,0.0,0.3289821147918701,-0.8419070839881897
-0.1067520156502723,0.1855299770832061,0.1861682683229446,-0.4296947419643402,-0.0056013721041381,0.1401442885398864,0.0,0.0,-0.2773846387863159,-0.8362718224525452
-0.1048054695129394,0.1754063963890075,0.1861829310655594,-0.4499268233776092,0.0027560084126889,0.1671478450298309,0.0,0.0,0.6415541172027588,0.0877387523651123
-0.1027206405997276,0.165682703256607,0.1995818465948104,-0.4322092235088348,0.0115431947633624,0.1757438480854034,0.0,0.0,0.4086940288543701,-0.7964645624160767
-0.1006499305367469,0.1565456688404083,0.1964986622333526,-0.4062023460865021,0.0219814982265234,0.2087658643722534,0.0,0.0,-0.1402397751808166,-0.7629155516624451
-0.0985699668526649,0.1469498723745346,0.1959715187549591,-0.4266961514949798,0.0338585413992404,0.2375408709049224,0.0,0.0,0.6861066818237305,-0.5907303094863892
-0.0964006409049034,0.137591540813446,0.2034228295087814,-0.4162837266921997,0.0472066067159175,0.2669610679149627,0.0,0.0,0.6068837642669678,0.1870739459991455
-0.0943153351545333,0.1286628544330597,0.1955091655254364,-0.3972917795181274,0.0600743703544139,0.2573556303977966,0.0,0.0,0.7046535015106201,0.5531413555145264
-0.0922968834638595,0.1200557574629783,0.1902641206979751,-0.3830412328243255,0.0715308040380477,0.2291290014982223,0.0,0.0,0.4778885841369629,0.9457460641860962
-0.090199090540409,0.1117444857954979,0.2000605314970016,-0.36988365650177,0.0811468213796615,0.1923205554485321,0.0,0.0,0.6170117855072021,0.9035913944244384
-0.0879817008972168,0.1037600114941597,0.2137472331523895,-0.3553192913532257,0.0890647023916244,0.1583576649427414,0.0,0.0,0.4263948202133178,-0.742313027381897
-0.0856632217764854,0.0957772582769393,0.2221123874187469,-0.3553975820541382,0.0987229272723198,0.1931644678115844,0.0,0.0,0.9061949253082277,-0.0571719408035278
-0.0832490921020507,0.0885247811675071,0.2311011254787445,-0.3230455219745636,0.1089560762047767,0.2046629637479782,0.0,0.0,0.8343691825866699,-0.1994180083274841
-0.0808437317609787,0.0821484178304672,0.2300581634044647,-0.2841919660568237,0.1193690598011016,0.2082597315311432,0.0,0.0,0.2193876504898071,-0.0356310606002807
-0.0783585533499717,0.0756595432758331,0.2377783507108688,-0.2892877459526062,0.1300467401742935,0.2135536670684814,0.0,0.0,0.4979835748672485,-0.5551444888114929
