x_pos,y_pos,x_vel,y_vel,angle,ang_vel,leg_1,leg_2,main_booster,lat_booster
-0.0015226363902911,1.4029414653778076,-0.1544166952371597,-0.3546042442321777,0.0019330901559442,0.0381445176899433,0.0,0.0,0.1407619316257558,0.9944236327411
-0.0029258728027343,1.394776463508606,-0.1404206454753875,-0.3628939390182495,0.0020195208489894,0.0017295979196205,0.0,0.0,-0.1459410850057769,-0.9549126136038684
-0.0043900487944483,1.385920524597168,-0.1481664925813675,-0.3935933411121368,0.0037448215298354,0.034509353339672,0.0,0.0,-0.4326368022931024,0.9841209946801928
-0.0057964324951171,1.3763790130615234,-0.1409686654806137,-0.4240719377994537,0.0040771984495222,0.0066480981186032,0.0,0.0,0.7888593738257768,0.7913704897918916
-0.006996345706284,1.3672173023223877,-0.1192550808191299,-0.4071824848651886,0.0033530404325574,-0.0144845191389322,0.0,0.0,-0.8553643342878212,-0.5173517817902602
-0.0082351686432957,1.3573715686798096,-0.124133363366127,-0.4375872015953064,0.0035973384510725,0.0048865685239434,0.0,0.0,0.3588641680040467,-0.9330445933817376
-0.0095796585083007,1.347555160522461,-0.1367289721965789,-0.4362992644309997,0.005848572589457,0.0450290739536285,0.0,0.0,-0.5842122987949336,0.7736692737531977
-0.0108590126037597,1.3370583057403564,-0.1284648180007934,-0.4665218293666839,0.0063706203363835,0.010441911406815,0.0,0.0,0.6222760965787093,0.9879677866552838
-0.0120916366577148,1.3271225690841677,-0.121970809996128,-0.4415809512138366,0.0051050493493676,-0.0253140088170766,0.0,0.0,-0.7099047257027511,-0.7436651292709886
-0.0133964540436863,1.3165078163146973,-0.1308902502059936,-0.4717637896537781,0.0055033438839018,0.0079667577520012,0.0,0.0,0.0953043865483473,-0.6386865429788251
-0.0147046092897653,1.3058022260665894,-0.1327839195728302,-0.4758186638355255,0.0074467696249485,0.0388721898198127,0.0,0.0,0.0523810602073928,0.9939690982299576
-0.0158991813659667,1.2949175834655762,-0.1196112036705017,-0.483761191368103,0.0075946664437651,0.0029586444143205,0.0,0.0,-0.1684973037961603,-0.9524378081043644
-0.0171704292297363,1.2833541631698608,-0.1289715319871902,-0.513937771320343,0.0094189867377281,0.0364895425736904,0.0,0.0,-0.5591417663609313,0.726377452437152
-0.0183968544006347,1.2711021900177002,-0.1230603083968162,-0.5445406436920166,0.0098341237753629,0.0083035100251436,0.0,0.0,0.8573254133874153,-0.5639040197895833
-0.0195280071347951,1.259564757347107,-0.1153588742017746,-0.5127818584442139,0.0120531190186738,0.0443841591477394,0.0,0.0,0.2254407164066818,-0.6299467799974354
-0.0206423755735158,1.2476686239242554,-0.1153083220124244,-0.5287569761276245,0.0158769767731428,0.0764839500188827,0.0,0.0,-0.1392157215757374,0.5292010705531455
-0.0217279437929391,1.235097050666809,-0.1113192066550254,-0.5587679743766785,0.0186122469604015,0.0547104477882385,0.0,0.0,0.5228187694128621,0.964025273059568
-0.0226177219301462,1.2223587036132812,-0.0901790857315063,-0.5661649703979492,0.0198028292506933,0.0238139927387237,0.0,0.0,0.681985999208599,-0.8706347108305905
-0.023506736382842,1.2101725339889526,-0.0922490209341049,-0.5416573286056519,0.0231119617819786,0.0661885142326355,0.0,0.0,-0.0717169735948182,-0.9747785585604782
-0.0245082862675189,1.1973000764846802,-0.105922020971775,-0.5722105503082275,0.0288223829120397,0.1142185106873512,0.0,0.0,0.444806513240376,-0.8119944060412583
-0.025493811815977,1.1847397089004517,-0.1063543409109115,-0.5584000945091248,0.036532238125801,0.1542110592126846,0.0,0.0,0.0306054081672753,0.5664253523480387
-0.0264633186161518,1.171910524368286,-0.1038290634751319,-0.5703654885292053,0.0433377511799335,0.1361225247383117,0.0,0.0,0.1608846093133271,0.7614544530237024
-0.0273125655949115,1.1589820384979248,-0.0905885845422744,-0.5747724175453186,0.0489390678703784,0.1120365411043167,0.0,0.0,-0.8977551132618724,0.5339650549973696
-0.0281427390873432,1.145368576049805,-0.0876914411783218,-0.6052038669586182,0.0535685941576957,0.0925985649228096,0.0,0.0,0.1349137122257211,0.8009306528386799
-0.0290745738893747,1.1317331790924072,-0.0963744968175888,-0.6061446070671082,0.0567413344979286,0.0634603574872016,0.0,0.0,0.8376312688849972,-0.9057782110882294
-0.0303299911320209,1.1185497045516968,-0.1304744184017181,-0.5861238837242126,0.0616173781454563,0.0975210666656494,0.0,0.0,0.6951608605428541,-0.9906908609444792
-0.0317350402474403,1.105799436569214,-0.1476608514785766,-0.5669935345649719,0.0686856135725975,0.1413646638393402,0.0,0.0,0.4041935139544697,-0.7338448555579677
-0.0334003455936908,1.0934057235717771,-0.1751569360494613,-0.5512509942054749,0.0772329643368721,0.1709470748901367,0.0,0.0,-0.7787327870178953,-0.742939647587934
-0.0351679809391498,1.0803285837173462,-0.187425285577774,-0.5818002820014954,0.0877962559461593,0.2112656533718109,0.0,0.0,-0.0953347514280793,-0.605383437890421
-0.0370160117745399,1.066561579704285,-0.1969405561685562,-0.6126278638839722,0.0998264700174331,0.2406041920185089,0.0,0.0,0.4072975360583057,0.6566824880839421
-0.0388989448547363,1.0532077550888062,-0.1993440389633178,-0.594279944896698,0.1107960641384124,0.2193918228149414,0.0,0.0,-0.9756640791893004,0.9703679084777832
-0.0407469756901264,1.0391781330108645,-0.1943717747926712,-0.6242755055427551,0.1203008890151977,0.1900967061519622,0.0,0.0,-0.9816403388977052,0.9941928386688232
-0.0425607673823833,1.0244885683059692,-0.1894319951534271,-0.6535435318946838,0.128308355808258,0.1601496785879135,0.0,0.0,-0.9974381327629088,0.9932353496551514
-0.0443367958068847,1.0091215372085571,-0.1840846538543701,-0.683548629283905,0.1347658038139343,0.1291488260030746,0.0,0.0,-0.9964399933815002,0.4769912958145141
-0.0461457259953022,0.9930726885795592,-0.1875902712345123,-0.713906466960907,0.1414430141448974,0.1335442960262298,0.0,0.0,-0.9788933396339417,0.5990042686462402
-0.0479399673640728,0.9763564467430116,-0.1850971728563308,-0.7434912323951721,0.1471043080091476,0.11322583258152,0.0,0.0,-0.9213091731071472,0.8912590742111206
-0.0497004501521587,0.9589684009552002,-0.1802356094121933,-0.773222029209137,0.1512833535671234,0.0835808515548706,0.0,0.0,-0.9163113236427308,0.9725419282913208
-0.0514144897460937,0.9409239292144777,-0.1737376004457473,-0.8022174835205078,0.1536099314689636,0.0465314798057079,0.0,0.0,-0.2611804008483886,0.9969160556793212
-0.0530907623469829,0.9222248792648317,-0.1683042645454406,-0.8311423063278198,0.1542862355709076,0.0135258380323648,0.0,0.0,0.675391674041748,0.9910805225372314
-0.054786492139101,0.9037835597991944,-0.1685242056846618,-0.8194988369941711,0.1532383263111114,-0.0209581404924392,0.0,0.0,0.1613568067550659,0.9983779191970824
-0.0566108711063861,0.8854774832725525,-0.1796037554740905,-0.8133209347724915,0.1504152566194534,-0.056461364030838,0.0,0.0,0.6531243324279785,0.9976829290390016
-0.0583316795527935,0.8673128485679626,-0.1676344126462936,-0.8068802356719971,0.1459798365831375,-0.08870829641819,0.0,0.0,-0.2501259446144104,0.8965878486633301
-0.06000442430377,0.8484739661216736,-0.160968080163002,-0.8366697430610657,0.1396872699260711,-0.1258513778448104,0.0,0.0,0.4352700710296631,0.9134969711303712
-0.0616067871451377,0.8296693563461304,-0.152407631278038,-0.8350483179092407,0.1318873167037964,-0.1559989750385284,0.0,0.0,0.5348948240280151,0.9589781761169434
-0.0632461532950401,0.8105853199958801,-0.1543488055467605,-0.847364604473114,0.1223510056734085,-0.1907265484333038,0.0,0.0,0.349861741065979,0.2365638017654419
-0.0649163275957107,0.791233241558075,-0.1578148156404495,-0.8593703508377075,0.1132073327898979,-0.1828735023736953,0.0,0.0,0.5281113386154175,0.9645380973815918
-0.0665279403328895,0.7718343138694763,-0.1503103971481323,-0.86138516664505,0.1024258956313133,-0.215628907084465,0.0,0.0,0.9317697286605836,0.9388635158538818
-0.0683455467224121,0.7532085180282593,-0.1689561009407043,-0.8269867300987244,0.0897281244397163,-0.2539554536342621,0.0,0.0,-0.8492127656936646,0.7578375339508057
-0.0701519027352333,0.7339153289794922,-0.1668500155210495,-0.8567072749137878,0.0760682970285415,-0.2731963992118835,0.0,0.0,0.2851107120513916,0.8634049892425537
-0.0719738975167274,0.7145370841026306,-0.1668585240840912,-0.8605471849441528,0.0608908981084823,-0.3035480976104736,0.0,0.0,-0.7293903827667236,0.4923717975616455
-0.0738307982683181,0.6944788694381714,-0.1705581843852996,-0.89091956615448,0.0459298864006996,-0.2992199659347534,0.0,0.0,0.9531986713409424,0.618354320526123
-0.0757864937186241,0.6750487685203552,-0.1791992634534835,-0.8631348013877869,0.0297561343759298,-0.3234752118587494,0.0,0.0,0.7874979972839355,0.3294464349746704
-0.0776730552315712,0.6556656360626221,-0.1730560958385467,-0.8612334728240967,0.0143441939726471,-0.3082387149333954,0.0,0.0,0.7105330228805542,0.4210149049758911
-0.0796030014753341,0.6368414163589478,-0.1776148229837417,-0.8365494012832642,-0.0008387822308577,-0.3036594092845917,0.0,0.0,0.9339728355407716,0.1427234411239624
-0.081392765045166,0.6181929707527161,-0.1646270304918289,-0.8288803696632385,-0.0150024173781275,-0.2832725048065185,0.0,0.0,0.8893735408782959,-0.8720801472663879
-0.0833983421325683,0.599672794342041,-0.1879469901323318,-0.8232972621917725,-0.0274510737508535,-0.2489734143018722,0.0,0.0,0.2163931131362915,0.2590460777282715
-0.0853530913591384,0.5813484191894531,-0.1834110170602798,-0.8146780729293823,-0.0393697582185268,-0.2383736073970794,0.0,0.0,-0.441902756690979,0.3554319143295288
-0.0873423591256141,0.5623429417610168,-0.1870729774236679,-0.8450413346290588,-0.0510800816118717,-0.2342065125703811,0.0,0.0,0.9942288398742676,-0.8765060901641846
-0.0892853736877441,0.5441514253616333,-0.1846435368061065,-0.8088685870170593,-0.0606372579932212,-0.1911436021327972,0.0,0.0,0.8930933475494385,0.2907958030700683
-0.091295339167118,0.526634156703949,-0.1911245435476303,-0.7789754271507263,-0.0703932493925094,-0.1951198875904083,0.0,0.0,-0.5531582832336426,0.0004013776779174
-0.0933393463492393,0.5084348917007446,-0.1947479248046875,-0.8093342185020447,-0.0799462720751762,-0.1910605132579803,0.0,0.0,0.8705300092697144,-0.480661392211914
-0.0954669937491417,0.4907548427581787,-0.2027972042560577,-0.7863422632217407,-0.0898236483335495,-0.1975474953651428,0.0,0.0,-0.3201482892036438,0.1988183259963989
-0.0976284965872764,0.4723928868770599,-0.2063874453306198,-0.8167008757591248,-0.0995024517178535,-0.1935760080814361,0.0,0.0,0.9902644157409668,-0.6109826564788818
-0.0997681617736816,0.454454630613327,-0.2057235240936279,-0.7978295087814331,-0.1076831743121147,-0.1636142432689666,0.0,0.0,0.9885971546173096,0.6542472839355469
-0.1018282920122146,0.436538815498352,-0.1966858953237533,-0.7969558835029602,-0.1169508174061775,-0.1853533685207367,0.0,0.0,0.981420636177063,-0.6875078082084656
-0.1040514931082725,0.4190346598625183,-0.214166834950447,-0.7786234617233276,-0.1250606030225753,-0.1621953547000885,0.0,0.0,0.8556094169616699,0.7132717370986938
-0.1061052307486534,0.402271568775177,-0.1960507929325103,-0.745833694934845,-0.1343429386615753,-0.1856466233730316,0.0,0.0,0.4501059055328369,0.3558938503265381
-0.1080861091613769,0.3851933479309082,-0.1892858892679214,-0.7598459720611572,-0.1431081444025039,-0.175303965806961,0.0,0.0,0.9729163646697998,0.2439970970153808
-0.1099222153425216,0.3689394295215606,-0.1751499474048614,-0.7232276201248169,-0.1515438705682754,-0.1687147617340088,0.0,0.0,0.8328825235366821,0.5890988111495972
-0.1117759719491005,0.3527943193912506,-0.1756261587142944,-0.7185834050178528,-0.1612821370363235,-0.1947655528783798,0.0,0.0,0.9741015434265136,-0.4505125284194946
-0.1136400252580642,0.3371914625167846,-0.176345556974411,-0.6945831775665283,-0.1713561117649078,-0.2014793902635574,0.0,0.0,0.8706305027008057,-0.3130269050598144
-0.1153813377022743,0.3219392001628876,-0.1644157469272613,-0.679029643535614,-0.1811017394065857,-0.1949121206998825,0.0,0.0,0.9350781440734864,-0.4669495224952698
-0.1171243637800216,0.3075051307678222,-0.1640671193599701,-0.642794668674469,-0.191382959485054,-0.2056245058774948,0.0,0.0,0.8283452987670898,-0.6344685554504395
-0.1187404617667198,0.2933193743228912,-0.1530197560787201,-0.6316080689430237,-0.2000127881765365,-0.1725964844226837,0.0,0.0,0.9471057653427124,-0.215579867362976
-0.1203347221016883,0.2791406512260437,-0.1508216559886932,-0.6313470005989075,-0.208675131201744,-0.1732471734285354,0.0,0.0,0.991590976715088,-0.7782513499259949
-0.1218524947762489,0.2648379802703857,-0.1450882405042648,-0.6366360187530518,-0.2154307663440704,-0.1351127624511718,0.0,0.0,0.9981355667114258,-0.6475194096565247
-0.1234035491943359,0.2504771947860718,-0.1497387439012527,-0.6390513181686401,-0.2208578288555145,-0.1085410341620445,0.0,0.0,0.9961498975753784,0.0568432807922363
-0.1247842758893966,0.2368394285440445,-0.1328011453151703,-0.6069245934486389,-0.2261998504400253,-0.1068407148122787,0.0,0.0,0.9989197254180908,-0.5988578796386719
-0.1259177178144455,0.2239483743906021,-0.1096766963601112,-0.5735028982162476,-0.2299184501171112,-0.0743717402219772,0.0,0.0,0.9934134483337402,-0.7315447926521301
-0.1270528733730316,0.2118913680315017,-0.1110703721642494,-0.5362511873245239,-0.2323911488056183,-0.0494541749358177,0.0,0.0,0.9991629123687744,-0.3762741088867187
-0.1282766312360763,0.1997903138399124,-0.1193320527672767,-0.5383089780807495,-0.2354792654514312,-0.0617622956633567,0.0,0.0,0.9949462413787842,-0.1694757342338562
-0.1292584389448166,0.1883812695741653,-0.0954629480838775,-0.5075037479400635,-0.2382417768239975,-0.0552506521344184,0.0,0.0,0.9938106536865234,-0.7867944240570068
-0.1302933692932129,0.1773704141378402,-0.1021328717470169,-0.489593505859375,-0.2396238893270492,-0.0276420172303915,0.0,0.0,0.9965546131134032,-0.5957885384559631
-0.1312748938798904,0.1669142395257949,-0.0978615432977676,-0.4647678732872009,-0.2399163395166397,-0.0058493698015809,0.0,0.0,0.9855495691299438,0.5965714454650879
-0.1320520341396331,0.1569909900426864,-0.0762760788202285,-0.4412693679332733,-0.2413803488016128,-0.0292803384363651,0.0,0.0,0.9729211330413818,-0.8078410029411316
-0.1326411217451095,0.1473788768053054,-0.059373814612627,-0.427127480506897,-0.2409053444862365,0.0094999857246875,0.0,0.0,0.9907739162445068,-0.6347388625144958
-0.1331774741411209,0.1376854479312896,-0.0554892309010028,-0.43051478266716,-0.2390201687812805,0.0377034768462181,0.0,0.0,0.948754906654358,-0.5040062665939331
-0.1335534155368805,0.1279707700014114,-0.0408379472792148,-0.4312416017055511,-0.2357294112443924,0.0658152252435684,0.0,0.0,0.9925284385681152,-0.8139922022819519
-0.1336676627397537,0.1185324788093566,-0.0167376510798931,-0.4186421632766723,-0.2303457260131836,0.1076738461852073,0.0,0.0,0.978806734085083,-0.1365840435028076
-0.1335354745388031,0.1090442538261413,0.0071244211867451,-0.4207589030265808,-0.2241688370704651,0.1235375180840492,0.0,0.0,0.9984662532806396,-0.3336378335952759
-0.1332311630249023,0.1002048328518867,0.0243440084159374,-0.3919500112533569,-0.2180136144161224,0.1231043115258216,0.0,0.0,0.9549089670181274,-0.260273814201355
-0.1327197104692459,0.0919856876134872,0.0448931157588958,-0.3643875122070312,-0.2116898000240326,0.1264761388301849,0.0,0.0,0.9863400459289552,-0.3693415522575378
-0.1319152861833572,0.0842130780220031,0.0735001116991043,-0.3444687724113464,-0.2046849578619003,0.1400969624519348,0.0,0.0,0.9310208559036256,-0.3121175169944763
-0.1309392005205154,0.0762828215956687,0.0901333689689636,-0.351442813873291,-0.197157084941864,0.1505574584007263,0.0,0.0,0.9473874568939208,0.1642483472824096
-0.1299269646406173,0.0685715749859809,0.0940569639205932,-0.3417883515357971,-0.1899485141038894,0.1441714614629745,0.0,0.0,0.9205167293548584,0.2882544994354248
-0.1286486685276031,0.06162765994668,0.1202371567487716,-0.307666152715683,-0.1823280453681945,0.1524093449115753,0.0,0.0,0.9402358531951904,-0.4206347465515136
-0.1272954046726226,0.0549950934946537,0.127902865409851,-0.2938883900642395,-0.174887552857399,0.148809939622879,0.0,0.0,0.8144818544387817,-0.5654214024543762
-0.1259958297014236,0.0490259267389774,0.1218588352203369,-0.2643664181232452,-0.1667716205120086,0.1623188555240631,0.0,0.0,0.788104772567749,-0.1073576211929321
-0.1244958862662315,0.0434686057269573,0.1415261179208755,-0.2460654526948928,-0.158292606472969,0.1695799529552459,0.0,0.0,0.5030674934387207,-0.7305033206939697
-0.1230150237679481,0.0382721982896328,0.1383126974105835,-0.2299384921789169,-0.148525670170784,0.1953384578227996,0.0,0.0,0.8295180797576904,-0.6077414155006409
-0.1215719208121299,0.0336613766849041,0.1336401998996734,-0.2038987576961517,-0.1378884613513946,0.2127441167831421,0.0,0.0,0.7990528345108032,-0.064275324344635
-0.1200968772172927,0.0291804410517215,0.1370569020509719,-0.1982176750898361,-0.1274756342172622,0.2082562893629074,0.0,0.0,0.653145432472229,-0.2469261884689331
-0.1186759024858474,0.0249357558786869,0.1322744041681289,-0.1878445297479629,-0.1177099123597145,0.195314422249794,0.0,0.0,0.7349492311477661,-0.5386785864830017
-0.1174144744873046,0.0208649486303329,0.115813061594963,-0.1801433861255645,-0.1074466109275817,0.205266386270523,0.0,0.0,0.6667301654815674,-0.5545377135276794
-0.1160181015729904,0.0171859599649906,0.127994567155838,-0.1627121418714523,-0.095898151397705,0.2309691607952118,0.0,0.0,0.8301379680633545,-0.1706544160842895
-0.1145277023315429,0.0134265040978789,0.1372050195932388,-0.1663664728403091,-0.0841640308499336,0.2346825152635574,0.0,0.0,0.8131906986236572,-0.6639209985733032
-0.1128595322370529,0.0102280946448445,0.1533372849225998,-0.1414505541324615,-0.0708230137825012,0.2668205499649048,0.0,0.0,0.7107539176940918,-0.911368191242218
-0.111243724822998,0.007569883018732,0.1464490443468094,-0.1174964681267738,-0.0558471269905567,0.2995175719261169,0.0,0.0,0.8593934774398804,-0.8405308127403259
-0.1094746589660644,0.0056730601936578,0.1598690897226333,-0.0837544128298759,-0.0389968156814575,0.3370059132575989,0.0,0.0,0.0320345163345336,-0.635678768157959
-0.1076972931623458,0.0036399459931999,0.1594800651073455,-0.0899837836623191,-0.0209737457334995,0.360461562871933,0.0,0.0,0.4825178384780884,-0.4423918724060058
-0.1059201210737228,0.0020271516405045,0.1596469581127166,-0.0715220421552658,-0.0031375137623399,0.3567248582839966,0.0,0.0,-0.3059324622154236,-0.5023871064186096
-0.1041871085762977,-0.0002595210098661,0.154482901096344,-0.1016948521137237,0.0154357505962252,0.3714653253555298,0.0,0.0,0.6008033752441406,0.1853609085083007
-0.1026132553815841,-0.0019911909475922,0.1581386923789978,-0.076972410082817,0.0146298240870237,-0.0161963421851396,0.0,1.0,-0.6650602221488953,-0.0292038917541503
-0.1012697219848632,-0.0038520360831171,0.1546973586082458,-0.0826463177800178,-0.0055221109651029,-0.4031256139278412,1.0,1.0,0.4637410640716553,-0.9472618103027344
-0.1002358421683311,-0.0047457125037908,0.1221544370055198,-0.0402704700827598,-0.022873718291521,-0.3455203175544739,1.0,1.0,-0.2086879014968872,-0.9694791436195374
-0.0992526039481163,-0.0054423715919256,0.1037123054265976,-0.031068043783307,-0.0281949546188116,-0.1064278706908226,1.0,1.0,-0.1812338829040527,-0.9689542651176452
-0.0984300598502159,-0.0057245041243731,0.0844147056341171,-0.0125918742269277,-0.0303416531533002,-0.0429363176226615,1.0,1.0,-0.3268228769302368,-0.9805352687835692
-0.0977539047598838,-0.0056076310575008,0.0667171850800514,0.0052018901333212,-0.0294565018266439,0.017701294273138,1.0,1.0,-0.5966686010360718,-0.7128236293792725
-0.0972060188651084,-0.0051181460730731,0.0510460622608661,0.0218157414346933,-0.0257732104510068,0.0736613720655441,1.0,1.0,-0.8801255822181702,-0.960353136062622
-0.0968467742204666,-0.004266669973731,0.0326545722782611,0.0378932394087314,-0.0225654132664203,0.064138263463974,1.0,1.0,-0.8274187445640564,-0.6041504740715027
-0.0965104103088378,-0.0033762122038751,0.0268209036439657,0.0396710038185119,-0.0158648174256086,0.1339785307645797,1.0,1.0,-0.8976647853851318,0.2452952861785888
