x_pos,y_pos,x_vel,y_vel,angle,ang_vel,leg_1,leg_2,main_booster,lat_booster
-0.0014559745322912,1.4030892848968506,-0.1472720801830291,-0.348032534122467,0.0014935819199308,0.0294423848390579,0.0,0.0,-0.2525109515779464,0.8064763561153958
-0.002775287721306,1.3947428464889526,-0.1314024925231933,-0.3709527552127838,0.0009770275792106,-0.0103314407169818,0.0,0.0,-0.6839927043124112,0.7943269991358197
-0.0039500235579907,1.385855197906494,-0.1147604137659072,-0.3950083553791046,-0.0017043169355019,-0.0536320619285106,0.0,0.0,0.260480801083029,-0.6407819498320586
-0.0052069663070142,1.377002477645874,-0.1238153353333473,-0.3934559226036072,-0.0035571053158491,-0.037059050053358,0.0,0.0,-0.5659817467372104,-0.58868853924817
-0.0064318655058741,1.3676167726516724,-0.1212752237915992,-0.4171499907970428,-0.0047549842856824,-0.023959893733263,0.0,0.0,0.4154997442854486,-0.9422927090976154
-0.0075257299467921,1.3583921194076538,-0.1099321395158767,-0.409981906414032,-0.0042171850800514,0.010757035575807,0.0,0.0,0.3331205591733344,-0.9771433021936328
-0.0086471559479832,1.3493318557739258,-0.1143561825156211,-0.4026719629764557,-0.0020344443619251,0.043658934533596,0.0,0.0,-0.8231103670863724,-0.7215138014825973
-0.0097430227324366,1.339738845825195,-0.112592875957489,-0.4263566136360168,0.000942688435316,0.0595481693744659,0.0,0.0,-0.6063010673173723,-0.6256791878972534
-0.0108207706362009,1.329617619514465,-0.1117684692144393,-0.4498381316661834,0.0048971218056976,0.0790958181023597,0.0,0.0,-0.8625247553563624,0.7316759985203645
-0.0117725376039743,1.3189663887023926,-0.0974173545837402,-0.4733947217464447,0.0071109593845903,0.0442808866500854,0.0,0.0,-0.5138700324025518,-0.9848764110999414
-0.0127223972231149,1.3077802658081057,-0.0986210331320762,-0.4971852302551269,0.0107003804296255,0.0717949345707893,0.0,0.0,0.9601149615809272,0.6668278565563635
-0.0134680746123194,1.2970001697540283,-0.076795607805252,-0.4791404902935028,0.0129056982696056,0.044110108166933,0.0,0.0,0.5789678373295695,-0.6674986079705045
-0.0140707967802882,1.2866922616958618,-0.063833437860012,-0.4581579864025116,0.0164287667721509,0.0704679265618324,0.0,0.0,-0.7359866063060225,-0.679008456882394
-0.0146526340395212,1.2758419513702393,-0.0626357644796371,-0.4822912812232971,0.0208294279873371,0.0880209058523178,0.0,0.0,-0.0407740294843619,0.5463474998831241
-0.0151132587343454,1.264464020729065,-0.0488382205367088,-0.5057265758514404,0.0235731042921543,0.0548787526786327,0.0,0.0,0.998404837468412,-0.7754731918082997
-0.0154315950348973,1.2530841827392578,-0.0361869931221008,-0.5058495998382568,0.0278774481266737,0.0860945731401443,0.0,0.0,-0.9194666227664998,-0.8219531203063009
-0.015732193365693,1.241176724433899,-0.0353555716574192,-0.5293281674385071,0.0331096239387989,0.1046531647443771,0.0,0.0,0.344180036075878,-0.7410149310859648
-0.0159038547426462,1.2291886806488037,-0.0238017309457063,-0.532957911491394,0.0396767221391201,0.1313537359237671,0.0,0.0,-0.3330036510723277,0.8095303539934435
-0.015933895483613,1.2166779041290283,-0.0074102701619267,-0.5561612844467163,0.0440378859639167,0.0872309431433677,0.0,0.0,-0.5617303102865201,0.9280072496014208
-0.0158329010009765,1.2036356925964355,0.0076519683934748,-0.5797287225723267,0.0464625731110572,0.0484980419278144,0.0,0.0,-0.9806603720426534,-0.979158417843216
-0.0157257076352834,1.1900612115859983,0.0070803253911435,-0.6034294366836548,0.0500761903822422,0.072278656065464,0.0,0.0,-0.2262965272618611,-0.6368014559031958
-0.0156003953889012,1.175944209098816,0.0079838801175355,-0.6275785565376282,0.0545830987393856,0.0901459753513336,0.0,0.0,0.5034942002366192,-0.705315875037213
-0.0153607372194528,1.1620395183563232,0.0181041304022073,-0.6182113885879517,0.0603884793817997,0.1161180585622787,0.0,0.0,-0.0024074743517192,0.7138302835574438
-0.0149910924956202,1.1475975513458252,0.0330642759799957,-0.6420351266860962,0.0642552077770233,0.0773411840200424,0.0,0.0,0.6844219905004398,0.8870542392051353
-0.0146880149841308,1.1335959434509275,0.0288057290017604,-0.6223537921905518,0.0657445788383483,0.0297900177538394,0.0,0.0,-0.3271933902804165,-0.7754627838730976
-0.0143937114626169,1.1190341711044312,0.0263463854789733,-0.6473265886306763,0.0687909722328186,0.0609280094504356,0.0,0.0,0.0633995886060736,-0.5064316068700723
-0.014102840796113,1.1046361923217771,0.0253532472997903,-0.6400851011276245,0.0724880993366241,0.0739422962069511,0.0,0.0,-0.246684054942196,0.5046314407706314
-0.0137151721864938,1.0897116661071775,0.0361982025206089,-0.6634425520896912,0.0750332921743393,0.0509039759635925,0.0,0.0,0.3090164074016674,0.729629774845739
-0.0133662223815917,1.0751690864562988,0.0343270823359489,-0.6463627219200134,0.07559484988451,0.0112311048433184,0.0,0.0,-0.1770034058057081,0.905950289719898
-0.0128829004243016,1.0600956678390503,0.0498927161097526,-0.6698547601699829,0.0740488842129707,-0.0309193395078182,0.0,0.0,0.5659623134074818,-0.7725175136610524
-0.0124360080808401,1.0456912517547607,0.0450428202748298,-0.6401780247688293,0.0737045928835868,-0.0068859094753861,0.0,0.0,-0.8680800199508667,-0.1985160708427429
-0.0119246486574411,1.0307515859603882,0.0518548190593719,-0.6639560461044312,0.0729904174804687,-0.014283312484622,0.0,0.0,-0.8278343081474304,-0.1475943326950073
-0.0113493921235203,1.015276312828064,0.0586217157542705,-0.687734067440033,0.0719052478671073,-0.0217033307999372,0.0,0.0,-0.75784832239151,0.0112552642822265
-0.0107108112424612,0.9992657899856568,0.0653393566608429,-0.7115122079849243,0.0704481229186058,-0.029142627492547,0.0,0.0,-0.5748604536056519,-0.4150094985961914
-0.0100092887878417,0.982719898223877,0.0720032528042793,-0.7352904677391052,0.0686182305216789,-0.0365978963673114,0.0,0.0,-0.3332524299621582,-0.1584610342979431
-0.0092453956604003,0.9656385779380798,0.0786085873842239,-0.7590688467025757,0.0664149299263954,-0.0440658852458,0.0,0.0,0.6471049785614014,-0.4927761554718017
-0.0084761623293161,0.9486987590789796,0.0796509832143783,-0.7527631521224976,0.0637167543172836,-0.0539637319743633,0.0,0.0,-0.2655667662620544,-0.3991920948028564
-0.0076459883712232,0.9312238097190856,0.0861231833696365,-0.7765420079231262,0.0606443956494331,-0.0614470243453979,0.0,0.0,0.1630153656005859,-0.6263381838798523
-0.0068721771240234,0.9141011238098145,0.079650267958641,-0.760916531085968,0.0583961829543113,-0.0449643023312091,0.0,0.0,-0.5330463647842407,-0.6698248386383057
-0.0060895918868482,0.8964396119117737,0.0796336606144905,-0.7849040627479553,0.0570441111922264,-0.0270416345447301,0.0,0.0,-0.3493777513504028,-0.2205689549446106
-0.0052484511397778,0.8782426714897156,0.085859291255474,-0.8086826205253601,0.0553180091083049,-0.0345218144357204,0.0,0.0,0.4103889465332031,0.1170077323913574
-0.0042693139985203,0.8601886034011841,0.0995460823178291,-0.8023434281349182,0.0537057071924209,-0.0322461985051631,0.0,0.0,0.4138734340667724,-0.3307178020477295
-0.0031649589072912,0.8420079350471497,0.1120441332459449,-0.8079718351364136,0.0521050132811069,-0.0320139899849891,0.0,0.0,-0.1835148334503173,-0.8465679883956909
-0.0020611763466149,0.8232858180999756,0.1109506264328956,-0.8320713639259338,0.0515392683446407,-0.0113147739320993,0.0,0.0,-0.3910776376724243,0.4108991622924804
-0.0009033203241415,0.8040284514427185,0.116738811135292,-0.855850100517273,0.0506023243069648,-0.0187388826161623,0.0,0.0,-0.5335703492164612,-0.5782981514930725
0.0002654075506143,0.7842265963554382,0.1171168088912963,-0.8800694346427917,0.0503593795001506,-0.0048587997443974,0.0,0.0,0.0894131660461425,0.5342814922332764
0.0015575408469885,0.7643347382545471,0.1308211833238601,-0.8840329051017761,0.0487635806202888,-0.0319158658385276,0.0,0.0,0.0071179866790771,-0.8938987255096436
0.0027221678756177,0.7446674704551697,0.1166300922632217,-0.8740964531898499,0.0485927313566207,-0.0034169231075793,0.0,0.0,0.0712579488754272,-0.233586311340332
0.003824234008789,0.7252242565155029,0.1111515536904335,-0.8641116619110107,0.0476588420569896,-0.0186778083443641,0.0,0.0,0.3590778112411499,-0.6800422668457031
0.0048798560164868,0.7058654427528381,0.1055400967597961,-0.860389769077301,0.0476823262870311,0.0004700829740613,0.0,0.0,0.0998221635818481,-0.1845990419387817
0.0060573578812181,0.6865478157997131,0.1176427453756332,-0.858565092086792,0.0477868616580963,0.0020907861180603,0.0,0.0,0.0309815406799316,-0.8539831042289734
0.0071454048156738,0.6673814058303833,0.1073470264673233,-0.8518827557563782,0.0492276884615421,0.0288164801895618,0.0,0.0,0.3667745590209961,-0.5653184652328491
0.008309650234878,0.6482316851615906,0.1139681711792945,-0.8511800765991211,0.0516528449952602,0.0485028438270092,0.0,0.0,-0.1700039505958557,-0.0941041111946106
0.0095118526369333,0.6285468935966492,0.1181336417794227,-0.8749592900276184,0.053725890815258,0.0414608642458915,0.0,0.0,0.9802460670471193,-0.4648150205612182
0.0108968736603856,0.6092165112495422,0.135913535952568,-0.8592249751091003,0.0562763959169387,0.0510101616382598,0.0,0.0,0.6261981725692749,-0.94035404920578
0.0121089937165379,0.5900260806083679,0.1172260046005249,-0.8530606031417847,0.0602160692214965,0.0787934958934784,0.0,0.0,0.9143352508544922,-0.2854173183441162
0.0134046552702784,0.5716931819915771,0.1254157125949859,-0.8149702548980713,0.0643187165260315,0.0820529013872146,0.0,0.0,0.6072405576705933,-0.2115737199783325
0.0148196220397949,0.5538202524185181,0.1370594948530197,-0.7945511341094971,0.0687057301402092,0.0877404138445854,0.0,0.0,0.1547489166259765,0.0894993543624877
0.0162715911865234,0.5362786650657654,0.1408607810735702,-0.7798293232917786,0.0730022713541984,0.0859307199716568,0.0,0.0,0.3946399688720703,0.0029984712600708
0.0176324844360351,0.5191872715950012,0.1323793232440948,-0.7598035335540771,0.0766742676496505,0.0734401419758796,0.0,0.0,0.063876986503601,-0.2606390118598938
0.0190260894596576,0.5019210577011108,0.1358218938112259,-0.7675718069076538,0.0801769271492958,0.0700531601905822,0.0,0.0,0.654975175857544,-0.1633986234664917
0.0202780719846487,0.4851581156253814,0.122447095811367,-0.7451702952384949,0.082898698747158,0.0544357225298881,0.0,0.0,0.2733373641967773,-0.0952528119087219
0.0216032024472951,0.4684675633907318,0.1296316981315612,-0.741966187953949,0.0857505351305008,0.0570368580520153,0.0,0.0,0.6205661296844482,-0.592990517616272
0.0228626243770122,0.4521383345127105,0.1221187934279441,-0.725968062877655,0.0895402282476425,0.0757938846945762,0.0,0.0,0.4598169326782226,0.1170395612716674
0.0241014473140239,0.4358038902282715,0.120322585105896,-0.7261898517608643,0.0930645540356636,0.0704863667488098,0.0,0.0,0.7119628190994263,0.3582913875579834
0.025156021118164,0.4198310375213623,0.1028007268905639,-0.7100746035575867,0.0957051515579223,0.0528119020164012,0.0,0.0,0.456973671913147,0.1800156831741333
0.0261542312800884,0.404452383518219,0.0973524525761604,-0.6836541891098022,0.0981503427028656,0.0489037558436393,0.0,0.0,0.7127383947372437,0.7038838863372803
0.0272639282047748,0.3890043497085571,0.1100010424852371,-0.6866416335105896,0.099122367799282,0.0194400493055582,0.0,0.0,0.6494865417480469,-0.2531171441078186
0.0283057205379009,0.3742972016334533,0.1033403128385543,-0.6537078619003296,0.0999520272016525,0.0165930036455392,0.0,0.0,0.3469154834747314,-0.2668435573577881
0.0292184837162494,0.3596190810203552,0.091052308678627,-0.6523736119270325,0.1001680567860603,0.0043208790011703,0.0,0.0,0.7989459037780762,-0.2208449840545654
0.029940128326416,0.3454910516738891,0.0726684555411338,-0.6278806924819946,0.0996717438101768,-0.0099264476448297,0.0,0.0,0.6103389263153076,-0.0174726843833923
0.0306099895387887,0.3317374885082245,0.0675852820277214,-0.6112293004989624,0.0990734845399856,-0.0119650699198246,0.0,0.0,0.6065196990966797,-0.2048148512840271
0.0310491565614938,0.3186558187007904,0.0453380160033702,-0.5813155770301819,0.0976648107171058,-0.0281736962497234,0.0,0.0,0.4316515922546386,-0.0642421245574951
0.0314747802913188,0.3057950735092163,0.0439105406403541,-0.5714980363845825,0.0963297262787818,-0.0267019085586071,0.0,0.0,0.687079906463623,0.2339797019958496
0.0317964553833007,0.2929904460906982,0.0338826552033424,-0.5689862966537476,0.0946248695254325,-0.0340970046818256,0.0,0.0,0.7681492567062378,0.0491985082626342
0.0321232788264751,0.2801803350448608,0.0342614725232124,-0.56923907995224,0.0930570662021637,-0.0313560292124748,0.0,0.0,0.902714729309082,0.1131279468536377
0.0323401466012001,0.2674137353897095,0.0236297063529491,-0.567284882068634,0.0911326259374618,-0.0384888052940368,0.0,0.0,0.7254266738891602,0.5309202671051025
0.0324737541377544,0.2553586959838867,0.0165741927921772,-0.5355903506278992,0.087946280837059,-0.0637269541621208,0.0,0.0,0.8050713539123535,-0.027902066707611
0.0325734131038188,0.2441116422414779,0.0129363518208265,-0.4996924698352813,0.0850001201033592,-0.0589233711361885,0.0,0.0,0.7294735908508301,-0.5200961828231812
0.0323890671133995,0.2335924506187439,-0.015992047265172,-0.4673875272274017,0.0825865268707275,-0.0482716150581836,0.0,0.0,0.2016762495040893,0.8162297010421753
0.0320944786071777,0.2228844910860061,-0.0251539405435323,-0.4756773114204407,0.0783248841762542,-0.0852331072092056,0.0,0.0,0.7917985916137695,0.6606099605560303
0.0317819602787494,0.2129413038492202,-0.0256100241094827,-0.4416345357894897,0.072734996676445,-0.1117975562810897,0.0,0.0,0.5010477304458618,0.2771646976470947
0.031287670135498,0.2032356411218643,-0.043232262134552,-0.4310753643512726,0.0666083395481109,-0.1225331649184227,0.0,0.0,0.6714160442352295,0.2176496982574463
0.0306387897580862,0.1940160542726516,-0.0583435781300067,-0.4094788134098053,0.0601287148892879,-0.1295925676822662,0.0,0.0,0.6056418418884277,0.5541223287582397
0.0299246795475482,0.185285285115242,-0.0636227279901504,-0.3877407610416412,0.0524321570992469,-0.153931125998497,0.0,0.0,-0.0161231756210327,0.4625078439712524
0.029153537005186,0.1760202199220657,-0.0692616775631904,-0.4115256369113922,0.0446694865822792,-0.1552535593509674,0.0,0.0,0.023518681526184,-0.7586029171943665
0.0282716751098632,0.1665282100439071,-0.0818178653717041,-0.4216931164264679,0.0383754260838031,-0.1258809268474578,0.0,0.0,0.6584265232086182,-0.7086438536643982
0.0273601524531841,0.1571047157049179,-0.0863848179578781,-0.4187069833278656,0.0336710959672927,-0.0940864235162735,0.0,0.0,0.5623857975006104,0.1318496465682983
0.0265085212886333,0.1479629576206207,-0.0810378119349479,-0.4062100350856781,0.0295925382524728,-0.0815709233283996,0.0,0.0,0.3497813940048218,0.5717735290527344
0.0257547385990619,0.1387727856636047,-0.0703610330820083,-0.4083628952503204,0.024639680981636,-0.0990572422742843,0.0,0.0,0.3220576047897339,-0.1057671308517456
0.0249184612184762,0.1299491673707962,-0.0786092579364776,-0.3920864164829254,0.0196817480027675,-0.0991587489843368,0.0,0.0,-0.0134952068328857,0.4387409687042236
0.0240180008113384,0.1205908358097076,-0.085054688155651,-0.4158687889575958,0.0147568862885236,-0.0984971970319747,0.0,0.0,0.669553279876709,-0.1681526899337768
0.0231685638427734,0.1117115095257759,-0.0805981010198593,-0.3945978879928589,0.0104645872488617,-0.0858459174633026,0.0,0.0,0.5696470737457275,0.1666009426116943
0.0223459247499704,0.1027640923857688,-0.0784260928630828,-0.3976412713527679,0.0066833067685365,-0.0756257399916648,0.0,0.0,0.9021520614624025,0.025017499923706
0.0213926322758197,0.0941606387495994,-0.0913032367825508,-0.3823625743389129,0.0027073235251009,-0.0795198231935501,0.0,0.0,0.8952451944351196,-0.1450769305229187
0.0204668045043945,0.0865073278546333,-0.0891119390726089,-0.3401450216770172,-0.0007170455064624,-0.0684874355792999,0.0,0.0,0.4476556777954101,-0.0981749892234802
0.0194534305483102,0.0790671706199646,-0.0978908613324165,-0.3306790292263031,-0.0041162376292049,-0.0679840818047523,0.0,0.0,0.8707883358001709,0.6016850471496582
0.0182726867496967,0.0724495500326156,-0.1131397113204002,-0.294139951467514,-0.0089797554537653,-0.0972705036401748,0.0,0.0,0.5025436878204346,0.4213062524795532
0.0171085353940725,0.0662479251623153,-0.1120162233710289,-0.2756581902503967,-0.0133236581459641,-0.0868783369660377,0.0,0.0,0.6110266447067261,0.8906135559082031
0.0158973690122365,0.0606151446700096,-0.1149996072053909,-0.2504114806652069,-0.0193525906652212,-0.1205788478255271,0.0,0.0,0.3490219116210937,0.6033639907836914
0.0146028520539402,0.0553698875010013,-0.1221766024827957,-0.233232319355011,-0.0265429597347974,-0.1438072621822357,0.0,0.0,-0.2550267577171325,0.0647604465484619
0.0132389068603515,0.0495902635157108,-0.1293199807405471,-0.2570164799690246,-0.0335317999124527,-0.1397765278816223,0.0,0.0,0.5467863082885742,-0.0268337130546569
0.0117150302976369,0.044125709682703,-0.145020455121994,-0.2430517673492431,-0.0408091843128204,-0.1455477178096771,0.0,0.0,0.7118843793869019,0.5739908218383789
0.010021686553955,0.0389464013278484,-0.1606087535619735,-0.2304557412862777,-0.0494333319365978,-0.1724829077720642,0.0,0.0,0.7777261734008789,0.934105396270752
0.0084973331540822,0.0343819968402385,-0.142281487584114,-0.203226700425148,-0.0594696030020713,-0.2007256001234054,0.0,0.0,-0.1085854768753051,0.2682632207870483
0.0069027901627123,0.0292837247252464,-0.1495722979307174,-0.2270140796899795,-0.0692470222711563,-0.1955481767654419,0.0,0.0,0.6172627210617065,0.2986644506454468
0.0054310797713696,0.0247540101408958,-0.1382211595773697,-0.2017566263675689,-0.0780958384275436,-0.1769766360521316,0.0,0.0,0.5827953815460205,0.6128115653991699
0.0039719580672681,0.0208040811121463,-0.1359852701425552,-0.1760990768671035,-0.0879348888993263,-0.1967810690402984,0.0,0.0,0.21150803565979,0.3451535701751709
0.002601432846859,0.0172424651682376,-0.12791708111763,-0.1588569581508636,-0.0969942957162857,-0.18118816614151,0.0,0.0,-0.0597626566886901,0.2745163440704345
0.0011600494617596,0.0131464097648859,-0.1353105008602142,-0.1826416105031967,-0.105747066438198,-0.1750554740428924,0.0,0.0,0.5082871913909912,0.5672621726989746
-0.0002354621828999,0.0096274949610233,-0.1299035847187042,-0.1571072041988372,-0.1153289452195167,-0.191637709736824,1.0,0.0,0.8331212997436523,0.8055789470672607
-0.0013524055248126,0.0073000881820917,-0.1103902906179428,-0.1038842126727104,-0.1154338791966438,-0.0005101116839796,1.0,0.0,0.3226755857467651,0.8282959461212158
-0.0021886825561523,0.0054853055626153,-0.0965614095330238,-0.0797194391489029,-0.102533034980297,0.2580870985984802,1.0,0.0,0.0739866495132446,0.7486753463745117
-0.0029295920394361,0.0041714524850249,-0.0976624339818954,-0.0569532141089439,-0.079116441309452,0.4683835506439209,1.0,0.0,-0.1793676018714904,0.662808895111084
-0.0035895346663892,0.0025853728875517,-0.0956844910979271,-0.0691962093114852,-0.0497036166489124,0.5883100032806396,1.0,0.0,0.2570348978042602,0.723344087600708
-0.0041787149384617,0.0011823630193248,-0.0890313908457756,-0.0616318173706531,-0.0199244171380996,0.5956293940544128,1.0,0.0,0.1817390918731689,0.9697873592376708
-0.0046821595169603,-0.0002099180273944,-0.0773050263524055,-0.0617337934672832,0.006689763162285,0.5322833061218262,1.0,0.0,0.3778109550476074,0.969083309173584
-0.0050796507857739,-0.0009879017015919,-0.0456119291484355,-0.0346167795360088,0.0124807227402925,0.1158199682831764,0.0,1.0,-0.5566432476043701,0.7306152582168579
-0.0055216788314282,-0.0016619944944977,-0.0302954260259866,-0.0299023129045963,-0.0012384590227156,-0.2743894755840301,0.0,1.0,-0.0369490981101989,0.2941352128982544
-0.0058363913558423,-0.0018448138143867,-0.0214483104646205,-0.0081748208031058,-0.0110700530931353,-0.1965480148792266,1.0,1.0,-0.7342280745506287,-0.1038119196891784
-0.0059666633605957,-0.0017229341901838,-0.0139382798224687,0.0054121543653309,-0.0101325204595923,0.0187955629080533,1.0,1.0,-0.8159555196762085,0.1207271814346313
