x_pos,y_pos,x_vel,y_vel,angle,ang_vel,leg_1,leg_2,main_booster,lat_booster
-0.00152378086932,1.4034740924835205,-0.1543909609317779,-0.3309327661991119,0.0018042604206129,0.0355938747525215,0.0,0.0,0.5563111281900723,-0.2921702549480747
-0.0029995918739587,1.396552801132202,-0.1496239602565765,-0.3076137602329254,0.0038299623411148,0.0405185744166374,0.0,0.0,-0.6944258262157956,-0.0222163440821431
-0.0044752121903002,1.3894808292388916,-0.14964160323143,-0.3143251538276672,0.0058859135024249,0.0411228016018867,0.0,0.0,-0.8501846498013808,0.1306615067493429
-0.0059504508972167,1.3822582960128784,-0.1496454179286956,-0.3210093080997467,0.0079728523269295,0.0417430587112903,0.0,0.0,0.3645619853931845,-0.3888307182505043
-0.0073230741545557,1.3756948709487915,-0.1399262547492981,-0.2917321324348449,0.0106004867702722,0.0525577589869499,0.0,0.0,0.1654526988404157,-0.3917387099399736
-0.0086025241762399,1.3695571422576904,-0.1310944259166717,-0.2728165090084076,0.0137208802625536,0.0624136812984943,0.0,0.0,0.7606669790255185,0.48960507108395
-0.0099137304350733,1.364191651344299,-0.1341902911663055,-0.2384980320930481,0.0167562197893857,0.060712344944477,0.0,0.0,0.7927353232433427,0.9066755404241504
-0.0109846116974949,1.3597376346588137,-0.1087116152048111,-0.1979766190052032,0.0183541737496852,0.0319621041417121,0.0,0.0,-0.6329086980045318,0.7017249235990003
-0.0120004657655954,1.3551421165466309,-0.1018519550561904,-0.2042421996593475,0.0186195336282253,0.005307822022587,0.0,0.0,-0.764211329874668,-0.4960846784807007
-0.0130150793120265,1.3503965139389038,-0.1017544269561767,-0.2109204232692718,0.0189149752259254,0.0059092221781611,0.0,0.0,0.0113881688924593,0.9661145316512476
-0.0138953207060694,1.3460510969161987,-0.0863905698060989,-0.1931147128343582,0.0173015035688877,-0.0322725400328636,0.0,0.0,0.8739261000160454,-0.2130089731402155
-0.0147040365263819,1.3424557447433472,-0.079648308455944,-0.1597752124071121,0.0160977486521005,-0.0240772776305675,0.0,0.0,-0.8726038975255705,-0.2645679539247454
-0.0155108449980616,1.3387103080749512,-0.0794903039932251,-0.1664628833532333,0.0149221615865826,-0.0235137846320867,0.0,0.0,-0.9780384996708568,-0.9099091340293866
-0.0163789745420217,1.3348042964935305,-0.087274894118309,-0.1735982298851013,0.015373402275145,0.0090258531272411,0.0,0.0,0.6263526087906663,-0.9846651433220754
-0.0171781536191701,1.3319772481918335,-0.0825768634676933,-0.1256737411022186,0.0180015210062265,0.0525670163333416,0.0,0.0,-0.9458779462910508,0.9337735038629538
-0.0178876873105764,1.3289910554885864,-0.0714324712753295,-0.1327230930328369,0.0184668879956007,0.0093083549290895,0.0,0.0,-0.540495622463492,-0.4868066832516751
-0.0185946468263864,1.3258546590805054,-0.0711962282657623,-0.1394009292125702,0.0189605206251144,0.0098735718056559,0.0,0.0,-0.4250452878373179,-0.7317105813572273
-0.0193428043276071,1.3225605487823486,-0.0764658749103546,-0.1464301198720932,0.0205896031111478,0.0325847379863262,0.0,0.0,0.9825662341409068,0.4482932051349919
-0.0199912078678607,1.3205642700195312,-0.0670687779784202,-0.0887548178434372,0.0227891728281974,0.0439952835440635,0.0,0.0,-0.4265246626966334,0.6581008503696476
-0.0205913539975881,0.0,-0.0611230731010437,-0.0953779071569442,0.0238811131566762,0.0218409653753042,0.0,0.0,0.113318779635597,0.9019935147961974
-0.0210280418395996,1.3168952465057373,-0.0429964214563369,-0.0676911175251007,0.0232270993292331,-0.0130818607285618,0.0,0.0,-0.3756871908459078,0.790383364864717
-0.0213971138000488,1.3152192831039429,-0.0346503853797912,-0.0744549036026001,0.0209963880479335,-0.0446181483566761,0.0,0.0,-0.8050459035419519,0.3278082588844271
-0.0217621810734272,1.3133931159973145,-0.0342734530568122,-0.0811352729797363,0.0187893100082874,-0.0441456660628318,0.0,0.0,0.2238549546696784,-0.5197699926142382
-0.0221119876950979,1.311758041381836,-0.0339279919862747,-0.0726572424173355,0.0177583955228328,-0.0206201858818531,0.0,0.0,0.3021638002641267,0.7740248924167581
-0.0225314144045114,1.3107339143753052,-0.0392095297574996,-0.0454924330115318,0.0150529714301228,-0.054113246500492,0.0,0.0,-0.9568022240590652,0.7434774797509608
-0.022901440039277,1.309542894363403,-0.0331490971148014,-0.0528997220098972,0.011247880756855,-0.0761019214987754,0.0,0.0,-0.4652545514353909,0.1786041922956477
-0.0232666973024606,1.3082019090652466,-0.0326874330639839,-0.0595817156136035,0.0074621271342039,-0.0757152214646339,0.0,0.0,-0.2908088623800904,0.4833477098018269
-0.0236269943416118,1.3067106008529663,-0.0322030819952487,-0.0662636905908584,0.0036947026383131,-0.0753488466143608,0.0,0.0,-0.7599027709131516,0.618146474983402
-0.0239436142146587,1.305074691772461,-0.0268894173204898,-0.0727068558335304,-0.0010184516431763,-0.0942631512880325,0.0,0.0,0.4023050843770712,0.7057147088660403
-0.0242183692753314,1.303906798362732,-0.0212529636919498,-0.0519211180508136,-0.0071524018421769,-0.1226793974637985,0.0,0.0,-0.1697174803622667,0.2478179038291468
-0.0244874004274606,1.3025891780853271,-0.0207016728818416,-0.0586050227284431,-0.0132714500650763,-0.1223808526992797,0.0,0.0,-0.997369647026062,-0.982508659362793
-0.0248383525758981,1.3011174201965332,-0.0311485566198825,-0.0654462873935699,-0.0171709060668945,-0.0779891088604927,0.0,0.0,-0.9965952038764954,-0.9348133206367492
-0.025267219170928,1.299506664276123,-0.0410969331860542,-0.071617379784584,-0.0189436245709657,-0.0354543812572956,0.0,0.0,-0.998330295085907,-0.5859785676002502
-0.0257412903010845,1.2977415323257446,-0.0469209887087345,-0.0784537494182586,-0.0194170847535133,-0.0094689801335334,0.0,0.0,-0.9965612888336182,-0.1964247822761535
-0.0262087825685739,1.295826077461243,-0.0462844893336296,-0.0851345136761665,-0.0198810212314128,-0.0092785786837339,0.0,0.0,-0.9975603818893432,0.5132122039794922
-0.0266277305781841,1.2937630414962769,-0.0403736233711242,-0.0917139053344726,-0.0213881395757198,-0.0301424767822027,0.0,0.0,-0.9903462529182434,0.3527508974075317
-0.027039909735322,1.2915496826171875,-0.0396969355642795,-0.0983948409557342,-0.0228887591511011,-0.0300125814974308,0.0,0.0,-0.9959681630134584,-0.7518860101699829
-0.0275007244199514,1.289193630218506,-0.0459838658571243,-0.1047119200229644,-0.0229832231998443,-0.0018893458181992,0.0,0.0,-0.9987854957580566,-0.0185024142265319
-0.0279543884098529,1.286687254905701,-0.0452688708901405,-0.1113926842808723,-0.0230743903666734,-0.0018234407762065,0.0,0.0,-0.9952519536018372,0.4575991630554199
-0.0284006111323833,1.2840306758880615,-0.0445354878902435,-0.1180734410881996,-0.0231639165431261,-0.001790553680621,0.0,0.0,-0.9990072250366212,0.6738481521606445
-0.0287954322993755,1.2812278270721436,-0.0382721088826656,-0.1245868280529975,-0.0243555922061204,-0.0238335244357585,0.0,0.0,-0.9996774792671204,0.3981893062591553
-0.0291826240718364,1.2782747745513916,-0.0375035777688026,-0.131267711520195,-0.0255489964038133,-0.0238679703325033,0.0,0.0,-0.9979618191719056,0.5434423685073853
-0.0295120235532522,1.2751635313034058,-0.0304637216031551,-0.1383222788572311,-0.0280016176402568,-0.0490523502230644,0.0,0.0,-0.979692280292511,-0.7504159808158875
-0.0298831947147846,1.271902561187744,-0.0358852669596672,-0.1449556946754455,-0.0292130894958972,-0.0242296066135168,0.0,0.0,-0.9867087602615356,0.5725301504135132
-0.0302041061222553,1.2684825658798218,-0.0297822952270507,-0.1520414501428604,-0.0314940027892589,-0.0456182286143302,0.0,0.0,-0.9970694184303284,-0.1385740041732788
-0.0305168144404888,1.264912486076355,-0.028950285166502,-0.1587226688861847,-0.0337833799421787,-0.04578772559762,0.0,0.0,-0.9757198095321656,-0.8337893486022949
-0.0308805461972951,1.2611905336380005,-0.0355500802397728,-0.1654390841722488,-0.0345929861068725,-0.0161920692771673,0.0,0.0,-0.991750717163086,0.3283752202987671
-0.0312356948852539,1.2573182582855225,-0.0346898026764392,-0.1721199005842209,-0.0354143306612968,-0.0164267513900995,0.0,0.0,-0.9915875792503356,0.2454184293746948
-0.0315823554992675,1.253295660018921,-0.0338162705302238,-0.1788007616996765,-0.0362489745020866,-0.0166928134858608,0.0,0.0,-0.9840903878211976,-0.7024579644203186
-0.0319777503609657,1.2491240501403809,-0.0401502028107643,-0.1853972375392913,-0.0356523059308528,0.0119333211332559,0.0,0.0,-0.99601948261261,0.37518310546875
-0.0323644652962684,1.2448019981384275,-0.039251908659935,-0.192078098654747,-0.0350719355046749,0.0116072343662381,0.0,0.0,-0.9247912168502808,0.9320356845855712
-0.0326753631234169,1.2403323650360107,-0.0299625750631093,-0.1986783444881439,-0.0361853130161762,-0.0222673434764146,0.0,0.0,-0.975227415561676,0.3017234802246094
-0.0329772010445594,1.2357125282287598,-0.0290417931973934,-0.2053592652082443,-0.0373177677392959,-0.0226490460336208,0.0,0.0,-0.977111041545868,-0.2129850387573242
-0.0332700721919536,1.2309422492980957,-0.0281106028705835,-0.2120402157306671,-0.0384705923497676,-0.0230567082762718,0.0,0.0,-0.9866707921028136,0.3829764127731323
-0.0335536003112793,1.2260217666625977,-0.0271695498377084,-0.2187211662530899,-0.0396450497210025,-0.0234890896826982,0.0,0.0,-0.9954054355621338,0.7849864959716797
-0.0337758064270019,1.2209444046020508,-0.0196754746139049,-0.2257306575775146,-0.042156659066677,-0.0502323694527149,0.0,0.0,-0.988759219646454,-0.3632041215896606
-0.0339886657893657,1.21571683883667,-0.0187163166701793,-0.2324120253324508,-0.0446921661496162,-0.0507102310657501,0.0,0.0,-0.986257016658783,0.2510098218917846
-0.0341920852661132,1.210339069366455,-0.0177488792687654,-0.2390934079885482,-0.0472526066005229,-0.0512089431285858,0.0,0.0,-0.7771201133728027,0.4848256111145019
-0.0343859679996967,1.2048110961914062,-0.0167736653238534,-0.2457748055458068,-0.0498389676213264,-0.0517272762954235,0.0,0.0,-0.9158639907836914,0.423858642578125
-0.0345703139901161,1.199132800102234,-0.0157911702990531,-0.2524562478065491,-0.0524521619081497,-0.0522639453411102,0.0,0.0,-0.9719666838645936,0.0572715997695922
-0.0347450263798236,1.1933043003082275,-0.0148018766194581,-0.2591376900672912,-0.0550930611789226,-0.0528178215026855,0.0,0.0,-0.8119785785675049,0.4808148145675659
-0.0349102020263671,1.1873257160186768,-0.0138062611222267,-0.2658191621303558,-0.0577624291181564,-0.0533877238631248,0.0,0.0,-0.9841063618659972,0.2201952934265136
-0.0350655540823936,1.1811968088150024,-0.0128047866746783,-0.2725006341934204,-0.060461051762104,-0.053972590714693,0.0,0.0,-0.9603731036186218,0.3891228437423706
-0.0352110862731933,1.174917697906494,-0.011797908693552,-0.2791821360588074,-0.0631896257400512,-0.0545712821185588,0.0,0.0,-0.9585790634155272,0.2377337217330932
-0.0353468880057334,1.1684885025024414,-0.0107860742136836,-0.2858636677265167,-0.065948761999607,-0.0551829040050506,0.0,0.0,-0.9790387749671936,0.6912040710449219
-0.0354293808341026,1.161905288696289,-0.004327037371695,-0.2927673459053039,-0.0698322132229805,-0.0776692330837249,0.0,0.0,-0.9873101115226746,-0.0585973262786865
-0.035502053797245,1.1551718711853027,-0.003306659637019,-0.2994495332241058,-0.0737473890185356,-0.0783037394285202,0.0,0.0,-0.991672933101654,0.4019887447357178
-0.0355647094547748,1.148288607597351,-0.0022826257627457,-0.3061317801475525,-0.0776948109269142,-0.0789484679698944,0.0,0.0,-0.9750400185585022,0.2858257293701172
-0.0356175415217876,1.1412551403045654,-0.0012553550768643,-0.3128140568733215,-0.0816749334335327,-0.0796025246381759,0.0,0.0,-0.9506969451904296,-0.1999590396881103
-0.0356602668762207,1.1340715885162354,-0.0002252623235108,-0.3194963335990906,-0.0856881961226463,-0.0802652239799499,0.0,0.0,-0.991516411304474,-0.6178504228591919
-0.0357490554451942,1.1267478466033936,-0.0062227258458733,-0.3256610929965973,-0.0883155390620231,-0.0525469481945037,0.0,0.0,-0.9732109904289246,-0.7401167750358582
-0.0358831398189067,1.119282364845276,-0.0121264699846506,-0.3318710625171661,-0.0895769447088241,-0.0252284463495016,0.0,0.0,-0.6847513318061829,-0.1265339851379394
-0.0360071174800396,1.1116666793823242,-0.0110901873558759,-0.338552176952362,-0.0908726081252098,-0.0259132385253906,0.0,0.0,-0.9813495874404908,-0.4502787590026855
-0.0361210815608501,1.103900671005249,-0.0100527023896574,-0.3452333509922027,-0.0922028198838234,-0.026604164391756,0.0,0.0,-0.9480654001235962,-0.0996306538581848
-0.0362249389290809,1.0959844589233398,-0.0090144192799925,-0.351914495229721,-0.0935678631067276,-0.0273006819188594,0.0,0.0,-0.8669378757476807,-0.4215878248214721
-0.0363187789916992,1.0879181623458862,-0.007975747808814,-0.3585956692695617,-0.0949679762125015,-0.0280023254454135,0.0,0.0,-0.8306024074554443,-0.5772315263748169
-0.0364508628845214,1.0797027349472046,-0.0129786906763911,-0.3651503324508667,-0.0951944589614868,-0.0045295590534806,0.0,0.0,-0.9224982261657716,-0.0821839570999145
-0.0365729331970214,1.0713367462158203,-0.0119404597207903,-0.3718313574790954,-0.0954564437270164,-0.0052400538697838,0.0,0.0,-0.9153321385383606,-0.4410485029220581
-0.0366848930716514,1.0628206729888916,-0.0109030911698937,-0.3785123825073242,-0.0957541763782501,-0.0059543210081756,0.0,0.0,-0.918361246585846,-0.2097785472869873
-0.0367870330810546,1.054154396057129,-0.0098670171573758,-0.3851934373378753,-0.0960877984762191,-0.0066720694303512,0.0,0.0,-0.9474353194236756,-0.1524924635887146
-0.0368790626525878,1.0453375577926636,-0.0088326791301369,-0.3918744921684265,-0.0964574366807937,-0.0073928199708461,0.0,0.0,-0.938868284225464,-0.1866477727890014
-0.0369611755013465,1.0363707542419434,-0.007800530642271,-0.3985555768013,-0.0968632400035858,-0.0081162545830011,0.0,0.0,-0.9247990846633912,-0.1221656799316406
-0.0370332710444927,1.0272536277770996,-0.006771036889404,-0.4052366316318512,-0.0973053574562072,-0.0088420268148183,0.0,0.0,-0.931799292564392,-0.5045139193534851
-0.0371387489140033,1.0179946422576904,-0.0111709143966436,-0.4114699065685272,-0.096685841679573,0.0123901506885886,0.0,0.0,-0.8736940622329712,-0.4204201698303222
-0.0372343063354492,1.0085854530334473,-0.0101481964811682,-0.4181509912014007,-0.0961028262972831,0.0116605730727314,0.0,0.0,-0.9775149822235109,-0.3234712481498718
-0.037320040166378,0.9990258812904358,-0.0091296294704079,-0.4248320460319519,-0.0955563560128212,0.0109295221045613,0.0,0.0,-0.9494985938072203,-0.1584889888763427
-0.0373960509896278,0.9893161654472352,-0.0081157516688108,-0.431513100862503,-0.0950464904308319,0.0101972948759794,0.0,0.0,-0.974473237991333,-0.3363058567047119
-0.037462331354618,0.979456067085266,-0.0071071283891797,-0.4381941556930542,-0.0945732817053794,0.0094641465693712,0.0,0.0,-0.9381421208381652,-0.3498145341873169
-0.0375189781188964,0.9694457650184632,-0.0061043458990752,-0.4448751807212829,-0.0941367745399475,0.0087302951142191,0.0,0.0,-0.9500513672828674,-0.405765950679779
-0.0375660881400108,0.9592851400375366,-0.0051080230623483,-0.4515562057495117,-0.0937369614839553,0.0079960897564888,0.0,0.0,-0.9845548272132874,-0.2451383471488952
-0.0376036651432514,0.948974311351776,-0.004118806682527,-0.4582372605800628,-0.0933738723397255,0.0072617293335497,0.0,0.0,-0.9652525782585144,-0.1668322086334228
-0.0376317016780376,0.9385132193565368,-0.0031373773235827,-0.464918315410614,-0.0930474922060966,0.0065275230444967,0.0,0.0,-0.9947576522827148,-0.4613494873046875
-0.0376503951847553,0.9279018640518188,-0.0021644530352205,-0.4715994000434875,-0.0927578210830688,0.005793628282845,0.0,0.0,-0.9753402471542358,-0.2719193696975708
-0.0376599319279193,0.917140245437622,-0.0012007892364636,-0.4782804548740387,-0.0925047919154167,0.0050603384152054,0.0,0.0,-0.9928727746009828,-0.4225536584854126
-0.0376602187752723,0.9062283039093018,-0.0002471835177857,-0.4849615097045898,-0.092288389801979,0.0043279221281409,0.0,0.0,-0.9832791686058044,-0.506939709186554
-0.0376853942871093,0.895176887512207,-0.0035752733238041,-0.4911085367202759,-0.0912382528185844,0.021002534776926,0.0,0.0,-0.950910747051239,-0.476783275604248
-0.0377015098929405,0.8839751482009888,-0.0026443682145327,-0.4977896809577942,-0.0902246311306953,0.0202725883573293,0.0,0.0,-0.9761307239532472,-0.09783536195755
-0.0377089492976665,0.8726231455802917,-0.00172619021032,-0.5044707655906677,-0.0892474129796028,0.0195442847907543,0.0,0.0,-0.990690290927887,0.0173476934432983
-0.0377076156437397,0.8611211180686951,-0.0008217297727242,-0.5111518502235413,-0.0883065238595008,0.018817888572812,0.0,0.0,-0.9774287343025208,-0.6156324148178101
-0.0377503409981727,0.8494802117347717,-0.0065364986658096,-0.5172442197799683,-0.0860647037625312,0.0448364876210689,0.0,0.0,-0.9256470799446106,-0.0082402229309082
-0.0377847664058208,0.8376891016960144,-0.0056627122685313,-0.5239256620407104,-0.0838589742779731,0.0441146306693553,0.0,0.0,-0.9640882015228271,-0.0168391466140747
-0.0378108993172645,0.8257477283477783,-0.0048059513792395,-0.5306071043014526,-0.081689178943634,0.0433956123888492,0.0,0.0,-0.9675840735435486,0.092529296875
-0.0378290191292762,0.813656210899353,-0.0039674369618296,-0.53728848695755,-0.0795552060008049,0.0426795855164527,0.0,0.0,-0.9598326086997986,-0.2091832756996154
-0.0378393158316612,0.8014143109321594,-0.0031484521459788,-0.5439698696136475,-0.0774569138884544,0.0419658944010734,0.0,0.0,-0.9415985345840454,0.3641684055328369
-0.0378418937325477,0.7890222072601318,-0.002350342227146,-0.5506512522697449,-0.0753940865397453,0.0412567444145679,0.0,0.0,-0.92902672290802,-0.1099988222122192
-0.0378372184932231,0.7764798998832703,-0.0015745142009109,-0.5573326349258423,-0.0733665227890014,0.0405516065657138,0.0,0.0,-0.9733006358146667,-0.4597008228302002
-0.0378252975642681,0.7637874484062195,-0.0008224346674978,-0.5640138983726501,-0.0713739916682243,0.0398507826030254,0.0,0.0,-0.8218567967414856,-0.1119527816772461
-0.0378064140677452,0.7509447336196899,-9.562903869664297e-05,-0.570695161819458,-0.0694162622094154,0.0391546487808227,0.0,0.0,-0.7364338636398315,-0.3432569503784179
-0.0377809517085552,0.7379518151283264,0.0006043231696821,-0.5773764252662659,-0.0674930810928344,0.0384635552763938,0.0,0.0,-0.9649670124053956,-0.0226101279258728
-0.0377491004765033,0.7248085737228394,0.0012757912045344,-0.5840576887130737,-0.0656041875481605,0.0377778820693492,0.0,0.0,-0.8716579079627991,-0.2322618961334228
-0.0377111434936523,0.7115151286125183,0.0019171010935679,-0.5907389521598816,-0.0637492761015892,0.0370980687439441,0.0,0.0,-0.9566959738731384,0.0240639448165893
-0.0376674644649028,0.6980714201927185,0.0025265417061746,-0.5974201560020447,-0.0619280450046062,0.0364244878292083,0.0,0.0,-0.8583157062530518,-0.7086357474327087
-0.0376669876277446,0.6844785809516907,-0.0029953147750347,-0.6040067076683044,-0.0589191727340221,0.0601776950061321,0.0,0.0,-0.9656110405921936,-0.1045225262641906
-0.0376614555716514,0.6707355380058289,-0.0024548904038965,-0.6106884479522705,-0.0559432841837406,0.0595177486538887,0.0,0.0,-0.9498024582862854,-0.6152995824813843
-0.0377101898193359,0.6568456888198853,-0.0093578780069947,-0.6171655654907227,-0.0515148118138313,0.0885696038603782,0.0,0.0,-0.9692776203155518,0.3996725082397461
-0.0377546325325965,0.6428057551383972,-0.0088935159146785,-0.6238481998443604,-0.0471185520291328,0.0879250466823577,0.0,0.0,-0.9826005697250366,0.6486105918884277
-0.0377417579293251,0.6286107897758484,-0.001762555912137,-0.6307948231697083,-0.0441005416214466,0.0603602416813373,0.0,0.0,-0.873956024646759,-0.0369636416435241
-0.0377253517508506,0.6142656207084656,-0.001380989793688,-0.6374765038490295,-0.0411138944327831,0.0597329959273338,0.0,0.0,-0.9196019768714904,0.3026655912399292
-0.0377058014273643,0.5997704267501831,-0.0010433142306283,-0.644158124923706,-0.0381581410765647,0.0591150633990764,0.0,0.0,-0.6545559167861938,0.0997240543365478
-0.0376837737858295,0.5851249098777771,-0.0007510661380365,-0.6508396863937378,-0.0352327898144722,0.0585068948566913,0.0,0.0,-0.8816141486167908,0.3669977188110351
