x_pos,y_pos,x_vel,y_vel,angle,ang_vel,leg_1,leg_2,main_booster,lat_booster
-0.001574134803377,1.4029126167297363,-0.1594986617565155,-0.3558953702449798,0.00186680292245,0.0368320383131504,0.0,0.0,-0.5082008990847395,0.9645197387718768
-0.0031164169777184,1.3942116498947144,-0.1540412604808807,-0.3867085576057434,0.0016761836595833,-0.0038119223900139,0.0,0.0,0.5555434060220805,0.6213766542163739
-0.004523754119873,1.385364651679993,-0.1396965980529785,-0.3931971192359924,0.0006496525020338,-0.0205324906855821,0.0,0.0,0.8952381481966942,-0.9576869040993587
-0.0062074661254882,1.3766618967056274,-0.1690302342176437,-0.3867892026901245,0.001295609283261,0.0129203479737043,0.0,0.0,0.261696713171027,-0.6939378353525657
-0.0078849792480468,1.3679962158203125,-0.1700293868780136,-0.3851391673088074,0.0035519583616405,0.0451314151287078,0.0,0.0,-0.8107998127001892,-0.8174309940346811
-0.0096601489931344,1.3586174249649048,-0.1811252236366272,-0.4168539941310882,0.007116783875972,0.0713032558560371,0.0,0.0,-0.8080983583014358,-0.7908586969527536
-0.0115472795441746,1.3485262393951416,-0.1940181702375412,-0.4485352337360382,0.0123639497905969,0.104952797293663,0.0,0.0,0.9889707529262484,0.7395166064789596
-0.0132381441071629,1.3388984203338623,-0.1734688133001327,-0.427949458360672,0.0166983734816312,0.0866961702704429,0.0,0.0,0.3322847494711296,-0.5718556568127269
-0.0150418281555175,1.3295754194259644,-0.1859243661165237,-0.4144221842288971,0.0221988856792449,0.1100200042128562,0.0,0.0,-0.2087049365836668,-0.5859774129290636
-0.0169366840273141,1.3195431232452393,-0.196277305483818,-0.4459964632987976,0.0289172548800706,0.1343797445297241,0.0,0.0,-0.5232303074928759,-0.9244833922882112
-0.0189379695802927,1.3087975978851318,-0.2085694074630737,-0.4777626991271972,0.0372608937323093,0.1668882817029953,0.0,0.0,0.4859151858972397,0.5787343180637051
-0.020885657519102,1.2980583906173706,-0.2022625505924224,-0.4775056540966034,0.0446773394942283,0.1483425796031952,0.0,0.0,-0.3084295764688449,-0.6365475065998604
-0.0229147914797067,1.286608338356018,-0.2114665955305099,-0.5091637372970581,0.053136870265007,0.1692062616348266,0.0,0.0,0.5257083590907718,0.8872097625337401
-0.0248605720698833,1.2749414443969729,-0.2015052735805511,-0.5187838077545166,0.0599879138171672,0.1370335519313812,0.0,0.0,0.8390764219173747,0.951887470309052
-0.0266526229679584,1.2639694213867188,-0.1845540702342987,-0.4878692626953125,0.0652962327003479,0.1061761230230331,0.0,0.0,0.9528137218139408,-0.748706103787522
-0.0284247398376464,1.252811074256897,-0.1844685226678848,-0.4962690472602844,0.0724825784564018,0.1437398344278335,0.0,0.0,0.4638549647513317,0.7353132663312424
-0.0300970077514648,1.2421046495437622,-0.173286572098732,-0.4761469066143036,0.0784914791584014,0.1201889887452125,0.0,0.0,0.8103122334902724,-0.6226942417162413
-0.0317193977534771,1.231309175491333,-0.1700360774993896,-0.4802199602127075,0.0862263664603233,0.1547120660543441,0.0,0.0,0.979498677386658,-0.7618422070368902
-0.0333946235477924,1.2212557792663574,-0.1771867126226425,-0.4473983943462372,0.0958183258771896,0.1918565183877945,0.0,0.0,0.236920840755944,-0.7603700969049689
-0.0352723114192485,1.2111055850982666,-0.1989118456840515,-0.4518702328205108,0.1068863496184349,0.2213802635669708,0.0,0.0,0.581945154659951,-0.6185726713047195
-0.0371768958866596,1.2013369798660278,-0.2031691819429397,-0.4351209104061126,0.1195341944694519,0.2529794573783874,0.0,0.0,0.2467320597571787,0.951436035215774
-0.0390676483511924,1.191365122795105,-0.1999011039733886,-0.4440925419330597,0.1303282529115677,0.2159002274274826,0.0,0.0,-0.625689759178536,-0.5846046531687658
-0.0410243049263954,1.180675029754639,-0.2074458301067352,-0.4761796295642853,0.142075315117836,0.2349621355533599,0.0,0.0,-0.9462428197399944,0.569206357530061
-0.0429596900939941,1.1692792177200315,-0.2040500193834304,-0.5075209736824036,0.1525888293981552,0.2102890014648437,0.0,0.0,0.2172716466175632,-0.8536192288651296
-0.045180607587099,1.1578353643417358,-0.2342489957809448,-0.5099015831947327,0.1647580862045288,0.243406742811203,0.0,0.0,-0.3727610392328946,0.5095869065265275
-0.0473953261971473,1.1456704139709473,-0.2328784018754959,-0.5419686436653137,0.1761811822652816,0.2284620553255081,0.0,0.0,0.255108904293003,0.7472434210969503
-0.0496703162789344,1.1336312294006348,-0.2374206334352493,-0.5362913608551025,0.186134472489357,0.199066087603569,0.0,0.0,0.7728715292732831,-0.6476057354182527
-0.0523320212960243,1.1221373081207275,-0.2770141661167145,-0.512243390083313,0.1970404237508773,0.2181190550327301,0.0,0.0,-0.8697500551057857,-0.7114647851455013
-0.0550831779837608,1.1099188327789309,-0.2876723706722259,-0.5447626709938049,0.2097024619579315,0.2532408833503723,0.0,0.0,-0.4474996886467817,0.7125608428152412
-0.0578008666634559,1.0970046520233154,-0.2829580307006836,-0.5755881667137146,0.2210016250610351,0.2259831875562667,0.0,0.0,-0.7218749776866917,-0.6838031108579888
-0.060589600354433,1.0833706855773926,-0.2913487553596496,-0.6078693270683289,0.2336444109678268,0.2528557777404785,0.0,0.0,-0.8717571496963501,0.9693502187728882
-0.0633298903703689,1.0690442323684692,-0.2848160862922668,-0.6384762525558472,0.2446017414331436,0.2191467583179474,0.0,0.0,-0.7495606541633606,0.9840264320373536
-0.0660224929451942,1.0540406703948977,-0.2783473134040832,-0.6683688759803772,0.2538457810878753,0.1848800182342529,0.0,0.0,-0.9495286345481871,0.9581069946289062
-0.0686626434326171,1.038343071937561,-0.2713883519172668,-0.6989689469337463,0.2613717317581177,0.1505195200443267,0.0,0.0,-0.6356167793273926,0.9552959203720092
-0.0712413787841796,1.021965742111206,-0.2632880806922912,-0.7288522124290466,0.2669138014316559,0.1108413711190223,0.0,0.0,-0.7722812294960022,0.9887235164642334
-0.0737553611397743,1.004915714263916,-0.2547971606254577,-0.7584007382392883,0.2703866362571716,0.0694570168852806,0.0,0.0,-0.7447160482406616,0.9972039461135864
-0.0762061104178428,0.9871791005134584,-0.2465774118900299,-0.7885763049125671,0.2719294726848602,0.0308559425175189,0.0,0.0,-0.4538086056709289,0.999696969985962
-0.0785862952470779,0.9687715768814088,-0.2374071627855301,-0.8179990649223328,0.2713058292865753,-0.0124728735536336,0.0,0.0,0.440895676612854,0.999963641166687
-0.0811348930001258,0.9507406949996948,-0.25223109126091,-0.800892174243927,0.2686111330986023,-0.0538941100239753,0.0,0.0,0.4553630352020263,0.999811053276062
-0.0837284103035926,0.932816207408905,-0.2547464072704315,-0.7958031892776489,0.2638994753360748,-0.0942333713173866,0.0,0.0,0.584716796875,0.9997466802597046
-0.0865593925118446,0.9152551293373108,-0.2763745188713074,-0.7792962193489075,0.2570281326770782,-0.1374271214008331,0.0,0.0,-0.2966581583023071,0.9996891021728516
-0.0893017798662185,0.8970169425010681,-0.265104591846466,-0.809012234210968,0.2477068901062011,-0.1864245235919952,0.0,0.0,0.1394314765930175,0.9998208284378052
-0.0919443145394325,0.8784303069114685,-0.2530718445777893,-0.8242300152778625,0.2363415956497192,-0.2273061573505401,0.0,0.0,0.0146857500076293,0.9996646642684937
-0.0945154204964637,0.8596588969230652,-0.2438439428806305,-0.832216203212738,0.2228907197713852,-0.269017219543457,0.0,0.0,-0.0626429319381713,0.9999233484268188
-0.0970133766531944,0.8401907682418823,-0.2346218526363372,-0.8630229234695435,0.2075488716363906,-0.3068371713161468,0.0,0.0,0.7858572006225586,0.9998776912689208
-0.0994522124528884,0.8205763101577759,-0.2267070710659027,-0.8694466352462769,0.1902561038732528,-0.3458558022975921,0.0,0.0,0.3198983669281006,0.9908809661865234
-0.1018238067626953,0.8008127808570862,-0.2179534435272216,-0.8760263323783875,0.1709759682416916,-0.3856026530265808,0.0,0.0,-0.3997471332550049,0.9824554920196532
-0.1041321754455566,0.7803687453269958,-0.2099190056324005,-0.906337320804596,0.1500606834888458,-0.4183059334754944,0.0,0.0,0.410353422164917,0.9585368633270264
-0.1065921783447265,0.7602134346961975,-0.2229661643505096,-0.8936307430267334,0.1270928829908371,-0.4593563675880432,0.0,0.0,0.6436283588409424,0.9721494913101196
-0.1090593338012695,0.7401140332221985,-0.221588522195816,-0.8913610577583313,0.1021253541111946,-0.4993506371974945,0.0,0.0,0.5705270767211914,0.6332780122756958
-0.1113793402910232,0.7201513648033142,-0.2058440744876861,-0.8856498599052429,0.0761933922767639,-0.5186395049095154,0.0,0.0,0.9148390293121338,-0.3298711776733398
-0.113825038075447,0.7007550597190857,-0.2180061340332031,-0.8609143495559692,0.0499198138713836,-0.5254718065261841,0.0,0.0,0.655482292175293,0.0921320915222168
-0.1161767989397049,0.68133145570755,-0.2090528905391693,-0.8626066446304321,0.0241188239306211,-0.5160199403762817,0.0,0.0,0.9601600170135498,-0.6767702698707581
-0.1185933127999305,0.6626278162002563,-0.2168527096509933,-0.8310539722442627,-0.0003617308393586,-0.4896112978458404,0.0,0.0,0.2359986305236816,-0.6656904220581055
-0.1209296211600303,0.6437643766403198,-0.2103200405836105,-0.8385428190231323,-0.0233670156449079,-0.4601060748100281,0.0,0.0,0.4201970100402832,-0.0471242666244506
-0.1233296394348144,0.6248063445091248,-0.2162796705961227,-0.8431127667427063,-0.0467898659408092,-0.4684573709964752,0.0,0.0,0.9445867538452148,0.6387503147125244
-0.125506967306137,0.6065436005592346,-0.1930450201034546,-0.8126292824745178,-0.0712078511714935,-0.4883597791194916,0.0,0.0,0.2908525466918945,-0.9161261916160583
-0.1275848448276519,0.5883628726005554,-0.1850164830684662,-0.8092710971832275,-0.093759186565876,-0.4510266184806824,0.0,0.0,-0.5952661037445068,-0.8884419798851013
-0.1297130584716797,0.5694941878318787,-0.1916176378726959,-0.8400698900222778,-0.1147963628172874,-0.4207437038421631,0.0,0.0,0.9893016815185548,-0.7996012568473816
-0.1318834275007248,0.5513638854026794,-0.1972310096025467,-0.8074303269386292,-0.1344983279705047,-0.3940394222736358,0.0,0.0,0.9358601570129396,-0.9561482071876526
-0.1339946687221527,0.5331650376319885,-0.1933475881814956,-0.8105408549308777,-0.152220219373703,-0.3544379472732544,0.0,0.0,0.977285385131836,-0.903292179107666
-0.1361679136753082,0.5155534744262695,-0.2011239528656005,-0.7844730615615845,-0.1684285402297973,-0.324166476726532,0.0,0.0,0.9482502937316896,-0.9944271445274352
-0.138146311044693,0.4981114864349365,-0.1838797777891159,-0.7768405675888062,-0.1824235171079635,-0.2798994183540344,0.0,0.0,0.964270830154419,-0.9728146195411682
-0.1400264799594879,0.4810487627983093,-0.1760433912277221,-0.7598608732223511,-0.1944557577371597,-0.2406446188688278,0.0,0.0,0.9906749725341796,-0.9932939410209656
-0.1418702155351638,0.4639990627765655,-0.1743841022253036,-0.7591065168380737,-0.2045235931873321,-0.2013568133115768,0.0,0.0,0.9613749980926514,-0.9419990181922911
-0.1437927186489105,0.4473418295383453,-0.1838083863258361,-0.7415104508399963,-0.2130310088396072,-0.1701481491327285,0.0,0.0,0.9497474431991576,-0.7152836918830872
-0.145518496632576,0.431471586227417,-0.1656184792518615,-0.7063640356063843,-0.2200703620910644,-0.1407874375581741,0.0,0.0,0.9716609716415404,-0.9754091501235962
-0.1471293419599533,0.4153792858123779,-0.1561991572380066,-0.7159530520439148,-0.2250124514102935,-0.0988417267799377,0.0,0.0,0.9897420406341552,-0.9671670198440552
-0.1485388725996017,0.4001029729843139,-0.1380261480808258,-0.6793972849845886,-0.2279772460460662,-0.0592954754829406,0.0,0.0,0.995234489440918,-0.8384717106819153
-0.1499960869550705,0.385011076927185,-0.1441539227962494,-0.6709932088851929,-0.2295596599578857,-0.0316478535532951,0.0,0.0,0.9921151399612428,-0.7228719592094421
-0.1514303237199783,0.3704630732536316,-0.1429771780967712,-0.6466481685638428,-0.230015218257904,-0.009111313149333,0.0,0.0,0.9977915287017822,-0.4685897827148437
-0.1526490151882171,0.3562896251678467,-0.1215412393212318,-0.6299821734428406,-0.2303412705659866,-0.0065209777094423,0.0,0.0,0.9967420101165771,-0.6853563189506531
-0.1538416892290115,0.3429781496524811,-0.1198571175336837,-0.5915297865867615,-0.2297462522983551,0.0119002368301153,0.0,0.0,0.9036176204681396,0.1395847797393798
-0.1547941267490387,0.3298977017402649,-0.0961667448282241,-0.5812065005302429,-0.228801429271698,0.0188964866101741,0.0,0.0,0.9074959754943848,-0.1775816082954406
-0.1556763648986816,0.3167783319950104,-0.0889435559511184,-0.5829716920852661,-0.2280779778957367,0.0144692910835146,0.0,0.0,0.997138261795044,-0.7820721864700317
-0.1564397811889648,0.3035039901733398,-0.0787593871355056,-0.5895984172821045,-0.2256234735250473,0.0490897856652736,0.0,0.0,0.9949111938476562,-0.425947904586792
-0.1571449339389801,0.2901298403739929,-0.0727304145693779,-0.5940696597099304,-0.2233856916427612,0.0447558239102363,0.0,0.0,0.9954203367233276,-0.2913971543312073
-0.1576451361179351,0.2774486541748047,-0.0521468892693519,-0.5632920861244202,-0.2212342768907547,0.0430283322930336,0.0,0.0,0.9779683351516724,-0.5502971410751343
-0.1578719168901443,0.2654711008071899,-0.0261625200510025,-0.5318177342414856,-0.2177134603261947,0.0704163163900375,0.0,0.0,0.9555009603500366,-0.023858368396759
-0.1580191552639007,0.2542416751384735,-0.017562860623002,-0.4986684620380401,-0.2148451656103134,0.0573660023510456,0.0,0.0,0.960658311843872,-0.4273140430450439
-0.158233642578125,0.2429255992174148,-0.0235465914011001,-0.5026301741600037,-0.2127243727445602,0.0424157604575157,0.0,0.0,0.9332058429718018,-0.4406342506408691
-0.1582090407609939,0.2322390377521515,0.0001811904076021,-0.4746327102184295,-0.2104218006134033,0.0460514090955257,0.0,0.0,0.9024055004119872,-0.663245677947998
-0.1582237184047699,0.22186841070652,-0.0047214278019964,-0.4604547619819641,-0.2071359455585479,0.0657171159982681,0.0,0.0,0.7800467014312744,-0.1418161988258361
-0.1581511497497558,0.2118763476610183,0.0042980234138667,-0.443682312965393,-0.2041579335927963,0.0595602393150329,0.0,0.0,0.9392778873443604,0.4710602760314941
-0.1579326689243316,0.2023824006319046,0.0189832113683223,-0.4215625822544098,-0.2012785226106643,0.0575886294245719,0.0,0.0,0.6137487888336182,-0.1727305650711059
-0.1575256288051605,0.1929863095283508,0.0374906212091445,-0.4171685576438904,-0.1980376988649368,0.0648162811994552,0.0,0.0,0.5172057151794434,-0.457599401473999
-0.1570453643798828,0.1833343654870987,0.0447325333952903,-0.4285385310649872,-0.1947276443243026,0.0662010461091995,0.0,0.0,0.9058666229248048,-0.3154789805412292
-0.1563820838928222,0.173623189330101,0.0625772699713707,-0.4311189353466034,-0.1909529566764831,0.075494036078453,0.0,0.0,0.9576761722564696,-0.0930893421173095
-0.1554327011108398,0.1641472727060318,0.0904057770967483,-0.4205761849880218,-0.1864010840654373,0.0910376757383346,0.0,0.0,0.7723164558410645,-0.8545499444007874
-0.1543252021074295,0.1545498967170715,0.1042488366365432,-0.4257465898990631,-0.1798719316720962,0.1305826753377914,0.0,0.0,0.7071233987808228,-0.1833207607269287
-0.1531017273664474,0.1453883200883865,0.1158842220902443,-0.4064111411571502,-0.173396497964859,0.1295086443424224,0.0,0.0,0.8008272647857666,-0.2936259508132934
-0.1517216712236404,0.13672836124897,0.131418690085411,-0.3841334879398346,-0.1667903512716293,0.1321229040622711,0.0,0.0,0.7831833362579346,-0.4054766893386841
-0.1501105278730392,0.1283885538578033,0.1539101898670196,-0.3698663413524627,-0.1595864444971084,0.1440785229206085,0.0,0.0,0.2606782913208008,-0.3642570972442627
-0.148406982421875,0.1196881830692291,0.1628109067678451,-0.3858962953090668,-0.1520490795373916,0.1507474184036255,0.0,0.0,0.8280308246612549,-0.8815739750862122
-0.1467758119106292,0.1111400201916694,0.1539289951324463,-0.3790045380592346,-0.142885535955429,0.1832710653543472,0.0,0.0,0.7516282796859741,-0.1201211214065551
-0.1449527740478515,0.1032200679183006,0.1727084219455719,-0.3511059582233429,-0.1333266794681549,0.191177487373352,0.0,0.0,0.5732712745666504,-0.8007879853248596
-0.143174260854721,0.0954125523567199,0.1667011827230453,-0.3460393846035003,-0.122227057814598,0.2219925373792648,0.0,0.0,0.5409951210021973,-0.286724328994751
-0.1414518356323242,0.0880205929279327,0.1616294085979461,-0.3276968896389007,-0.1116809770464897,0.2109216153621673,0.0,0.0,0.7212314605712891,0.2591763734817505
-0.139591783285141,0.0809867680072784,0.1749684810638427,-0.3118249475955963,-0.100730687379837,0.2190059423446655,0.0,0.0,0.0132999420166015,-0.0284715294837951
-0.1377539634704589,0.0739342793822288,0.1729117929935455,-0.3127466142177582,-0.089945875108242,0.2156963795423507,0.0,0.0,0.692164421081543,-0.0240647196769714
-0.1359694451093673,0.0673285350203514,0.1679706573486328,-0.2929937243461609,-0.0795650333166122,0.2076168805360794,0.0,0.0,0.4042012691497803,-0.1478762626647949
-0.1342124938964843,0.0606475435197353,0.1653210818767547,-0.2964124381542206,-0.0692924559116363,0.2054515331983566,0.0,0.0,0.7974812984466553,0.0178453922271728
-0.132579043507576,0.0542482249438762,0.1535610109567642,-0.2839902341365814,-0.0596158728003501,0.1935316920280456,0.0,0.0,0.7460777759552002,0.4194464683532715
-0.1311158239841461,0.0479811541736125,0.137289211153984,-0.278202623128891,-0.0506821610033512,0.1786742806434631,0.0,0.0,0.8341764211654663,0.7429043054580688
-0.1294720619916916,0.0421883687376976,0.1565503776073455,-0.2572109997272491,-0.0429479628801345,0.1546838581562042,0.0,0.0,0.7972853183746338,0.5179009437561035
-0.1277481019496917,0.0362741313874721,0.1654087007045745,-0.2626696527004242,-0.0360453613102436,0.1380520761013031,0.0,0.0,0.9293183088302612,0.2623323202133178
-0.1258735656738281,0.0309750884771347,0.1796745061874389,-0.2353488504886627,-0.0283619724214077,0.1536675542593002,0.0,0.0,0.901941180229187,0.5816593170166016
-0.1240086555480957,0.0263081882148981,0.1799723356962204,-0.2073063105344772,-0.0219140313565731,0.1289586871862411,0.0,0.0,0.8109686374664307,-0.4468035697937011
-0.1220216751098632,0.0223295781761407,0.1914319545030594,-0.176742285490036,-0.0147422961890697,0.1434347927570343,0.0,0.0,0.5998170375823975,-0.8233181834220886
-0.1200664490461349,0.0184812881052494,0.1864590793848037,-0.1709725707769394,-0.0057970448397099,0.178905040025711,0.0,0.0,0.6424803733825684,-0.4738439321517944
-0.1181727424263954,0.0151396850124001,0.1803437620401382,-0.1485071927309036,0.0031185287516564,0.1783113777637481,0.0,0.0,0.730424165725708,-0.450721263885498
-0.1162789314985275,0.0123249385505914,0.1800430119037628,-0.125152051448822,0.0123329060152173,0.1842877566814422,0.0,0.0,-0.0214726328849792,-0.83795565366745
-0.1145054847002029,0.008794043213129,0.1665442138910293,-0.1570474356412887,0.0229973942041397,0.2132896929979324,0.0,0.0,0.639123797416687,0.1162906885147094
-0.112932302057743,0.0054684258066117,0.1470878273248672,-0.1479923874139785,0.0331085249781608,0.2022224366664886,0.0,0.0,0.8293397426605225,0.8397946357727051
-0.1115342155098915,0.0022798157297074,0.1315575540065765,-0.1419188827276229,0.0412574373185634,0.1629781424999237,0.0,1.0,0.2526204586029053,0.8739519119262695
-0.1101540550589561,-0.0005775594618171,0.1417761147022247,-0.1270566284656524,0.0369244068861007,-0.0874480456113815,0.0,0.0,0.5453019142150879,0.5263135433197021
-0.1089535728096962,-0.0029591463971883,0.140176236629486,-0.1054731607437133,0.0170270912349224,-0.3979648947715759,0.0,0.0,-0.3881199359893799,-0.6521605849266052
-0.107972428202629,-0.0049436595290899,0.1153329387307167,-0.0880993157625198,5.699685516447062e-06,-0.3404514193534851,1.0,0.0,-0.4446501731872558,-0.6373056173324585
-0.1071327179670333,-0.0065146470442414,0.0996812283992767,-0.0699008405208587,-0.0155089981853961,-0.3103113770484924,1.0,0.0,-0.576489269733429,-0.6038283109664917
-0.1064415946602821,-0.0076691415160894,0.0836167484521865,-0.0515293218195438,-0.0298319309949874,-0.2864704728126526,1.0,0.0,-0.4456505179405212,-0.4788768291473388
-0.1058446913957595,-0.0084441564977169,0.0734259709715843,-0.034780815243721,-0.0434050597250461,-0.2714697122573852,1.0,0.0,-0.6385090351104736,-0.461223304271698
