x_pos,y_pos,x_vel,y_vel,angle,ang_vel,leg_1,leg_2,main_booster,lat_booster
-0.001565647078678,1.4032349586486816,-0.1592161655426025,-0.3415634930133819,0.0023750353138893,0.0468957051634788,0.0,0.0,-0.7047626972198486,0.4988093376159668
-0.0031744004227221,1.3951834440231323,-0.1637748181819915,-0.3578490614891052,0.0052475361153483,0.0574559271335601,0.0,0.0,0.2664365768432617,0.8609514236450195
-0.0046430588699877,1.3872017860412598,-0.1487194150686264,-0.354748785495758,0.0070692980661988,0.0364390388131141,0.0,0.0,-0.5253621339797974,0.800462007522583
-0.006105232052505,1.3788284063339231,-0.1473070979118347,-0.3721556663513183,0.0081387255340814,0.0213905312120914,0.0,0.0,-0.3053483963012695,0.8182249069213867
-0.0075340270996093,1.3700690269470217,-0.1424721330404281,-0.3893003463745117,0.0077409204095602,-0.0079566957429051,0.0,0.0,0.608773946762085,0.886620044708252
-0.0087925912812352,1.3617148399353027,-0.1244100928306579,-0.3712933957576751,0.0063040512613952,-0.0287400335073471,0.0,0.0,0.0150585174560546,0.7081234455108643
-0.0100592616945505,1.3535035848617554,-0.1242382749915123,-0.3649371862411499,0.0039028064347803,-0.0480293482542037,0.0,0.0,-0.0989546179771423,0.6009403467178345
-0.0113129615783691,1.344904899597168,-0.1218711584806442,-0.3821547925472259,0.0004432625428307,-0.0691971033811569,0.0,0.0,-0.1701987981796264,0.4076569080352783
-0.0126131055876612,1.3359168767929075,-0.1269263178110122,-0.3994664549827575,-0.0026173046790063,-0.0612169578671455,0.0,0.0,0.3131157159805298,0.8228628635406494
-0.0138946529477834,1.3274104595184326,-0.1237872987985611,-0.3780771493911743,-0.0069395117461681,-0.0864519923925399,0.0,0.0,0.2388736009597778,0.2717255353927612
-0.0151558872312307,1.3191826343536377,-0.1224086657166481,-0.3657098710536957,-0.0106150349602103,-0.0735169649124145,0.0,0.0,-0.5725349187850952,0.1927157640457153
-0.0164649002254009,1.3105651140213013,-0.1275099664926529,-0.3830256760120392,-0.0139837265014648,-0.0673794373869896,0.0,0.0,-0.4820365905761719,0.7299907207489014
-0.0177523605525493,1.3015607595443726,-0.1238383054733276,-0.4002527296543121,-0.0188379567116498,-0.0970935001969337,0.0,0.0,-0.3656408786773681,0.4457142353057861
-0.0190885551273822,1.292166829109192,-0.1289512515068054,-0.4175673127174377,-0.02345179207623,-0.0922851711511612,0.0,0.0,-0.0924438834190368,0.6915497779846191
-0.0204064361751079,1.2823885679244995,-0.1256147176027298,-0.4346960186958313,-0.0295543950051069,-0.1220632642507553,0.0,0.0,-0.2604266405105591,0.1890431642532348
-0.0217737201601266,1.272221326828003,-0.1307285577058792,-0.4520119428634643,-0.0354889966547489,-0.1187027692794799,0.0,0.0,0.0292588472366333,0.4800931215286255
-0.0230861660093069,1.2624591588974,-0.1257767975330352,-0.4340148568153381,-0.0408911667764186,-0.1080531924962997,0.0,0.0,-0.5683495402336121,0.1301949024200439
-0.0244486816227436,1.2523075342178345,-0.1308873742818832,-0.4513366818428039,-0.0462021492421627,-0.1062292233109474,0.0,0.0,0.4120895862579345,0.9656786918640136
-0.0256583206355571,1.2427923679351809,-0.1137917786836624,-0.4231388866901397,-0.0532974898815155,-0.1419197469949722,0.0,0.0,-0.6231129765510559,-0.2484251260757446
-0.0269186981022357,1.232887864112854,-0.1188809722661972,-0.4404649436473846,-0.0603774897754192,-0.1416129320859909,0.0,0.0,-0.787010133266449,-0.261589765548706
-0.0282300002872943,1.2225946187973022,-0.1239577904343605,-0.4577798247337341,-0.067481592297554,-0.1420948803424835,0.0,0.0,-0.746459424495697,0.1763076782226562
-0.0295925140380859,1.211912751197815,-0.129020556807518,-0.4750983119010925,-0.0746476203203201,-0.1433335393667221,0.0,0.0,-0.5906192064285278,0.5961408615112305
-0.0309494026005268,1.2008347511291504,-0.1269014924764633,-0.4928114712238312,-0.0833555236458778,-0.1741736829280853,0.0,0.0,-0.8621071577072144,0.2992967367172241
-0.0323577895760536,1.1893682479858398,-0.1319234669208526,-0.5101335048675537,-0.0921988636255264,-0.1768829226493835,0.0,0.0,0.1524509191513061,-0.7610036730766296
-0.0339490883052349,1.1782100200653076,-0.1514766961336136,-0.4964085519313812,-0.0997989401221275,-0.1520150899887085,0.0,0.0,0.8273566961288452,-0.5208421945571899
-0.0357272140681743,1.1678388118743896,-0.1705009639263153,-0.4614533483982086,-0.1070617586374282,-0.1452560722827911,0.0,0.0,0.1873376369476318,0.9302672147750854
-0.0374249443411827,1.1578514575958252,-0.1603513658046722,-0.4445896446704864,-0.1164187416434288,-0.1871397644281387,0.0,0.0,-0.8188904523849487,0.895437479019165
-0.0391189567744731,1.1474757194519043,-0.1583119332790374,-0.4620395302772522,-0.1274453252553939,-0.2205317318439483,0.0,0.0,-0.0936903357505798,0.6221141815185547
-0.0408263206481933,1.1367107629776,-0.1583864986896515,-0.4795477092266083,-0.1397479772567749,-0.2460530549287796,0.0,0.0,0.0698051452636718,0.6383085250854492
-0.0425071716308593,1.1260184049606323,-0.1541212797164917,-0.4765862226486206,-0.1536807864904403,-0.2786562740802765,0.0,0.0,-0.7795010805130005,-0.0132959485054016
-0.0442399010062217,1.11493980884552,-0.1589735001325607,-0.4939182698726654,-0.1679761260747909,-0.2859067022800445,0.0,0.0,-0.0079872608184814,-0.3515974879264831
-0.0460244193673133,1.1034753322601318,-0.1637891083955764,-0.5112519264221191,-0.1826602667570114,-0.2936831712722778,0.0,0.0,0.4027615785598755,-0.512630045413971
-0.0478502288460731,1.092665433883667,-0.1684061586856842,-0.4822467863559723,-0.1969100087881088,-0.2849951386451721,0.0,0.0,-0.6832998394966125,-0.6417468786239624
-0.0497832298278808,1.0814803838729858,-0.1801289170980453,-0.4989169239997864,-0.2101750969886779,-0.2653018534183502,0.0,0.0,-0.5352100133895874,-0.5733737945556641
-0.0518100745975971,1.0699243545532229,-0.190221831202507,-0.5154281258583069,-0.2227756530046463,-0.2520110011100769,0.0,0.0,0.6880977153778076,-0.3529770374298095
-0.0536988265812397,1.0591065883636477,-0.176061600446701,-0.4827752411365509,-0.2357690185308456,-0.2598669826984405,0.0,0.0,-0.978514552116394,-0.6792423725128174
-0.0556930527091026,1.0479190349578855,-0.1875564754009246,-0.4991640448570251,-0.2478327304124832,-0.2412743121385574,0.0,0.0,-0.0684836506843566,-0.2861412763595581
-0.0577373504638671,1.0363457202911377,-0.192099392414093,-0.5164977312088013,-0.2604112327098846,-0.2515702843666076,0.0,0.0,0.0475928783416748,-0.5871722102165222
-0.0597643852233886,1.025196194648743,-0.1910216957330703,-0.4976608157157898,-0.2723645567893982,-0.2390662431716919,0.0,0.0,-0.9853725433349608,-0.6085796356201172
-0.0618845932185649,1.0136798620224,-0.200989693403244,-0.5139294862747192,-0.2836875021457672,-0.2264591008424759,0.0,0.0,-0.7709813714027405,-0.4459127187728882
-0.0640536323189735,1.0017777681350708,-0.2053624093532562,-0.5312642455101013,-0.2955700159072876,-0.2376506328582763,0.0,0.0,-0.8117963075637817,-0.5769779086112976
-0.0663057342171669,0.9895046949386596,-0.2140586823225021,-0.5477713346481323,-0.307093471288681,-0.2304695546627044,0.0,0.0,-0.91612708568573,-0.6729568243026733
-0.0686493888497352,0.9768592715263368,-0.2237993776798248,-0.5642935037612915,-0.3180592954158783,-0.2193165272474289,0.0,0.0,-0.6428860425949097,-0.7473817467689514
-0.0710872635245323,0.9638499021530152,-0.2339005023241043,-0.5804017782211304,-0.3283483386039734,-0.2057807445526123,0.0,0.0,0.9332181215286256,-0.2107968926429748
-0.0735054984688758,0.950967252254486,-0.2311865091323852,-0.5750178098678589,-0.3394621610641479,-0.2222770899534225,0.0,0.0,0.6291415691375732,-0.7665756344795227
-0.075871467590332,0.9381632208824158,-0.226986214518547,-0.5713675618171692,-0.349539965391159,-0.2015561163425445,0.0,0.0,0.4877310991287231,-0.6141093969345093
-0.0781348198652267,0.925531804561615,-0.2174739837646484,-0.5635833144187927,-0.3588585555553436,-0.1863714754581451,0.0,0.0,0.6646510362625122,-0.851535975933075
-0.0803257003426551,0.9138044714927672,-0.2111444473266601,-0.523222804069519,-0.3672455251216888,-0.1677393168210983,0.0,0.0,-0.5261811017990112,-0.9639977812767028
-0.0826445594429969,0.901749074459076,-0.2256542891263961,-0.5374072194099426,-0.3738405406475067,-0.1319004744291305,0.0,0.0,0.5137314796447754,-0.8900915384292603
-0.0849223136901855,0.8900063037872314,-0.2226578444242477,-0.5232466459274292,-0.3792756795883178,-0.1087030321359634,0.0,0.0,0.6278663873672485,-0.8785118460655212
-0.0869516357779502,0.8786119818687439,-0.1991247981786728,-0.507429301738739,-0.3833284676074981,-0.0810556337237358,0.0,0.0,0.0132961273193359,-0.937185764312744
-0.0889594107866287,0.8675311207771301,-0.1981973350048065,-0.4931850135326385,-0.3860751688480377,-0.0549339577555656,0.0,0.0,0.672762393951416,-0.8478051424026489
-0.0907874107360839,0.8566533923149109,-0.181430846452713,-0.4838305413722992,-0.3875451982021332,-0.0294007752090692,0.0,0.0,0.9361956119537354,-0.9763965606689452
-0.0923667922616005,0.8467370867729187,-0.1578374803066253,-0.4407501220703125,-0.3876480758190155,-0.00205720635131,0.0,0.0,0.4346318244934082,-0.8985657095909119
-0.0937551483511924,0.8369761109352112,-0.1399846225976944,-0.4335054755210876,-0.3864313662052154,0.0243350435048341,0.0,0.0,0.7293020486831665,-0.9030492901802064
-0.0951654464006424,0.8276137113571167,-0.1431239992380142,-0.4155405163764953,-0.3841976821422577,0.0446735844016075,0.0,0.0,0.6926109790802002,-0.8440629243850708
-0.0962671265006065,0.8189851641654968,-0.1134433001279831,-0.3826130926609039,-0.3807176649570465,0.0696004033088684,0.0,0.0,0.327433705329895,-0.8205801248550415
-0.0971457511186599,0.8106943368911743,-0.0922148674726486,-0.367330938577652,-0.3760983049869537,0.0923870950937271,0.0,0.0,-0.2288744449615478,-0.8300136923789978
-0.0981103926897049,0.8020569086074829,-0.1015922278165817,-0.3825420439243316,-0.3706557154655456,0.1088520064949989,0.0,0.0,0.6477874517440796,-0.823091447353363
-0.0989618301391601,0.7942168116569519,-0.091127835214138,-0.3469058573246002,-0.3643357753753662,0.1263994574546814,0.0,0.0,0.2014851570129394,-0.4162290096282959
-0.0997156128287315,0.7863488793373108,-0.0808727517724037,-0.3483090400695801,-0.3585339784622192,0.1160352602601051,0.0,0.0,0.0148476362228393,-0.4795082807540893
-0.1004077941179275,0.778732419013977,-0.0738009959459304,-0.3373726010322571,-0.3537101745605469,0.096476063132286,0.0,0.0,-0.5761551856994629,-0.4906098246574402
-0.1011310592293739,0.7707299590110779,-0.0762446671724319,-0.3547058999538421,-0.3495817482471466,0.0825681611895561,0.0,0.0,0.5178735256195068,-0.7700408101081848
-0.101725198328495,0.7631548643112183,-0.064234122633934,-0.3355119824409485,-0.3445326685905456,0.1009819060564041,0.0,0.0,-0.426593542098999,-0.7330092787742615
-0.1024030670523643,0.7552174925804138,-0.0733506307005882,-0.3514534831047058,-0.3387075066566467,0.1165031343698501,0.0,0.0,-0.4857767820358276,-0.7184723615646362
-0.1031728759407997,0.7469285726547241,-0.0835799127817154,-0.3668634593486786,-0.3318109512329101,0.1379313617944717,0.0,0.0,-0.8860573768615723,0.0787824392318725
-0.1039694771170616,0.7382537722587585,-0.0855927541851997,-0.3841977119445801,-0.3256179392337799,0.1238604560494422,0.0,0.0,-0.9287105202674866,-0.4121317267417907
-0.1047917380928993,0.7291929125785828,-0.087497241795063,-0.401530921459198,-0.3201301395893097,0.1097559183835983,0.0,0.0,-0.7209997177124023,-0.7500297427177429
-0.1056902855634689,0.7197807431221008,-0.0958688408136367,-0.4170036911964416,-0.3138779699802398,0.1250433772802353,0.0,0.0,-0.8557245135307312,-0.5633803009986877
-0.1066616997122764,0.7100039124488831,-0.1037654280662536,-0.433108240365982,-0.3070086240768432,0.1373866498470306,0.0,0.0,-0.9877034425735474,-0.5724741816520691
-0.1077046394348144,0.6998668909072876,-0.1115506440401077,-0.4490193128585815,-0.2995027601718902,0.1501176059246063,0.0,0.0,-0.5222882628440857,-0.0947591662406921
-0.1087691336870193,0.6893437504768372,-0.1130307465791702,-0.4663526713848114,-0.2927076816558838,0.1359013468027115,0.0,0.0,-0.45683753490448,-0.0386208295822143
-0.1098540276288986,0.6784343719482422,-0.1144070252776146,-0.4836848974227905,-0.286624550819397,0.1216628924012184,0.0,0.0,-0.7507854700088501,-0.4630318880081177
-0.1109586730599403,0.6671387553215027,-0.1156810894608497,-0.5010160207748413,-0.2812543511390686,0.1074042469263076,0.0,0.0,-0.5252261757850647,-0.8382747173309326
-0.1121500954031944,0.655479371547699,-0.1254237592220306,-0.516998827457428,-0.2748082280158996,0.1289232224225998,0.0,0.0,-0.5736700296401978,-0.4964216351509094
-0.1133591681718826,0.6434335112571716,-0.1264998018741607,-0.5343296527862549,-0.2690767347812652,0.1146300435066223,0.0,0.0,-0.7826207280158997,-0.630289614200592
-0.114636518061161,0.6310160756111145,-0.1339431256055832,-0.5507612228393555,-0.2627226412296295,0.1270814090967178,0.0,0.0,-0.3785158395767212,-0.2324302196502685
-0.1159296035766601,0.6182119846343994,-0.1348295658826828,-0.5680914521217346,-0.2570845484733581,0.1127619966864585,0.0,0.0,-0.4530248641967773,-0.5325537323951721
-0.1172718033194542,0.6050403714179993,-0.1399712860584259,-0.5844144821166992,-0.2512243092060089,0.1172055825591087,0.0,0.0,-0.3784494400024414,0.2992075681686401
-0.1186281219124794,0.5914818644523621,-0.140678122639656,-0.6017435193061829,-0.2460808902978897,0.1028683185577392,0.0,0.0,-0.2047931551933288,-0.3848098516464233
-0.119997501373291,0.5775365233421326,-0.1412991732358932,-0.6190716624259949,-0.241654634475708,0.0885254293680191,0.0,0.0,0.1649081707000732,-0.7889623045921326
-0.1212736144661903,0.5640335083007812,-0.1328524947166443,-0.5992828011512756,-0.2363223433494568,0.1066454276442527,0.0,0.0,-0.4169981479644775,-0.5480151772499084
-0.1226103752851486,0.5501613020896912,-0.1394949853420257,-0.6156198978424072,-0.2304159700870514,0.1181277632713317,0.0,0.0,0.3142781257629394,-0.2863266468048095
-0.1238772422075271,0.5367045402526855,-0.1316086798906326,-0.5973180532455444,-0.2254287004470825,0.0997451990842819,0.0,0.0,0.6580495834350586,0.5493998527526855
-0.1249671950936317,0.5238790512084961,-0.1120903864502906,-0.5695492029190063,-0.2222970426082611,0.0626332908868789,0.0,0.0,-0.4275458455085754,0.0501400232315063
-0.1260666847229004,0.5106663703918457,-0.1123309507966041,-0.5868745446205139,-0.2198822349309921,0.04829603433609,0.0,0.0,0.5763235092163086,-0.5744288563728333
-0.1271249800920486,0.4975457191467285,-0.1087083220481872,-0.5827128291130066,-0.2169725745916366,0.0581933259963989,0.0,0.0,0.1768280267715454,0.4251492023468017
-0.1280651986598968,0.4844365119934082,-0.0964955165982246,-0.5822696685791016,-0.214473158121109,0.0499884635210037,0.0,0.0,0.1644728183746338,0.5175983905792236
-0.1287763565778732,0.4714802801609039,-0.072076067328453,-0.5756927728652954,-0.2135054767131805,0.01935326308012,0.0,0.0,0.8602104187011719,-0.8623337745666504
-0.1292992532253265,0.4587478637695312,-0.0545703768730163,-0.5655561089515686,-0.2111976444721222,0.0461567565798759,0.0,0.0,0.7275413274765015,-0.021579623222351
-0.1296697556972503,0.4467820823192596,-0.0386020317673683,-0.5315951704978943,-0.2096305936574936,0.0313410088419914,0.0,0.0,0.494887113571167,-0.5715897083282471
-0.1299173384904861,0.435444563627243,-0.0268171764910221,-0.5035988092422485,-0.2075524777173996,0.0415621921420097,0.0,0.0,-0.1881361007690429,0.2983155250549316
-0.130170539021492,0.4237195253372192,-0.0266771521419286,-0.5209227204322815,-0.2061850577592849,0.0273482948541641,0.0,0.0,0.0684980154037475,-0.738480806350708
-0.1303705275058746,0.4119042754173279,-0.0221724305301904,-0.5248231291770935,-0.2039946317672729,0.0438084229826927,0.0,0.0,0.5184526443481445,-0.7970890402793884
-0.1305952072143554,0.4004222154617309,-0.0254431366920471,-0.5099070072174072,-0.2009946256875991,0.0599999204277992,0.0,0.0,0.5623424053192139,-0.5698047280311584
-0.1306199133396148,0.3897460699081421,-0.0061081326566636,-0.474004715681076,-0.1973410844802856,0.0730712637305259,0.0,0.0,-0.7334609627723694,-0.0576428174972534
-0.1306490004062652,0.3786824345588684,-0.0058373128995299,-0.4913286566734314,-0.1943906843662262,0.0590077638626098,0.0,0.0,0.5385458469390869,-0.624298632144928
-0.1307102143764495,0.3683778941631317,-0.009336045011878,-0.4575603306293487,-0.1911605298519134,0.0646034851670265,0.0,0.0,0.0116404294967651,0.4535155296325683
-0.1306417435407638,0.3582998514175415,0.0040837405249476,-0.4475589096546173,-0.1883818805217743,0.0555730089545249,0.0,0.0,-0.1778257489204406,-0.0890352129936218
-0.1305769979953766,0.3478341698646545,0.0044104973785579,-0.4648817777633667,-0.1862982362508773,0.0416729710996151,0.0,0.0,-0.3194701075553894,-0.3893312215805053
-0.1305156648159027,0.3369806706905365,0.004747808445245,-0.4822041094303131,-0.1849063038825988,0.0278389640152454,0.0,0.0,0.6070764064788818,-0.8617609143257141
-0.1304624527692794,0.3264769911766052,0.0029369094409048,-0.4665345549583435,-0.1825159788131714,0.0478066690266132,0.0,0.0,-0.1989270448684692,-0.6546656489372253
-0.1304732263088226,0.3156030178070068,-0.0043415483087301,-0.4828889966011047,-0.179241806268692,0.0654834434390068,0.0,0.0,0.7482755184173584,-0.3809007406234741
-0.1305452287197113,0.3052018582820892,-0.0090485047549009,-0.4620509445667267,-0.1773840636014938,0.0371548235416412,0.0,0.0,0.5307290554046631,-0.4983181953430176
-0.130406379699707,0.2953698635101318,0.0122488038614392,-0.4367824494838714,-0.1757474988698959,0.0327309742569923,0.0,0.0,-0.3018994927406311,-0.4177196621894836
-0.1302709579467773,0.2851499319076538,0.0125783560797572,-0.4541037976741791,-0.1747808456420898,0.0193331073969602,0.0,0.0,0.3367466926574707,-0.7940683960914612
-0.1299622505903244,0.2754418551921844,0.0288223531097173,-0.4312326610088348,-0.172723650932312,0.0411439538002014,0.0,0.0,0.2204630374908447,-0.4740093350410461
-0.1295752525329589,0.2661971747875213,0.0373885706067085,-0.4107206165790558,-0.1714028865098953,0.0264151506125926,0.0,0.0,-0.5869001746177673,-0.9338088631629944
-0.1292461454868316,0.2565895617008209,0.030816201120615,-0.4267620146274566,-0.1692993491888046,0.0420707128942012,0.0,0.0,0.0262626409530639,-0.8172170519828796
-0.1288690567016601,0.247128739953041,0.0346035286784172,-0.4201315939426422,-0.1661911904811859,0.0621627755463123,0.0,0.0,-0.0506635904312133,-0.6863639950752258
-0.1285493820905685,0.2373002618551254,0.0281001217663288,-0.4363904893398285,-0.1623244881629943,0.077334240078926,0.0,0.0,0.4784474372863769,-0.3105091452598572
-0.1280665397644043,0.2281140238046646,0.0447906143963336,-0.4079020321369171,-0.1588350087404251,0.0697899609804153,0.0,0.0,0.1728870868682861,-0.7536076903343201
-0.1275317221879959,0.219016820192337,0.0490389019250869,-0.4038529992103576,-0.1543956249952316,0.0887875854969024,0.0,0.0,-0.1666117906570434,-0.5464692115783691
-0.1270530670881271,0.2095445543527603,0.0427133813500404,-0.4204633831977844,-0.1492495834827423,0.1029209718108177,0.0,0.0,0.3254234790802002,-0.7399693131446838
-0.12669038772583,0.2003338485956192,0.0303875897079706,-0.4087881445884704,-0.1433843225240707,0.1173053383827209,0.0,0.0,0.4108210802078247,-0.0858923196792602
-0.1262826919555664,0.1914537250995636,0.0355602353811264,-0.3941794037818908,-0.1381916999816894,0.1038523316383361,0.0,0.0,-0.2445666193962097,0.1274540424346923
-0.1258810013532638,0.1821854412555694,0.0355382040143013,-0.4114996194839477,-0.1335744261741638,0.0923455134034156,0.0,0.0,0.4758265018463135,0.1138415336608886
-0.1253271996974945,0.1729831844568252,0.050762940198183,-0.4085822701454162,-0.1289798617362976,0.0918911099433898,0.0,0.0,0.4446135759353637,-0.7029196619987488
-0.1246646866202354,0.1642778068780899,0.060605339705944,-0.3864302635192871,-0.1233614012598991,0.1123692169785499,0.0,0.0,0.0348219871520996,-0.5072828531265259
-0.1239693611860275,0.1559453606605529,0.0633681416511535,-0.3698349893093109,-0.1172310560941696,0.1226070672273635,0.0,0.0,-0.2467730045318603,-0.4189756512641907
