x_pos,y_pos,x_vel,y_vel,angle,ang_vel,leg_1,leg_2,main_booster,lat_booster
-0.0015428543556481,1.4030206203460691,-0.156549334526062,-0.3510845005512237,0.0020283004269003,0.0400297679007053,0.0,0.0,0.5128722251845554,-0.7520737722769616
-0.0031120299827307,1.3951706886291504,-0.1607730686664581,-0.3488971889019012,0.0058351322077214,0.0761446729302406,0.0,0.0,-0.8944202092948557,0.629921478902323
-0.0046393396332859,1.3867123126983645,-0.1552846133708953,-0.3759350478649139,0.0083589479327201,0.0504809245467186,0.0,0.0,0.7859552724525813,0.9425869939144348
-0.006258487701416,1.3784565925598145,-0.1625739634037017,-0.366928219795227,0.0090078534558415,0.0129796462133526,0.0,0.0,0.5223907591849337,0.7793881391724198
-0.0077073099091649,1.3705034255981443,-0.1444655060768127,-0.3534790575504303,0.0085924919694662,-0.0083079859614372,0.0,0.0,-0.8235582424003871,0.8828385797519684
-0.0090879444032907,1.3619461059570312,-0.1357062757015228,-0.3803127706050873,0.0062687532044947,-0.0464791990816593,0.0,0.0,-0.1909790159766937,0.8796702993131755
-0.0104181291535496,1.35278582572937,-0.1292170584201812,-0.4071089029312134,0.0025043077766895,-0.0752960070967674,0.0,0.0,0.9362491861840728,0.766993205266597
-0.0115154264494776,1.3441627025604248,-0.105089820921421,-0.383252888917923,-0.0020868547726422,-0.09183169901371,0.0,0.0,0.6115433004685393,-0.6064626762965462
-0.0126864435151219,1.3361668586730957,-0.1138825640082359,-0.3553775548934936,-0.0052776597440242,-0.0638217404484748,0.0,0.0,0.2511502603216895,-0.7338118060050196
-0.0139274597167968,1.328397274017334,-0.1225718259811401,-0.3453167676925659,-0.006786991842091,-0.0301894508302211,0.0,0.0,-0.0774353002408587,-0.7411488689690607
-0.0152321811765432,1.320025086402893,-0.1304411739110946,-0.3721013367176056,-0.0068111750297248,-0.0004834803403355,0.0,0.0,-0.7982356707854001,-0.7152782743481886
-0.0165993683040142,1.3110480308532717,-0.1381953060626983,-0.3989703059196472,-0.0053599681705236,0.0290265716612339,0.0,0.0,0.8489927322144144,0.9928773992978748
-0.0177333839237689,1.3026446104049685,-0.1133679524064064,-0.3734839260578155,-0.0053919698111712,-0.0006398073164746,0.0,0.0,0.2634889217475649,0.6092839252339695
-0.0187705047428607,1.2940380573272705,-0.1027988642454147,-0.3825157284736633,-0.0063017983920872,-0.0181982703506946,0.0,0.0,0.7723676858180728,-0.8270669995473817
-0.0197107307612895,1.28616201877594,-0.0953124314546585,-0.3500446379184723,-0.0050255744718015,0.0255271159112453,0.0,0.0,-0.7201089010931145,0.94578044101764
-0.0205718036741018,1.2776700258255005,-0.0853711515665054,-0.377418965101242,-0.0057556093670427,-0.0146018639206886,0.0,0.0,-0.9401646139037454,-0.9443408327184264
-0.0214982982724905,1.2685861587524414,-0.093581810593605,-0.4037315249443054,-0.0048284954391419,0.018543841317296,0.0,0.0,0.9123610062412896,-0.9608310399928244
-0.0223225597292184,1.25954008102417,-0.085825391113758,-0.4020431935787201,-0.0014669907977804,0.0672363713383674,0.0,0.0,0.0930276171904294,-0.9815115966390852
-0.0231525413691997,1.2506961822509766,-0.0885563567280769,-0.3930645883083343,0.0040311384946107,0.1099723577499389,0.0,0.0,-0.8748422747711875,-0.7021605687037926
-0.024049948900938,1.241248369216919,-0.0971023589372634,-0.4199419617652893,0.0113081540912389,0.1455532014369964,0.0,0.0,-0.1624140037407271,0.7035289313268056
-0.0248833652585744,1.231203556060791,-0.0891851931810379,-0.4464857280254364,0.0170852877199649,0.1155530214309692,0.0,0.0,-0.4414002960925216,0.7299063865348363
-0.0256599429994821,1.220552921295166,-0.0821951627731323,-0.4734229743480682,0.0215752832591533,0.0898080617189407,0.0,0.0,0.4988672929561202,-0.6739132013769906
-0.0263718608766794,1.2100411653518677,-0.0775368064641952,-0.467291921377182,0.0278500765562057,0.1255072057247162,0.0,0.0,-0.465584573489366,-0.8249688374327473
-0.027140712365508,1.198914647102356,-0.0848794057965278,-0.4946781992912292,0.0357559435069561,0.1581316739320755,0.0,0.0,-0.6230841876138324,-0.7464283629524373
-0.0279808044433593,1.1871836185455322,-0.0940279811620712,-0.5216429233551025,0.0456727407872676,0.1983536183834076,0.0,0.0,0.4602110199185094,-0.6023105679505709
-0.0290332790464162,1.1757519245147705,-0.1163594350218772,-0.5084549784660339,0.056653868407011,0.2196223735809326,0.0,0.0,0.1612580467537132,0.683145252343112
-0.0300532337278127,1.164491891860962,-0.1118920817971229,-0.5008556842803955,0.0664464756846427,0.1958521008491516,0.0,0.0,0.6860485470177637,-0.920478366074712
-0.0313449874520301,1.1538777351379397,-0.1408701241016388,-0.4723033308982849,0.0780133381485939,0.2313373535871505,0.0,0.0,-0.4494226502984852,-0.7236251168458248
-0.0326994881033897,1.1426597833633425,-0.1490495353937149,-0.4993375539779663,0.0914904475212097,0.269542396068573,0.0,0.0,-0.7561081085955321,-0.7990672500308077
-0.0341105461120605,1.1308292150497437,-0.1565125733613968,-0.5268198847770691,0.106769859790802,0.3055878281593323,0.0,0.0,0.1219458495025371,0.8529060001768339
-0.0354923233389854,1.1192779541015625,-0.1519974172115326,-0.5144304037094116,0.1204983219504356,0.2745695412158966,0.0,0.0,0.8946454989494728,-0.847392155437449
-0.0370870605111122,1.107839822769165,-0.1749324798583984,-0.5096798539161682,0.1358691751956939,0.307417094707489,0.0,0.0,-0.4668116888501932,-0.6419531439698587
-0.0387281402945518,1.09579598903656,-0.1811126768589019,-0.5369227528572083,0.1528333276510238,0.339283287525177,0.0,0.0,0.3347694103457916,0.6250940554846659
-0.0404075607657432,1.0835769176483154,-0.1836891174316406,-0.5447654724121094,0.1685763597488403,0.3148606419563293,0.0,0.0,-0.0734410424796576,0.7825388455811407
-0.0420110709965229,1.0707749128341677,-0.1745676100254058,-0.5706560611724854,0.1828353703022003,0.2851801514625549,0.0,0.0,0.1039017258430661,-0.7071190445776501
-0.043733786791563,1.0581116676330566,-0.1880074888467788,-0.5648313164710999,0.1986443996429443,0.3161806762218475,0.0,0.0,-0.8918268715062183,-0.8018390341297423
-0.0455055236816406,1.0448250770568848,-0.1946377009153366,-0.5929586291313171,0.2162536829710006,0.3521860837936401,0.0,0.0,0.9497146599059474,-0.624808695175249
-0.0474560745060443,1.0322597026824951,-0.2139215022325515,-0.5613362789154053,0.235355943441391,0.382045179605484,0.0,0.0,-0.461669591520389,0.6051743955601615
-0.0493477806448936,1.0191175937652588,-0.2069246470928192,-0.5870364308357239,0.2534169852733612,0.3612216114997864,0.0,0.0,-0.0967279926003845,0.6801159552595462
-0.0511679649353027,1.005397915840149,-0.1983788907527923,-0.6126781702041626,0.2701379060745239,0.3344177901744842,0.0,0.0,0.9165183468665434,0.7036191244740335
-0.0532876029610633,0.9923582673072816,-0.2266371548175811,-0.5823270082473755,0.2852022349834442,0.3012866973876953,0.0,0.0,-0.8321475386619568,0.9666202068328856
-0.0552998557686805,0.9787541031837464,-0.2136447876691818,-0.6071028113365173,0.297993540763855,0.2558267712593078,0.0,0.0,-0.8624712824821472,0.9773811101913452
-0.0572051033377647,0.9645774364471436,-0.2007478177547454,-0.6322025656700134,0.3085715472698211,0.2115602195262909,0.0,0.0,-0.6229193806648254,0.9765241146087646
-0.0590044967830181,0.9498376250267028,-0.1879780888557434,-0.6568424105644226,0.3169134855270386,0.1668386161327362,0.0,0.0,-0.6924548745155334,0.9750304222106934
-0.0607127174735069,0.93451726436615,-0.1771436631679535,-0.6822941303253174,0.3234871923923492,0.1314743906259536,0.0,0.0,-0.6400241255760193,0.9938085079193116
-0.0623177513480186,0.9186245799064636,-0.1647950708866119,-0.7073069214820862,0.3279567658901214,0.0893922969698906,0.0,0.0,-0.3420981168746948,0.9927699565887452
-0.0638185515999794,0.9021651148796082,-0.152292788028717,-0.7320384979248047,0.3302620947360992,0.0461064204573631,0.0,0.0,-0.0633989572525024,0.9754760265350342
-0.0652407631278038,0.8851422667503357,-0.1429187357425689,-0.7567277550697327,0.3309925198554992,0.0146086905151605,0.0,0.0,0.3118710517883301,0.9989345073699952
-0.0668876618146896,0.8683905601501465,-0.1634436398744583,-0.744232177734375,0.3296871185302734,-0.0261081755161285,0.0,0.0,0.4062168598175049,0.9999182224273682
-0.0685968399047851,0.8516753315925598,-0.1677383035421371,-0.7421813607215881,0.3263783752918243,-0.0661754086613655,0.0,0.0,-0.0637206435203552,0.9983774423599244
-0.0701910033822059,0.8344032168388367,-0.1538542360067367,-0.7664018273353577,0.3205884397029876,-0.1157984882593154,0.0,0.0,0.3923730850219726,0.999919891357422
-0.0719377547502517,0.8174290060997009,-0.167145624756813,-0.7527574896812439,0.3127601146697998,-0.1565666645765304,0.0,0.0,0.0514717102050781,0.9999794960021972
-0.0735926628112793,0.8003259897232056,-0.1559573113918304,-0.7581153512001038,0.3028854131698608,-0.1974941045045852,0.0,0.0,-0.0502012968063354,0.99992036819458
-0.0751507729291915,0.7826648950576782,-0.1442816108465194,-0.7825786471366882,0.2909848690032959,-0.2380109131336212,0.0,0.0,0.2595601081848144,0.999445915222168
-0.0765886306762695,0.7650241255760193,-0.1302868127822876,-0.7814038395881653,0.2771056592464447,-0.2775847315788269,0.0,0.0,-0.2299075126647949,0.9999520778656006
-0.0779384598135948,0.7468053698539734,-0.1197972446680069,-0.8069184422492981,0.2615456879138946,-0.3111998438835144,0.0,0.0,0.3813657760620117,0.9994521141052246
-0.0792751312255859,0.7290269732475281,-0.1164676174521446,-0.7871912717819214,0.2440194636583328,-0.3505244553089142,0.0,0.0,-0.8237446546554565,0.993543267250061
-0.0804954543709755,0.7106881141662598,-0.1023528352379798,-0.8119207620620728,0.2240368127822876,-0.3996531367301941,0.0,0.0,-0.8119966387748718,0.8488824367523193
-0.0816204994916915,0.6917846202850342,-0.0908154100179672,-0.8370029330253601,0.202134296298027,-0.4380508065223694,0.0,0.0,-0.5071506500244141,0.1886429786682129
-0.0827219933271408,0.6722837686538696,-0.0883758217096328,-0.8638747930526733,0.1802375316619873,-0.4379357397556305,0.0,0.0,0.8194060325622559,0.5229005813598633
-0.0837727561593055,0.6528103351593018,-0.0823500305414199,-0.8628829717636108,0.1574687361717224,-0.4553761482238769,0.0,0.0,-0.6765515804290771,-0.3902842402458191
-0.0847997665405273,0.6327399611473083,-0.0798879712820053,-0.8897584676742554,0.1346987634897232,-0.4553995132446289,0.0,0.0,0.9696383476257324,-0.9493282437324524
-0.0857986435294151,0.6130039095878601,-0.0791916400194168,-0.8754221200942993,0.1141142770648002,-0.4116898477077484,0.0,0.0,0.9879604578018188,-0.6753769516944885
-0.086880013346672,0.5937654376029968,-0.0888340547680854,-0.8536799550056458,0.0949476286768913,-0.383332759141922,0.0,0.0,-0.362256646156311,-0.6683863997459412
-0.0879886597394943,0.573915421962738,-0.0928394943475723,-0.8811761140823364,0.0770869329571724,-0.3572137355804443,0.0,0.0,0.9992218017578124,-0.6116124987602234
-0.0893353447318077,0.5545116662979126,-0.1173905879259109,-0.8615912795066833,0.0599882341921329,-0.3419739603996277,0.0,0.0,0.9855263233184814,-0.6057487726211548
-0.0907397270202636,0.5360528826713562,-0.1244187578558921,-0.8198249340057373,0.0441539175808429,-0.3166864514350891,0.0,0.0,0.4052776098251343,0.7031766176223755
-0.0919971466064453,0.5173670649528503,-0.1084129810333252,-0.8300549387931824,0.0270356554538011,-0.3423651754856109,0.0,0.0,0.985508918762207,-0.6022652387619019
-0.0932706817984581,0.499626100063324,-0.1113007068634033,-0.7882784008979797,0.0111904442310333,-0.3169044554233551,0.0,0.0,0.9354031085968018,-0.4553627371788025
-0.0946357697248458,0.4821146428585052,-0.1199127882719039,-0.7782449126243591,-0.0051872469484806,-0.3275540769100189,0.0,0.0,-0.3960944414138794,-0.2892060279846191
-0.0959758758544921,0.4640029966831207,-0.1173947304487228,-0.8051000833511353,-0.0215892251580953,-0.3280396461486816,0.0,0.0,0.3389811515808105,-0.6741250157356262
-0.0973058715462684,0.4460495114326477,-0.1177550107240676,-0.7982236742973328,-0.0366295091807842,-0.3008058667182922,0.0,0.0,0.901308536529541,-0.148482084274292
-0.098723217844963,0.4289604127407074,-0.1257880926132202,-0.7599802613258362,-0.0523828528821468,-0.3150674700736999,0.0,0.0,-0.1605452299118042,0.1411701440811157
-0.1001153960824012,0.4112708568572998,-0.1232600361108779,-0.7868338227272034,-0.0681646987795829,-0.3156370222568512,0.0,0.0,0.9358139038085938,-0.9288389682769777
-0.1015684157609939,0.3936710357666015,-0.1311132609844207,-0.7829175591468811,-0.0822077766060829,-0.2808612287044525,0.0,0.0,0.9842092990875244,-0.4295831322669983
-0.1028827652335167,0.3760437071323395,-0.117615059018135,-0.7842540740966797,-0.0959035158157348,-0.2739148139953613,0.0,0.0,0.9863736629486084,-0.9109557867050172
-0.1042468100786209,0.3584314584732055,-0.1243099421262741,-0.7835843563079834,-0.1078980416059494,-0.2398906052112579,0.0,0.0,0.988904356956482,-0.6607577800750732
-0.1055449470877647,0.341657429933548,-0.1190125718712806,-0.7463306784629822,-0.1186322644352912,-0.2146846354007721,0.0,0.0,0.966660737991333,-0.5118341445922852
-0.1066427230834961,0.3257216811180115,-0.1002960950136184,-0.7090333104133606,-0.1280698478221893,-0.1887515932321548,0.0,0.0,0.9824504852294922,-0.7754343152046204
-0.1077951416373252,0.3106899261474609,-0.1069505810737609,-0.6688121557235718,-0.1363215297460556,-0.1650332957506179,0.0,0.0,0.8901016712188721,-0.4751427173614502
-0.1090175658464431,0.2956487536430359,-0.1132363080978393,-0.6693447232246399,-0.145289734005928,-0.1793641746044159,0.0,0.0,0.9392375946044922,-0.556319534778595
-0.1100735664367675,0.2813854813575744,-0.0978452414274215,-0.6346984505653381,-0.1530302017927169,-0.1548096388578415,0.0,0.0,0.9275178909301758,-0.6522534489631653
-0.1111783981323242,0.2675553560256958,-0.1036819964647293,-0.6153855919837952,-0.1598241925239563,-0.1358795464038849,0.0,0.0,0.9915716648101808,-0.5723114013671875
-0.1122416481375694,0.2543621063232422,-0.1004490703344345,-0.5870134830474854,-0.1657031178474426,-0.1175786629319191,0.0,0.0,0.9760847091674804,-0.5793039798736572
-0.11320161819458,0.241820827126503,-0.0912088379263877,-0.5579298138618469,-0.1704930514097213,-0.0957991033792495,0.0,0.0,0.8979830741882324,-0.4067877531051636
-0.1139242202043533,0.2296387255191803,-0.0679159611463546,-0.5419325232505798,-0.1748486310243606,-0.0871116667985916,0.0,0.0,0.978614330291748,-0.5412574410438538
-0.1145635619759559,0.2174567729234695,-0.0607257559895515,-0.5418025851249695,-0.1780617237091064,-0.0642614364624023,0.0,0.0,0.972109317779541,-0.5538433194160461
-0.1150206550955772,0.20535708963871,-0.0439124256372451,-0.5379758477210999,-0.1798522621393203,-0.03581078723073,0.0,0.0,0.994011163711548,-0.5673089623451233
-0.1151878386735916,0.1936322599649429,-0.016583077609539,-0.5211202502250671,-0.1799869686365127,-0.0026940521784126,0.0,0.0,0.9914610385894777,-0.6133928298950195
-0.1151165962219238,0.1819655746221542,0.0055588940158486,-0.5183308720588684,-0.1784255802631378,0.0312277283519506,0.0,0.0,0.9759922027587892,-0.7739201188087463
-0.1149275749921798,0.1710454821586609,0.0158361569046974,-0.4849723875522613,-0.1753473132848739,0.0615655370056629,0.0,0.0,0.9227457046508788,-0.8813742995262146
-0.1145880669355392,0.1608402878046035,0.0290493406355381,-0.4529964029788971,-0.1704422235488891,0.0981020703911781,0.0,0.0,0.8723258972167969,0.2926013469696045
-0.1139561682939529,0.1511133760213852,0.0576575808227062,-0.4316847622394562,-0.1649020910263061,0.1108026355504989,0.0,0.0,0.1907790899276733,-0.4192086458206177
-0.1131888404488563,0.1411133855581283,0.0708768367767334,-0.4438058137893677,-0.1590412855148315,0.1172160357236862,0.0,0.0,0.8800890445709229,-0.5275103449821472
-0.1124085411429405,0.1313919126987457,0.0713066458702087,-0.4313589632511139,-0.1523231118917465,0.1343635469675064,0.0,0.0,0.9251644611358644,-0.3642358779907226
-0.1113530173897743,0.122535616159439,0.0983690991997718,-0.3928983509540558,-0.1451596319675445,0.1432697027921676,0.0,0.0,0.6559209823608398,-0.4520543217658996
-0.1102130860090255,0.1139279454946518,0.1069260686635971,-0.3818912804126739,-0.1381124407052993,0.1409437358379364,0.0,0.0,0.6394402980804443,-0.6055399179458618
-0.1091183647513389,0.1059329584240913,0.1015048250555992,-0.354613333940506,-0.1301789432764053,0.158669963479042,0.0,0.0,0.6150412559509277,0.0898343324661254
-0.1078256592154502,0.0983332246541976,0.1208998188376426,-0.3370593786239624,-0.1218546256422996,0.1664863228797912,0.0,0.0,0.2933442592620849,-0.2670043706893921
-0.1064783111214637,0.0910127237439155,0.1265652924776077,-0.3247087597846985,-0.1137238889932632,0.1626148521900177,0.0,0.0,0.1376689672470092,0.2090369462966919
-0.1051039695739746,0.083867534995079,0.1295054405927658,-0.3169832527637481,-0.1058533489704132,0.1574110686779022,0.0,0.0,0.1264479160308838,-0.1746231317520141
-0.1036857590079307,0.0766285061836242,0.13396055996418,-0.3211988508701324,-0.0980547592043876,0.1559718251228332,0.0,0.0,0.6837642192840576,-0.108155608177185
-0.1023010239005088,0.0697189196944236,0.1311502158641815,-0.3066321015357971,-0.0907963961362838,0.145167201757431,0.0,0.0,0.6427164077758789,0.5677359104156494
-0.100959874689579,0.0629985183477401,0.1283318251371383,-0.2983445227146148,-0.0850661769509315,0.1146045476198196,0.0,0.0,0.3836836814880371,-0.2226302623748779
-0.0994544997811317,0.0565630756318569,0.144318476319313,-0.2856805920600891,-0.0789091885089874,0.1231398731470108,0.0,0.0,0.6502859592437744,-0.4093164205551147
-0.0978343933820724,0.0500682704150676,0.1554822623729705,-0.2883287966251373,-0.0724487751722335,0.1292080134153366,0.0,0.0,0.7127542495727539,-0.310732901096344
-0.0959826484322547,0.0441372245550155,0.1779276877641677,-0.2632671892642975,-0.0652693510055542,0.143588438630104,0.0,0.0,0.5899181365966797,-0.9906661510467528
-0.0941604599356651,0.03873947635293,0.1729627549648285,-0.2395226955413818,-0.056115623563528,0.183074340224266,0.0,0.0,0.406461238861084,-0.5756843090057373
-0.0921862572431564,0.033828031271696,0.1866690814495086,-0.2179160267114639,-0.045493759214878,0.2124373167753219,0.0,0.0,0.6004688739776611,-0.955810844898224
-0.0901544541120529,0.029155621305108,0.1903607994318008,-0.2073228508234024,-0.0328348278999328,0.2531787157058716,0.0,0.0,0.6104562282562256,-0.975405216217041
-0.088157370686531,0.025089107453823,0.1848936825990677,-0.1804758608341217,-0.0182057041674852,0.2925825715065002,0.0,0.0,0.6219501495361328,-0.8115155696868896
-0.0861204117536544,0.0215887874364852,0.1870864927768707,-0.1554529517889022,-0.0018074817489832,0.3279641270637512,0.0,0.0,0.4215090274810791,-0.910078763961792
-0.0840520858764648,0.0180758088827133,0.1882624924182891,-0.1562096178531646,0.0165245495736598,0.3666408956050873,0.0,0.0,0.4730092287063598,-0.4671839475631714
-0.0820783600211143,0.0147875640541315,0.1792630106210708,-0.1464385241270065,0.0344015657901763,0.3575406670570373,0.0,0.0,0.3563222885131836,-0.3381015062332153
-0.0802013427019119,0.0115279294550418,0.1700522601604461,-0.1453720182180404,0.0518444739282131,0.3488581478595733,0.0,0.0,0.3544838428497314,-0.3944272994995117
-0.078342817723751,0.0083595607429742,0.1682330965995788,-0.1415189206600189,0.0692628622055053,0.3483678698539734,0.0,0.0,0.3247636556625366,0.1511040925979614
-0.0766909569501876,0.005804703105241,0.1671171188354492,-0.113451287150383,0.0673762634396553,-0.0376992560923099,0.0,1.0,0.1461489200592041,0.1787954568862915
-0.0751999840140342,0.0035847639665007,0.1701854616403579,-0.0978486686944961,0.0465242899954319,-0.4170484542846679,0.0,1.0,0.1087011098861694,-0.1909081935882568
-0.0736689567565918,0.0014655328122898,0.174133762717247,-0.0936687067151069,0.025729576125741,-0.4159115254878998,0.0,0.0,-0.4623241424560547,-0.8725278973579407
-0.0722088813781738,-0.0011722588678821,0.1678548455238342,-0.1170016005635261,0.0041516246274113,-0.431568294763565,0.0,1.0,0.5348316431045532,-0.362301766872406
-0.0706900581717491,-0.0030790949240326,0.1621010303497314,-0.0847454369068145,-0.0059464955702424,-0.2019751071929931,1.0,1.0,0.8491737842559814,-0.941557228565216
