x_pos,y_pos,x_vel,y_vel,angle,ang_vel,leg_1,leg_2,main_booster,lat_booster
-0.0015106201171875,1.4033761024475098,-0.152892991900444,-0.3352912366390228,0.0016335749533027,0.0322143174707889,0.0,0.0,-0.1787067651748657,0.9055211544036864
-0.0029311180114746,1.3956025838851929,-0.1415558010339737,-0.3454895615577698,0.0011516402009874,-0.0096386689692735,0.0,0.0,0.1668801307678222,-0.2815427780151367
-0.0042442320846021,1.3880082368850708,-0.1311547756195068,-0.3375240862369537,0.0009937183931469,-0.003159109968692,0.0,0.0,0.0959892272949218,0.1348646879196167
-0.0056234360672533,1.380662441253662,-0.137245237827301,-0.3264804482460022,0.0003266996936872,-0.0133416894823312,0.0,0.0,0.1384159326553344,0.0937285423278808
-0.0069005964323878,1.3737422227859497,-0.1273317635059356,-0.3075651526451111,-4.337820064392872e-05,-0.0074022836051881,0.0,0.0,-0.2557249069213867,0.38150155544281
-0.0081642149016261,1.366573452949524,-0.1258604079484939,-0.3186091184616089,-0.0005428516888059,-0.0099903736263513,0.0,0.0,-0.4037309288978576,0.1562504768371582
-0.009414386935532,1.359156370162964,-0.1243873015046119,-0.3296478688716888,-0.0011708369711413,-0.0125612439587712,0.0,0.0,-0.2310209274291992,0.413256287574768
-0.010651302523911,1.35149085521698,-0.1229143142700195,-0.3406879305839538,-0.0019272516947239,-0.0151297394186258,0.0,0.0,-0.4327051639556885,0.7675540447235107
-0.0118154529482126,1.3435852527618408,-0.1140107065439224,-0.3513678908348083,-0.0043014995753765,-0.0474894009530544,0.0,0.0,-0.5041725039482117,0.0032267570495605
-0.0129661560058593,1.3354312181472778,-0.112537644803524,-0.3624091148376465,-0.0068026105873286,-0.050026811659336,0.0,0.0,-0.656001627445221,0.0896950960159301
-0.0141034126281738,1.3270288705825806,-0.1110695227980613,-0.3734504878520965,-0.0094311265274882,-0.0525750108063221,0.0,0.0,-0.710758626461029,0.5427215099334717
-0.0151795390993356,1.318376541137695,-0.1036129593849182,-0.3845795691013336,-0.0133880926296114,-0.0791468396782875,0.0,0.0,-0.5966711044311523,0.8149694204330444
-0.0161642078310251,1.309478759765625,-0.0923496931791305,-0.3955242931842804,-0.0194350555539131,-0.1209502220153808,0.0,0.0,-0.6813856959342957,0.4567155838012695
-0.0171356201171875,1.300333023071289,-0.0908947810530662,-0.4065683484077453,-0.0256064236164093,-0.1234387382864952,0.0,0.0,-0.6805821657180786,-0.3596514463424682
-0.0180937759578228,1.290939450263977,-0.0894505977630615,-0.4176126718521118,-0.0319025218486785,-0.1259335577487945,0.0,0.0,-0.8468132615089417,-0.5424591898918152
-0.0190739631652832,1.281293272972107,-0.0924232527613639,-0.4288467764854431,-0.0374421924352645,-0.1108034998178482,0.0,0.0,-0.9713311195373536,0.0144846439361572
-0.0200413707643747,1.2713991403579712,-0.0910067111253738,-0.4398908913135528,-0.0431051552295684,-0.1132694110274314,0.0,0.0,-0.9033411145210266,-0.5141083598136902
-0.0210268981754779,1.2612547874450684,-0.0935024097561836,-0.4510176479816437,-0.0481109134852886,-0.1001241356134414,0.0,0.0,-0.8027532696723938,-0.5523135662078857
-0.0220361705869436,1.2508701086044312,-0.0966870039701461,-0.4616828858852386,-0.0523168370127677,-0.0841259136795997,0.0,0.0,-0.6825029850006104,-0.3008911609649658
-0.0230330470949411,1.2402374744415283,-0.0953225642442703,-0.472726434469223,-0.0566431246697902,-0.0865335315465927,0.0,0.0,-0.960343897342682,-0.2266165018081665
-0.0240176208317279,1.2293566465377808,-0.0939764454960823,-0.4837701022624969,-0.061088141053915,-0.0889082252979278,0.0,0.0,-0.4489510059356689,-0.2548038959503174
-0.0249901767820119,1.2182278633117676,-0.0926498472690582,-0.4948139488697052,-0.0656507462263107,-0.0912603437900543,0.0,0.0,-0.5254828333854675,-0.8697176575660706
-0.026004696264863,1.2068548202514648,-0.0981037244200706,-0.5056154131889343,-0.0689723119139671,-0.0664371997117996,0.0,0.0,0.1781595945358276,-0.7764028310775757
-0.0269971843808889,1.1955586671829224,-0.0973868072032928,-0.5021414160728455,-0.0708139985799789,-0.0368368923664093,0.0,0.0,-0.0846766829490661,-0.4340283870697021
-0.0279783252626657,1.1840142011642456,-0.0961353480815887,-0.5131865739822388,-0.0727693364024162,-0.0391104593873024,0.0,0.0,-0.9204674363136292,-0.3986002206802368
-0.0289493557065725,1.172199845314026,-0.0950109362602233,-0.5251790881156921,-0.0748357251286506,-0.0413278266787529,0.0,0.0,-0.9445406198501588,-0.6420310139656067
-0.0299595836549997,1.1601470708847046,-0.1001116186380386,-0.535726010799408,-0.0757400020956993,-0.0180855598300695,0.0,0.0,-0.680620014667511,-0.5568284392356873
-0.0310123451054096,1.1478580236434937,-0.1056228652596473,-0.5461702942848206,-0.0754001960158348,0.0067959004081785,0.0,0.0,-0.5151611566543579,0.5264328718185425
-0.0320219993591308,1.135321021080017,-0.1003767102956771,-0.5572230219841003,-0.0759849846363067,-0.0116955852136015,0.0,0.0,-0.6792319416999817,-0.1235528588294982
-0.0330216400325298,1.1225359439849854,-0.0992645397782325,-0.5682628154754639,-0.0766714960336685,-0.0137304589152336,0.0,0.0,-0.7539157867431641,-0.8928098678588867
-0.0340790748596191,1.109520435333252,-0.1066956743597984,-0.5784178376197815,-0.0757311880588531,0.0188059490174055,0.0,0.0,-0.8673685193061829,-0.4393407702445984
-0.0351270660758018,1.0962566137313845,-0.1056444495916366,-0.5894576907157898,-0.0748864486813545,0.0168946627527475,0.0,0.0,-0.8033596873283386,0.6393988132476807
-0.0361218452453613,1.0827456712722778,-0.099131740629673,-0.6005045771598816,-0.0752309933304786,-0.0068911910057067,0.0,0.0,-0.8295822143554688,-0.088015615940094
-0.0371076576411724,1.068986415863037,-0.098144881427288,-0.6115443110466003,-0.0756639614701271,-0.0086591495200991,0.0,0.0,-0.6252738237380981,-0.3236435651779175
-0.0380847938358783,1.054978847503662,-0.0971913784742355,-0.6225839853286743,-0.0761813297867775,-0.0103475395590066,0.0,0.0,-0.680033266544342,-0.3768320083618164
-0.0390535369515419,1.0407230854034424,-0.0962719023227691,-0.6336236596107483,-0.0767788812518119,-0.0119509696960449,0.0,0.0,-0.5462698340415955,-0.5526304244995117
-0.0400598533451557,1.026221513748169,-0.1011111363768577,-0.6444959044456482,-0.0763042941689491,0.009491691365838,0.0,0.0,-0.2330543994903564,-0.5987935066223145
-0.0411024093627929,1.0114811658859253,-0.1057919263839721,-0.6550481915473938,-0.0747821703553199,0.0304424464702606,0.0,0.0,-0.6780011653900146,0.6063723564147949
-0.0420924201607704,0.9964941740036012,-0.0993324965238571,-0.6660695672035217,-0.074452705681324,0.0065890685655176,0.0,0.0,-0.9374631643295288,-0.2891048192977905
-0.043075181543827,0.9812589287757874,-0.0985548049211502,-0.6771090626716614,-0.0741836801171302,0.0053807334043085,0.0,0.0,-0.6938098073005676,-0.1633132100105285
-0.044051170349121,0.9657753705978394,-0.0978136360645294,-0.6881486177444458,-0.0739694461226463,0.0042845816351473,0.0,0.0,-0.6324057579040527,-0.5081019401550293
-0.0450526252388954,0.950045883655548,-0.1011150702834129,-0.6990414261817932,-0.0730000361800193,0.0193880312144756,0.0,0.0,-0.2105791568756103,-0.257913589477539
-0.0460477843880653,0.9340680837631226,-0.1004476696252822,-0.7100809216499329,-0.0720734894275665,0.018530935049057,0.0,0.0,0.0004903078079223,0.2908487319946289
-0.0469538681209087,0.9183142781257628,-0.0917951613664627,-0.700109601020813,-0.0709053874015808,0.023362036794424,0.0,0.0,-0.3430323600769043,-0.3235869407653808
-0.0478543266654014,0.902312159538269,-0.0912020504474639,-0.7111490964889526,-0.069767378270626,0.0227604340761899,0.0,0.0,-0.2272787094116211,0.1858860254287719
-0.0487495437264442,0.8860618472099304,-0.0906460285186767,-0.7221885323524475,-0.0686528086662292,0.0222913939505815,0.0,0.0,-0.0966474413871765,0.1202743053436279
-0.0496397987008094,0.8695630431175232,-0.0901269912719726,-0.7332277894020081,-0.0675549283623695,0.0219571255147457,0.0,0.0,-0.134134292602539,-0.5587149262428284
-0.0505772605538368,0.8528271913528442,-0.0961859971284866,-0.7437047958374023,-0.0651455968618393,0.0481868386268615,0.0,0.0,0.2489597797393798,0.1750571727752685
-0.0515716560184955,0.8367446660995483,-0.1013990268111229,-0.7146931290626526,-0.0632032379508018,0.0388472117483615,0.0,0.0,-0.5014811158180237,-0.1725478172302246
-0.0525618568062782,0.8204137682914734,-0.1009893417358398,-0.7257325649261475,-0.0612570717930793,0.0389235541224479,0.0,0.0,-0.3992320299148559,-0.5096197128295898
-0.0535789504647254,0.8038374781608582,-0.1044634580612182,-0.7366207838058472,-0.0585275404155254,0.0545902475714683,0.0,0.0,-0.0566063523292541,0.1739919185638427
-0.0545923225581646,0.7870126366615295,-0.1041245087981224,-0.7476605176925659,-0.0557806752622127,0.0549373626708984,0.0,0.0,-0.4739794731140136,-0.2231398820877075
-0.0556025505065918,0.7699396014213562,-0.1038200035691261,-0.7587002515792847,-0.0530098378658294,0.0554166920483112,0.0,0.0,-0.0911358594894409,-0.0601407289505004
-0.0566096305847168,0.7526182532310486,-0.1035492271184921,-0.7697398662567139,-0.0502085834741592,0.0560251101851463,0.0,0.0,-0.0605676770210266,0.6102007627487183
-0.0575539581477642,0.7350417375564575,-0.0957701578736305,-0.7811344265937805,-0.0488857328891754,0.0264570750296115,0.0,0.0,0.1677007675170898,-0.0262821316719055
-0.0585469231009483,0.7177206873893738,-0.1003652587532997,-0.7697880268096924,-0.0478325448930263,0.0210638735443353,0.0,0.0,0.5744922161102295,0.6255277395248413
-0.0593544952571392,0.7012845277786255,-0.0808349624276161,-0.730495035648346,-0.0477543026208877,0.0015644747763872,0.0,0.0,-0.0604124069213867,-0.6012132167816162
-0.0601965896785259,0.684605062007904,-0.0852791219949722,-0.7412791848182678,-0.0466994605958461,0.0210969485342502,0.0,0.0,0.0719759464263916,0.4531947374343872
-0.0609635338187217,0.668474018573761,-0.0780523046851158,-0.716886579990387,-0.0453609153628349,0.0267710443586111,0.0,0.0,0.2173585891723632,0.2875351905822754
-0.0617588050663471,0.6529662609100342,-0.0806810706853866,-0.6892036199569702,-0.0442174933850765,0.0228682775050401,0.0,0.0,-0.6373501420021057,-0.1137492656707763
-0.062552735209465,0.6372098922729492,-0.080620601773262,-0.7002426981925964,-0.0430048517882823,0.0242526121437549,0.0,0.0,-0.8539678454399109,0.0991562604904174
-0.0633455291390419,0.62120521068573,-0.0805856958031654,-0.7112817168235779,-0.0417185463011264,0.0257261600345373,0.0,0.0,-0.0842357873916626,0.1252083778381347
-0.0641375556588172,0.6049521565437317,-0.080575056374073,-0.7223207950592041,-0.0403543747961521,0.0272833313792943,0.0,0.0,-0.0373430252075195,0.5567340850830078
-0.0648829489946365,0.5884487628936768,-0.0748451501131057,-0.7334775924682617,-0.0400592535734176,0.0059022610075771,0.0,0.0,0.6004242897033691,-0.0201144218444824
-0.0656047835946083,0.5722784399986267,-0.0726009756326675,-0.7186695337295532,-0.0396436899900436,0.0083112949505448,0.0,0.0,0.1181635856628418,0.3602254390716553
-0.0663941353559494,0.5564641952514648,-0.0790476649999618,-0.7028514742851257,-0.0395269058644771,0.0023354426957666,0.0,0.0,0.5112178325653076,0.7083654403686523
-0.0670743957161903,0.541578471660614,-0.0668532401323318,-0.6616179943084717,-0.0406857095658779,-0.0231759659945964,0.0,0.0,-0.538634181022644,0.4976520538330078
-0.0677545517683029,0.5264443755149841,-0.0669429153203964,-0.6726569533348083,-0.0417497344315052,-0.021280188113451,0.0,0.0,0.0272291898727417,0.9020848274230956
-0.0683210343122482,0.51186203956604,-0.0538499951362609,-0.6481825709342957,-0.0445122644305229,-0.0552507750689983,0.0,0.0,-0.8086972236633301,-0.0355345606803894
-0.0688876137137413,0.4970314502716064,-0.053969245404005,-0.6592220067977905,-0.0471749156713485,-0.0532527938485145,0.0,0.0,0.4313516616821289,0.4468885660171509
-0.069506362080574,0.482837051153183,-0.058906901627779,-0.6309576630592346,-0.0501034222543239,-0.0585701838135719,0.0,0.0,-0.1592251658439636,-0.2379999160766601
-0.0701254829764366,0.4683943092823028,-0.0590492598712444,-0.6419970989227295,-0.0529277212917804,-0.0564860701560974,0.0,0.0,-0.1576186418533325,0.8202862739562988
-0.0706936866044998,0.4537084698677063,-0.0527743212878704,-0.6528549194335938,-0.0569274462759494,-0.0799943432211875,0.0,0.0,0.5384547710418701,0.3629128932952881
-0.071163460612297,0.439573734998703,-0.043360773473978,-0.6283511519432068,-0.060502853244543,-0.0715083628892898,0.0,0.0,0.4332278966903686,0.0576409101486206
-0.0716424956917762,0.4257013499736786,-0.0442555136978626,-0.6167017817497253,-0.0641042068600654,-0.0720270946621894,0.0,0.0,0.9587690830230712,-0.4735434055328369
-0.0720168128609657,0.4121497571468353,-0.0342850647866725,-0.6024292707443237,-0.0672218054533004,-0.0623521506786346,0.0,0.0,0.6975619792938232,-0.7581299543380737
-0.0724640861153602,0.398873895406723,-0.0431382805109024,-0.5901125073432922,-0.0687908306717872,-0.0313803404569625,0.0,0.0,-0.197388470172882,0.5628228187561035
-0.0728677734732627,0.3853501081466675,-0.037787839770317,-0.6011782288551331,-0.071350410580635,-0.0511912330985069,0.0,0.0,-0.1866347789764404,-0.1076768040657043
-0.0732720345258712,0.3715779483318329,-0.0379575192928314,-0.6122173070907593,-0.0737956389784812,-0.0489049330353736,0.0,0.0,0.8739694356918335,-0.6457122564315796
-0.0737954154610633,0.358971357345581,-0.050938855856657,-0.5603617429733276,-0.0751873105764389,-0.0278332736343145,0.0,0.0,0.4498970508575439,-0.6742659211158752
-0.0744757652282714,0.3465641736984253,-0.0678536295890808,-0.5514355301856995,-0.0753587260842323,-0.0034281630069017,0.0,0.0,0.6160104274749756,0.9182294607162476
-0.074981115758419,0.3350601196289062,-0.0486918427050113,-0.5113866329193115,-0.0771797522902488,-0.0364204719662666,0.0,0.0,-0.6589764356613159,0.3396806716918945
-0.0754866600036621,0.3233075439929962,-0.0488381311297416,-0.5224252939224243,-0.0788832008838653,-0.034069076180458,0.0,0.0,-0.6172357797622681,-0.8661583662033081
-0.0760666877031326,0.3113189935684204,-0.0583093240857124,-0.5328096151351929,-0.0785852670669555,0.0059588188305497,0.0,0.0,0.1948802471160888,-0.3231189846992492
-0.0766158103942871,0.2998392283916473,-0.055283136665821,-0.5101932883262634,-0.0782086178660392,0.0075329155661165,0.0,0.0,0.4539071321487427,0.8323702812194824
-0.0769729614257812,0.2888588309288025,-0.0346649847924709,-0.4880701601505279,-0.0792557820677757,-0.0209433082491159,0.0,0.0,-0.5915092825889587,0.0122854709625244
-0.0773300155997276,0.2776300311088562,-0.0347589328885078,-0.4991086423397064,-0.0801833719015121,-0.0185517817735672,0.0,0.0,0.4411643743515014,0.5905025005340576
-0.077524185180664,0.2666573524475097,-0.0176103767007589,-0.4877719581127167,-0.081975407898426,-0.0358408465981483,0.0,0.0,0.4528892040252685,-0.1982996463775634
-0.0775476470589637,0.2561710774898529,-0.0012629178818315,-0.4661176800727844,-0.0830487310886383,-0.0214663185179233,0.0,0.0,0.1294792890548706,-0.4085718989372253
-0.0774528533220291,0.2458274662494659,0.0099911782890558,-0.4597454071044922,-0.0835607498884201,-0.0102401403710246,0.0,0.0,0.2551345825195312,-0.590311586856842
-0.0773604363203048,0.2360991388559341,0.0084624895825982,-0.4323248863220215,-0.0827836915850639,0.0155409108847379,0.0,0.0,-0.4774221181869507,-0.4808844327926636
-0.0772665962576866,0.2261223196983337,0.0084742922335863,-0.4433632493019104,-0.0818858593702316,0.0179567858576774,0.0,0.0,-0.2985528707504272,0.0060474872589111
-0.0771711319684982,0.2158970981836319,0.0085124811157584,-0.4544016122817993,-0.0808671340346336,0.0203748140484094,0.0,0.0,0.3641057014465332,-0.25749671459198
-0.0769691467285156,0.2058162093162536,0.0186679027974605,-0.4479577839374542,-0.0793422162532806,0.0304980464279651,0.0,0.0,-0.1614313125610351,-0.9275556206703186
-0.0768445953726768,0.1954937726259231,0.0087675368413329,-0.4585847556591034,-0.0756883770227432,0.0730765834450721,0.0,0.0,0.4381210803985595,0.6669909954071045
-0.0765267387032508,0.1860390305519104,0.0291508249938488,-0.4200811386108398,-0.0730857029557228,0.0520535111427307,0.0,0.0,-0.1378313302993774,-0.3308001160621643
-0.0762061104178428,0.176335796713829,0.0293110720813274,-0.4311201274394989,-0.0703620761632919,0.0544724836945533,0.0,0.0,0.1471818685531616,-0.6366414427757263
-0.075990006327629,0.1672320961952209,0.0175939034670591,-0.4044243097305298,-0.0663862824440002,0.0795157849788665,0.0,0.0,-0.4103018641471863,0.4853477478027344
-0.0757703781127929,0.1578801274299621,0.0178245306015014,-0.4154641032218933,-0.062289722263813,0.0819311887025833,0.0,0.0,-0.1296587586402893,0.5879895687103271
-0.0755042061209678,0.1482801735401153,0.0234195720404386,-0.4265359044075012,-0.059138000011444,0.0630345195531845,0.0,0.0,0.467576265335083,0.2146708965301513
-0.0752678886055946,0.1394343227148056,0.0206676386296749,-0.3930337131023407,-0.0562057308852672,0.0586454682052135,0.0,0.0,0.0620945692062377,0.2192201614379882
-0.0750248879194259,0.1308209300041198,0.021292321383953,-0.382707804441452,-0.0532271303236484,0.0595720596611499,0.0,0.0,0.2347084283828735,0.3654071092605591
-0.0748398751020431,0.1226394027471542,0.015774842351675,-0.3635313808917999,-0.0505317524075508,0.0539072751998901,0.0,0.0,-0.3223624229431152,0.2633119821548462
-0.0746493339538574,0.1142093986272811,0.016205683350563,-0.3745705783367157,-0.0477165393531322,0.0563043467700481,0.0,0.0,0.6645505428314209,0.8336472511291504
-0.0742340087890625,0.106607586145401,0.0400351844727993,-0.3378112912178039,-0.0462377481162548,0.0295756496489048,0.0,0.0,0.1124591827392578,-0.4740397930145263
-0.0737595558166503,0.0991268008947372,0.0456365123391151,-0.332425981760025,-0.0444485582411289,0.0357837341725826,0.0,0.0,-0.0982791185379028,-0.4872012138366699
-0.0732782334089279,0.0913976058363914,0.04620111733675,-0.3434649109840393,-0.0425403527915477,0.0381640717387199,0.0,0.0,0.3451889753341675,-0.0768364071846008
-0.0727812796831131,0.084367997944355,0.0477273687720298,-0.3123685717582702,-0.0405996516346931,0.0388143621385097,0.0,0.0,-0.2269673943519592,-0.4082335233688354
-0.0722764953970909,0.0770901292562484,0.0483854450285434,-0.3234075903892517,-0.0385405831038951,0.0411813706159591,0.0,0.0,0.2249468564987182,0.1583681106567382
-0.0716904625296592,0.0702047199010849,0.0561361201107502,-0.3059569597244262,-0.0361018665134906,0.0487743578851223,0.0,0.0,0.4540537595748901,0.1216285228729248
-0.0710761100053787,0.0641484335064888,0.0588817968964576,-0.269107311964035,-0.0335748791694641,0.0505396015942096,0.0,0.0,-0.4734497666358948,-0.4679644107818603
-0.0704524964094162,0.0578438155353069,0.0596846155822277,-0.2801466286182403,-0.0309306867420673,0.0528837852180004,0.0,0.0,0.1691081523895263,0.5541472434997559
-0.0697025284171104,0.0517695769667625,0.0732030719518661,-0.2699306905269623,-0.0291559789329767,0.0354940816760063,0.0,0.0,-0.3556286096572876,0.2904458045959472
-0.0689423531293869,0.0454469285905361,0.0741042643785476,-0.2809697687625885,-0.0272649191319942,0.037821214646101,0.0,0.0,0.2906749248504638,0.7537674903869629
-0.0682138428092002,0.0394791215658187,0.0724814385175705,-0.2652308642864227,-0.0269016940146684,0.007264238782227,0.0,0.0,0.4818146228790283,0.5969388484954834
-0.0674344077706337,0.0340196453034877,0.0787156075239181,-0.2426593899726867,-0.0276572629809379,-0.0151112731546163,0.0,0.0,0.2256156206130981,0.7012593746185303
-0.0665552169084549,0.0289005618542432,0.0899545699357986,-0.2275515645742416,-0.0296638645231723,-0.0401319079101085,0.0,0.0,0.1911134719848632,-0.156315803527832
-0.0655619651079177,0.0239176601171493,0.1007932797074318,-0.2214923352003097,-0.031120479106903,-0.0291323754936456,0.0,0.0,0.2801065444946289,-0.0600031018257141
-0.0644641891121864,0.0194771382957696,0.1107857450842857,-0.1973776370286941,-0.0321138501167297,-0.0198672786355018,0.0,0.0,0.3254232406616211,-0.6187405586242676
-0.0633591637015342,0.0157656054943799,0.1101048737764358,-0.1649484038352966,-0.0317207239568233,0.0078623816370964,0.0,0.0,-0.3093026876449585,0.0025632381439208
