x_pos,y_pos,x_vel,y_vel,angle,ang_vel,leg_1,leg_2,main_booster,lat_booster
-0.0015002250438556,1.4033868312835691,-0.1522797048091888,-0.334809809923172,0.0020210542716085,0.0398864485323429,0.0,0.0,-0.7840529026156842,0.7002894869012928
-0.0029145241715013,1.3956358432769775,-0.1421746462583542,-0.3444834947586059,0.0027624117210507,0.0148292426019907,0.0,0.0,0.5695411430551431,0.6058561182084472
-0.0041155815124511,1.3882189989089966,-0.1202879697084426,-0.3296395540237427,0.0029344516806304,0.0034413929097354,0.0,0.0,-0.2417000961983146,-0.734366307184871
-0.0053541185334324,1.3805617094039917,-0.1260883808135986,-0.3403307199478149,0.0051393969915807,0.0441031791269779,0.0,0.0,-0.3228251525224455,0.7916180308883881
-0.0064831734634935,1.3726699352264404,-0.1135119944810867,-0.3507456481456756,0.0057446924038231,0.0121071254834532,0.0,0.0,0.0404080950000729,-0.5486818138773222
-0.0075245858170092,1.365053415298462,-0.1063440069556236,-0.3385247588157654,0.0079136006534099,0.0433821305632591,0.0,0.0,-0.7401350065910368,-0.6931629130072572
-0.008584308438003,1.3571985960006714,-0.1099201664328575,-0.3491265177726745,0.011822004802525,0.078175276517868,0.0,0.0,0.1912854027342847,-0.9841111356868232
-0.0095596313476562,1.3498101234436035,-0.1038189381361007,-0.3284367620944977,0.0180329829454422,0.1242308989167213,0.0,0.0,0.0706756383542139,-0.8231436746205895
-0.0105766300112009,1.3430050611495972,-0.10995963960886,-0.3025680780410766,0.026197250932455,0.1633006036281585,0.0,0.0,-0.047875107665209,0.7747952550821616
-0.0114890094846487,1.3359705209732056,-0.0982768461108207,-0.3127888441085815,0.0331616923213005,0.1393018364906311,0.0,0.0,-0.7910067279957342,0.5113944461046465
-0.012309837155044,1.3287018537521362,-0.0882967263460159,-0.3232057988643646,0.0393076725304126,0.122930884361267,0.0,0.0,-0.1200493238989584,-0.5196921255665111
-0.0131197925657033,1.3211930990219116,-0.0884740725159645,-0.3339360058307647,0.0467071756720542,0.1480035036802292,0.0,0.0,0.2648436081904046,0.9723036792042864
-0.0137138366699218,1.3142683506011963,-0.0653352960944175,-0.3079591989517212,0.0525785721838474,0.1174389868974685,0.0,0.0,-0.2729905776214698,-0.5892923885577319
-0.0142991067841649,1.307098150253296,-0.0658616051077842,-0.3189542591571808,0.0598384626209735,0.1452110111713409,0.0,0.0,0.7470172661609675,0.5311305810119639
-0.0146855358034372,1.3010200262069702,-0.0457188859581947,-0.2704361379146576,0.0668520331382751,0.1402843743562698,0.0,0.0,-0.8733128020656782,-0.7481382993513812
-0.0150678632780909,1.294691562652588,-0.0469020530581474,-0.281671941280365,0.0754407793283462,0.1717904061079025,0.0,0.0,-0.7247932422374557,0.9161156310137508
-0.0153094287961721,1.2881475687026978,-0.0309266950935125,-0.2912023365497589,0.0821485221385955,0.1341669857501983,0.0,0.0,0.8252709625911379,-0.8535387434022459
-0.0154253961518406,1.281991720199585,-0.0207690186798572,-0.2741197049617767,0.0912554189562797,0.1821546107530594,0.0,0.0,-0.0681762290325385,-0.6962057780786812
-0.0155332563444972,1.2756001949310305,-0.0214906521141529,-0.2847558259963989,0.1018841192126274,0.2125933170318603,0.0,0.0,0.8510810014502099,0.6208675125886236
-0.0156981460750103,1.269911527633667,-0.0260489787906408,-0.2535060942173004,0.1113849431276321,0.1900336295366287,0.0,0.0,-0.5044527341196625,0.9252249037196624
-0.0157197955995798,1.2640079259872437,-0.0098282136023044,-0.2629631459712982,0.1190168485045433,0.152651697397232,0.0,0.0,0.819960753366864,-0.983577038673904
-0.0158051494508981,1.2585777044296265,-0.0185601562261581,-0.2421702444553375,0.1290037482976913,0.1997561007738113,0.0,0.0,0.804131649931507,-0.7425701844953949
-0.0158150680363178,1.2538141012191772,-0.0131958052515983,-0.2128240019083023,0.1411813646554947,0.2435735911130905,0.0,0.0,-0.2011199187578671,-0.9803182679234508
-0.0158343315124511,1.2487905025482178,-0.016225192695856,-0.2246941775083542,0.1554658412933349,0.2857156097888946,0.0,0.0,-0.6603332792777803,-0.9196029436752216
-0.0158849712461233,1.2435147762298584,-0.0219726674258708,-0.2363292127847671,0.172393724322319,0.3385880291461944,0.0,0.0,0.2919160579388504,0.5110059905036324
-0.0160521510988473,1.2387795448303225,-0.0326496884226799,-0.2123857289552688,0.1883893311023712,0.3199117183685303,0.0,0.0,-0.8298035017857015,-0.5988266650614922
-0.0162071231752634,1.2338019609451294,-0.0329510159790515,-0.2235452085733413,0.2059517800807953,0.3512493968009949,0.0,0.0,0.6359196052903504,0.5331121735983833
-0.0165655128657817,1.2297672033309937,-0.052161406725645,-0.1816816478967666,0.2224486470222473,0.3299370408058166,0.0,0.0,0.1251622183064225,0.751923221565723
-0.0170230865478515,1.226263165473938,-0.0608241334557533,-0.1580826491117477,0.2377205938100814,0.3054390549659729,0.0,0.0,0.0634299258816974,-0.7950957064543764
-0.0175706855952739,1.2229530811309814,-0.0717127695679664,-0.1499474346637725,0.2549711465835571,0.3450108468532562,0.0,0.0,0.4693514155979108,-0.8297935525633824
-0.0182953830808401,1.220495343208313,-0.0913718044757843,-0.1126357614994049,0.2742952406406402,0.3864827156066894,0.0,0.0,-0.885287880897522,0.9983779191970824
-0.0188933368772268,1.2178281545639038,-0.0772452130913734,-0.1219220906496048,0.2922425270080566,0.3589455783367157,0.0,0.0,-0.874823808670044,0.9918777942657472
-0.0193683616816997,1.2149665355682373,-0.0635503455996513,-0.1304850429296493,0.3088220953941345,0.3315907418727875,0.0,0.0,-0.8870899081230164,0.9966809749603271
-0.0197141654789447,1.2118957042694092,-0.0491830371320247,-0.1396640986204147,0.3239774405956268,0.3031073212623596,0.0,0.0,-0.8215402960777283,0.997600793838501
-0.0199234969913959,1.2086318731307983,-0.0338091813027858,-0.1480021476745605,0.3374210596084595,0.2688722908496856,0.0,0.0,-0.8038028478622437,0.9864561557769777
-0.0199980735778808,1.2051806449890137,-0.018659833818674,-0.1560458391904831,0.3491600155830383,0.2347791939973831,0.0,0.0,-0.8981336355209351,0.996800422668457
-0.01993989944458,1.201528787612915,-0.0038453929591923,-0.1646780371665954,0.3593342006206512,0.2034835070371627,0.0,0.0,-0.7569928169250488,0.989980936050415
-0.0197446830570697,1.197693109512329,0.011578376404941,-0.1724856495857238,0.3677219748497009,0.1677556335926056,0.0,0.0,-0.8860564827919006,0.9917126893997192
-0.0194227211177349,1.193671941757202,0.0257324986159801,-0.1803954243659973,0.3745747804641723,0.1370559781789779,0.0,0.0,-0.9132009744644164,0.9779441356658936
-0.018964385613799,1.1894609928131104,0.0410029664635658,-0.1884351223707199,0.3797029852867126,0.1025639772415161,0.0,0.0,-0.8836166262626648,0.9815959930419922
-0.0183874126523733,1.1850574016571045,0.0540941953659057,-0.1966818124055862,0.383541852235794,0.0767774432897567,0.0,0.0,-0.860161304473877,0.9883493185043336
-0.0176609996706247,1.1804686784744265,0.0709743872284889,-0.2043921798467636,0.3853130340576172,0.0354236662387847,0.0,0.0,-0.92758309841156,0.9970426559448242
-0.0167854316532611,1.1756854057312012,0.0877691879868507,-0.2125332355499267,0.3850950896739959,-0.004359143320471,0.0,0.0,-0.6989379525184631,0.9969724416732788
-0.0157625190913677,1.1707160472869873,0.1043796762824058,-0.2202966511249542,0.3828696012496948,-0.0445093065500259,0.0,0.0,-0.837182879447937,0.9834867715835572
-0.0146075244992971,1.1655406951904297,0.1189919859170913,-0.229078009724617,0.3791532516479492,-0.0743275955319404,0.0,0.0,-0.8626362681388855,0.9941167831420898
-0.0133096696808934,1.1601674556732178,0.1349932700395584,-0.2374437153339386,0.3736300766468048,-0.1104633659124374,0.0,0.0,-0.5528351664543152,0.9998326301574708
-0.0118676181882619,1.1546010971069336,0.1511928439140319,-0.2455793470144271,0.3662319779396057,-0.1479618847370147,0.0,0.0,-0.6905351877212524,0.7579715251922607
-0.0103199956938624,1.1488336324691772,0.1626036018133163,-0.2543521523475647,0.3579413294792175,-0.1658128947019577,0.0,0.0,-0.6465615630149841,0.1525553464889526
-0.0087102893739938,1.1428312063217163,0.1684897392988205,-0.2649266719818115,0.3500352799892425,-0.1581209748983383,0.0,0.0,-0.4976896047592163,0.9855194091796876
-0.0069672586396336,1.1366298198699951,0.1833183616399765,-0.273458868265152,0.3405669927597046,-0.1893659383058548,0.0,0.0,-0.4464081525802612,0.9405593872070312
-0.0050758360885083,1.1302393674850464,0.20012167096138,-0.281468003988266,0.3290984630584717,-0.2293703556060791,0.0,0.0,0.1597075462341308,0.9802621603012084
-0.0032630921341478,1.1243693828582764,0.1938527524471283,-0.2580783367156982,0.3160072565078735,-0.2618239521980285,0.0,0.0,-0.3694530129432678,0.2491445541381836
-0.0013882636558264,1.1182653903961182,0.1997448205947876,-0.2686598002910614,0.3032988309860229,-0.254169225692749,0.0,0.0,0.2392778396606445,0.9214544296264648
0.000440025323769,1.1128263473510742,0.1965996325016021,-0.2389312386512756,0.2890890836715698,-0.2841957807540893,0.0,0.0,0.3265573978424072,0.1560711860656738
0.0023334503639489,1.1077674627304075,0.2022598534822464,-0.2223307341337204,0.2758140861988067,-0.2655007243156433,0.0,0.0,0.1168348789215087,0.7893484830856323
0.004191112704575,1.1029263734817505,0.1999594271183014,-0.212549015879631,0.2612776160240173,-0.290729284286499,0.0,0.0,-0.3318755626678467,-0.1528472900390625
0.0061107636429369,1.0978516340255735,0.2058418244123459,-0.2231321632862091,0.2471209466457367,-0.283133327960968,0.0,0.0,0.1119999885559082,-0.2652883529663086
0.0080714225769042,1.0932371616363523,0.2092010229825973,-0.2029263228178024,0.2337727844715118,-0.2669636309146881,0.0,0.0,-0.1580535769462585,-0.5291354656219482
0.0100577352568507,1.0883811712265017,0.2105102092027664,-0.2139811962842941,0.2217327058315277,-0.240801453590393,0.0,0.0,0.0826449394226074,0.3306777477264404
0.0119441989809274,1.0840277671813965,0.2004109323024749,-0.191766932606697,0.2098385542631149,-0.2378832995891571,0.0,0.0,0.3249744176864624,-0.3356540203094482
0.0138708110898733,1.0798879861831665,0.2039098441600799,-0.182434856891632,0.1985099613666534,-0.2265724688768386,0.0,0.0,-0.141345739364624,-0.3548839092254638
0.0158595088869333,1.0755133628845217,0.2097582817077636,-0.1930094361305236,0.1875557750463485,-0.2190835922956466,0.0,0.0,0.295287013053894,-0.7668787240982056
0.0178827289491891,1.0715124607086182,0.2111823558807373,-0.1767156422138214,0.1786471605300903,-0.1781716048717498,0.0,0.0,0.2459300756454467,-0.700826108455658
0.0198505409061908,1.0679497718811035,0.2038717567920684,-0.1575057208538055,0.1715420186519622,-0.1421024948358535,0.0,0.0,0.4559316635131836,0.7726155519485474
0.021888256072998,1.064685344696045,0.2120308429002761,-0.1441597789525985,0.1632740348577499,-0.1653595268726349,0.0,0.0,0.3638761043548584,0.0526317358016967
0.0238075256347656,1.0618821382522583,0.2002959251403808,-0.1236894503235817,0.1549018919467926,-0.1674429029226303,0.0,0.0,-0.0004828572273254,-0.4115338325500488
0.0257883071899414,1.058843016624451,0.2060880362987518,-0.1342578530311584,0.146896556019783,-0.1601067781448364,0.0,0.0,0.439638614654541,-0.559080958366394
0.0278266910463571,1.0559464693069458,0.210201546549797,-0.1281159967184066,0.1405560970306396,-0.1268093138933181,0.0,0.0,0.4081673622131347,-0.6108267307281494
0.0298008918762207,1.053896427154541,0.2021438330411911,-0.0906765162944793,0.1358475089073181,-0.0941717401146888,0.0,0.0,0.2678003311157226,0.7257664203643799
0.0317636504769325,1.052141785621643,0.2022028267383575,-0.0774591341614723,0.1299433410167694,-0.1180830970406532,0.0,0.0,0.7716829776763916,-0.1085946559906005
0.0335954651236534,1.0512114763259888,0.1892141997814178,-0.0408346839249134,0.1239418387413024,-0.1200300827622413,0.0,0.0,0.788994550704956,-0.4817231893539428
0.0354376807808876,1.0510538816452026,0.18973970413208,-0.0065548908896744,0.1184499040246009,-0.1098385900259018,0.0,0.0,0.7149002552032471,0.0366508960723876
0.0371038429439067,1.0519417524337769,0.1724087744951248,0.0399090237915515,0.11269211769104,-0.1151559501886367,0.0,0.0,0.6832557916641235,-0.665785014629364
0.038792323321104,1.0534745454788208,0.1727733761072158,0.0684195086359977,0.1087964326143264,-0.0779136270284652,0.0,0.0,0.7786847352981567,0.0606319904327392
0.0404588691890239,1.0553926229476929,0.1703930050134658,0.0855107381939888,0.105079136788845,-0.0743461400270462,0.0,0.0,0.7974162101745605,0.3778150081634521
0.0422212593257427,1.0576127767562866,0.1792978346347808,0.0988885089755058,0.1020467281341552,-0.0606479048728942,0.0,0.0,0.3703267574310303,0.1752794981002807
0.043988037854433,1.0600121021270752,0.1795143187046051,0.1068285554647445,0.0992319658398628,-0.0562955141067504,0.0,0.0,0.722723126411438,0.3206636905670166
0.0457228645682334,1.0634077787399292,0.1760300248861313,0.1510801017284393,0.0967114493250846,-0.0504103414714336,0.0,0.0,0.45015549659729,0.9257364273071288
0.0475988388061523,1.0676666498184204,0.1915876418352127,0.189542755484581,0.0927520245313644,-0.0791886150836944,0.0,0.0,0.6309566497802734,0.0099855661392211
0.0493475906550884,1.0728784799575806,0.179060697555542,0.231888473033905,0.0886054784059524,-0.0829310864210128,0.0,0.0,-0.0907883048057556,0.8325256109237671
0.051205825060606,1.0778517723083496,0.1909897625446319,0.2213294357061386,0.0834791958332061,-0.1025254875421524,0.0,0.0,0.0447806119918823,0.4168331623077392
0.0531045906245708,1.083338499069214,0.1946121603250503,0.2441128194332122,0.0787853226065635,-0.0938773229718208,0.0,0.0,-0.4115299582481384,0.8487305641174316
0.0551152229309082,1.0885950326919556,0.2069154530763626,0.2339158356189727,0.0729937255382537,-0.1158317700028419,0.0,0.0,-0.6997486352920532,-0.1347309947013855
0.0571814551949501,1.0936145782470703,0.212174654006958,0.2233533412218094,0.0675040036439895,-0.1097944229841232,0.0,0.0,0.6715395450592041,-0.2348097562789917
0.0592429153621196,1.0994547605514526,0.2114531993865966,0.259797602891922,0.0622531287372112,-0.1050177961587905,0.0,0.0,0.1886932849884033,0.470845103263855
0.0613951683044433,1.1056907176971436,0.21995310485363,0.2773365676403045,0.0575798265635967,-0.0934659168124198,0.0,0.0,0.0504659414291381,0.5900826454162598
0.0636521354317665,1.1120151281356812,0.2313021868467331,0.2812919318675995,0.0520362071692943,-0.1108722537755966,0.0,0.0,-0.6218394637107849,0.4600777626037597
0.0659617409110069,1.1181025505065918,0.2362915724515915,0.2707303762435913,0.0467635802924633,-0.1054525151848793,0.0,0.0,0.0314644575119018,0.5547595024108887
0.0684526413679122,1.1244972944259644,0.2551276087760925,0.2843908965587616,0.040804274380207,-0.1191861853003501,0.0,0.0,-0.3178666830062866,0.6644870042800903
0.0710592269897461,1.130654215812683,0.2680815160274505,0.2738238275051117,0.0334701351821422,-0.1466830521821975,0.0,0.0,0.5825473070144653,-0.083272099494934
0.0736860260367393,1.1376529932022097,0.269886314868927,0.3111972212791443,0.0263530891388654,-0.1423406451940536,0.0,0.0,-0.8162833452224731,-0.1893917322158813
0.0763614624738693,1.1444149017333984,0.2745137512683868,0.3006346523761749,0.0194676406681537,-0.1377089619636535,0.0,0.0,-0.6418007612228394,0.2000839710235595
0.0790842995047569,1.150939702987671,0.2790336906909942,0.2900724709033966,0.0128025040030479,-0.1333023905754089,0.0,0.0,-0.4622508883476257,0.2613685131072998
0.0818532928824424,1.157227873802185,0.2834388613700866,0.2795106768608093,0.0063459048978984,-0.1291319578886032,0.0,0.0,-0.9144726395606996,0.1638503074645996
0.0846671089529991,1.1632789373397827,0.2877216041088104,0.2689492106437683,8.547668403480202e-05,-0.1252085417509079,0.0,0.0,-0.3568227887153625,-0.6361994743347168
0.0874810218811035,1.1691004037857056,0.2864449024200439,0.2587257623672485,-0.0049044154584407,-0.0997978523373603,0.0,0.0,-0.6546698212623596,0.1381800174713134
0.090336799621582,1.1746846437454224,0.2904588580131531,0.2481658905744552,-0.0097243953496217,-0.0963997542858123,0.0,0.0,-0.1509986519813537,-0.6395179033279419
0.0931717902421951,1.1800382137298584,0.2866681814193725,0.237915500998497,-0.0128536485135555,-0.0625850185751915,0.0,0.0,-0.4528264999389648,-0.2141363620758056
0.0960453003644943,1.1851544380187988,0.2903804183006286,0.2273569703102111,-0.0158411469310522,-0.0597499683499336,0.0,0.0,-0.4701931476593017,-0.6621395349502563
0.0988986939191818,1.1900393962860107,0.2867761254310608,0.2170871794223785,-0.0172675140202045,-0.0285273194313049,0.0,0.0,-0.1584755778312683,0.0246027708053588
0.1017868965864181,1.1946865320205688,0.2901531457901001,0.2065293341875076,-0.0185818653553724,-0.0262868106365203,0.0,0.0,-0.1499814987182617,-0.7727546095848083
0.1046443954110145,1.199095368385315,0.2853583693504333,0.1959559917449951,-0.0181994419544935,0.0076484880410134,0.0,0.0,-0.0466858148574829,-0.2517473697662353
0.1075326949357986,1.203266739845276,0.2883671820163727,0.1853982508182525,-0.0177358649671077,0.0092711737379431,0.0,0.0,-0.0059359073638916,-0.3908141255378723
0.1104497909545898,1.207200527191162,0.2911800444126129,0.1748404800891876,-0.0172069128602743,0.0105789666995406,0.0,0.0,0.1979507207870483,-0.982675313949585
0.113415241241455,1.211683750152588,0.2939743399620056,0.1992814838886261,-0.0146624315530061,0.050889503210783,0.0,0.0,0.0693695545196533,-0.64026939868927
0.1164027228951454,1.2162822484970093,0.2947941422462463,0.2044132500886917,-0.0107574174180626,0.0780999958515167,0.0,0.0,0.1038894653320312,-0.2733571529388428
0.1195147484540939,1.2214064598083496,0.3067638278007507,0.2277695089578628,-0.0063864244148135,0.0874198898673057,0.0,0.0,-0.1893046498298645,-0.1177756190299987
0.1226462349295616,1.2262933254241943,0.3087237775325775,0.217210054397583,-0.0020134740043431,0.0874590426683425,0.0,0.0,-0.2125126719474792,-0.9093592166900636
0.1257400512695312,1.230953812599182,0.303568035364151,0.2071289718151092,0.0037256241776049,0.114781841635704,0.0,0.0,-0.1480185389518737,0.2552717924118042
0.1288485527038574,1.235377311706543,0.3050687313079834,0.1965683847665786,0.0094355707988142,0.1141990199685096,0.0,0.0,-0.0689648985862732,0.6468406915664673
0.1320198029279709,1.2395706176757812,0.3126763105392456,0.1863356977701187,0.0138300359249114,0.0878889113664627,0.0,0.0,0.157605767250061,-0.8129982352256775
0.1351777017116546,1.2443612813949585,0.3097288906574249,0.2128498554229736,0.019815344363451,0.1197061762213707,0.0,0.0,0.093942642211914,-0.5768929719924927
0.1383504867553711,1.2493677139282229,0.3100441694259643,0.2223974913358688,0.0269677098840475,0.1430469751358032,0.0,0.0,-0.0612136125564575,0.907423973083496
0.1415851563215255,1.2541409730911257,0.3177682161331177,0.2120336443185806,0.0325938314199447,0.1125221848487854,0.0,0.0,0.4005916118621826,0.8639739751815796
0.1447526961565017,1.2593263387680054,0.3130419850349426,0.2303709983825683,0.0362631119787693,0.0733857750892639,0.0,0.0,0.3159017562866211,-0.4112972021102905
0.1478863656520843,1.264946222305298,0.3098525702953338,0.2496864944696426,0.0397383794188499,0.0695053115487098,0.0,0.0,-0.0569963455200195,0.9737716913223268
0.1510974913835525,1.2703315019607544,0.3197705149650574,0.239315465092659,0.0410657785832881,0.0265476889908313,0.0,0.0,0.0077501535415649,-0.3942658305168152
0.1543738394975662,1.2758129835128784,0.3260584771633148,0.2435762733221054,0.0426220409572124,0.0311256013810634,0.0,0.0,-0.1775569319725036,-0.9473814368247986
0.1575795114040374,1.2810571193695068,0.3175415694713592,0.2329821288585662,0.0456061251461505,0.0596818402409553,0.0,0.0,0.1735082864761352,0.9062169790267944
0.1608409881591797,1.286937236785889,0.3251110911369324,0.2613041698932647,0.0466305390000343,0.0204878356307744,0.0,0.0,-0.2296733260154724,-0.7132419347763062
0.1640398055315017,1.2925682067871094,0.3177370131015777,0.2501977384090423,0.0487523414194583,0.0424359329044818,0.0,0.0,-0.171478271484375,0.6988273859024048
0.1672881096601486,1.297967553138733,0.3245081901550293,0.239954337477684,0.0490736551582813,0.0064263576641678,0.0,0.0,-0.1904383897781372,-0.998651683330536
