x_pos,y_pos,x_vel,y_vel,angle,ang_vel,leg_1,leg_2,main_booster,lat_booster
-0.001440143561922,1.4029697179794312,-0.1458720862865448,-0.35336434841156,0.0016630181344226,0.0327971242368221,0.0,0.0,-0.1661513447761535,0.7777259349822998
-0.002730369567871,1.394383430480957,-0.1289356499910354,-0.3816098272800445,0.0015787706943228,-0.0016842347104102,0.0,0.0,-0.5842694044113159,0.6864352226257324
-0.003871250199154,1.385136961936951,-0.1123057454824447,-0.4109600484371185,-0.0001792638649931,-0.0351639948785305,0.0,0.0,-0.2905381917953491,-0.4029577970504761
-0.0049288747832179,1.3752351999282837,-0.1039908677339553,-0.4400774836540222,-0.0019342640880495,-0.0351031646132469,0.0,0.0,-0.0296142101287841,0.6024878025054932
-0.0058462144806981,1.3646801710128784,-0.088519737124443,-0.4691168367862701,-0.005114946514368,-0.0636196359992027,0.0,0.0,-0.4677430987358093,-0.0681797266006469
-0.0066811563447117,1.3534703254699707,-0.0803210884332656,-0.4982313513755798,-0.0082548055797815,-0.0628029331564903,0.0,0.0,0.0004302263259887,-0.5700744986534119
-0.0074915885925292,1.3421306610107422,-0.079040415585041,-0.5039947628974915,-0.0102308616042137,-0.0395247042179107,0.0,0.0,-0.4627684950828552,-0.7055595517158508
-0.0082624433562159,1.3301386833190918,-0.076225146651268,-0.5329863429069519,-0.0110792387276887,-0.0169691331684589,0.0,0.0,0.0117088556289672,-0.8862412571907043
-0.0090253828093409,1.3182711601257324,-0.0773050338029861,-0.5274385809898376,-0.0100776813924312,0.0200328640639781,0.0,0.0,-0.1627600193023681,-0.4201846122741699
-0.0097082136198878,1.305748462677002,-0.0694137290120124,-0.556559145450592,-0.008964654058218,0.0222626831382513,0.0,0.0,-0.3926548957824707,-0.8481248617172241
-0.0103690149262547,1.2925721406936646,-0.0687934979796409,-0.5856002569198608,-0.0062816040590405,0.0536659136414527,0.0,0.0,-0.4105352163314819,-0.8807271122932434
-0.0110125541687011,1.2787396907806396,-0.068772867321968,-0.6147634387016296,-0.0019125748658552,0.0873889699578285,0.0,0.0,-0.8706791996955872,-0.7952820658683777
-0.0116275791078805,1.264256715774536,-0.0673325285315513,-0.6436904668807983,0.0038538561202585,0.1153391376137733,0.0,0.0,-0.8612604737281799,0.2007663249969482
-0.0121657373383641,1.2491191625595093,-0.059832863509655,-0.6728068590164185,0.0097972312942147,0.11887838691473,0.0,0.0,-0.7854265570640564,0.6137418746948242
-0.0125684738159179,1.233334183692932,-0.0449519678950309,-0.701592743396759,0.0144306886941194,0.0926774889230728,0.0,0.0,-0.5526232719421387,0.0478326082229614
-0.0128962518647313,1.2168943881988523,-0.0376735776662826,-0.7307090759277344,0.0192717034369707,0.0968290269374847,0.0,0.0,-0.6367599964141846,0.7587975263595581
-0.0130767822265625,1.1998108625411987,-0.0212994702160358,-0.7593146562576294,0.0224823616445064,0.0642191618680954,0.0,0.0,-0.4837961196899414,-0.162258505821228
-0.013184642419219,1.182072401046753,-0.0142684057354927,-0.7884300947189331,0.025928096845746,0.0689206272363662,0.0,0.0,-0.1493659019470214,0.4111284017562866
-0.0132210729643702,1.163679122924805,-0.0073748179711401,-0.8175459504127502,0.029620312154293,0.0738508328795433,0.0,0.0,-0.2313432693481445,0.3020693063735962
-0.0131874084472656,1.1446313858032229,-0.0006251619197428,-0.8466619253158569,0.0335713475942611,0.079027459025383,0.0,0.0,0.3471769094467163,0.3962873220443725
-0.0130016328766942,1.1258530616760254,0.0138240037485957,-0.8347060680389404,0.0382778942584991,0.0941396579146385,0.0,0.0,0.3502367734909057,0.802367091178894
-0.0126881599426269,1.1069614887237549,0.0279088709503412,-0.8397120237350464,0.0416843369603157,0.0681347846984863,0.0,0.0,0.0857808589935302,0.28136146068573
-0.0122386934235692,1.0879569053649902,0.0408177711069583,-0.8447685837745667,0.0457797162234783,0.0819146782159805,0.0,0.0,0.7191665172576904,0.2822062969207763
-0.011667251586914,1.0687893629074097,0.0523533225059509,-0.8520451784133911,0.0505128800868988,0.0946717709302902,0.0,0.0,0.3625054359436035,0.8938946723937988
-0.0111235622316598,1.0497599840164185,0.0512050986289978,-0.8458631038665771,0.0536534078419208,0.0628160610795021,0.0,0.0,0.6560766696929932,0.5310108661651611
-0.0106704710051417,1.0311049222946167,0.0433078035712242,-0.8291801810264587,0.0556364879012107,0.0396614298224449,0.0,0.0,-0.0639686584472656,0.4215912818908691
-0.0101585388183593,1.0117952823638916,0.048853151500225,-0.8582943677902222,0.0579476989805698,0.0462241731584072,0.0,0.0,0.5302622318267822,0.7043706178665161
-0.0097116474062204,0.9929762482643129,0.0436922125518322,-0.836442768573761,0.0589360632002353,0.019766878336668,0.0,0.0,0.6158523559570312,0.4406325817108154
-0.0093819620087742,0.9746256470680236,0.0322194136679172,-0.8156164884567261,0.0596781186759471,0.0148412240669131,0.0,0.0,0.2031038999557495,0.6600486040115356
-0.0089856144040822,0.9561524391174316,0.03988504037261,-0.8210187554359436,0.0594334788620471,-0.0048928931355476,0.0,0.0,0.4286119937896728,0.7063329219818115
-0.0085088731721043,0.9381353259086608,0.0489545688033103,-0.8007118701934814,0.0581707805395126,-0.0252540148794651,0.0,0.0,0.0858062505722045,0.6779417991638184
-0.0080048562958836,0.9198904037475586,0.0527410320937633,-0.8107947111129761,0.0558624230325222,-0.0461673289537429,0.0,0.0,0.5176297426223755,-0.2988864183425903
-0.0075716972351074,0.902087390422821,0.0456345565617084,-0.7911641597747803,0.0535744950175285,-0.0457587167620658,0.0,0.0,0.5845625400543213,-0.0267930030822753
-0.0071743964217603,0.8841429352760315,0.0419420041143894,-0.7974582314491272,0.0513809621334075,-0.0438706055283546,0.0,0.0,0.4530787467956543,0.6347215175628662
-0.0066986083984375,0.8663765788078308,0.0506622977554798,-0.7895170450210571,0.0483390651643276,-0.0608380027115345,0.0,0.0,0.289724588394165,-0.2327662706375122
-0.0061984062194824,0.8488410711288452,0.0526403486728668,-0.7792717218399048,0.0457510538399219,-0.0517600253224372,0.0,0.0,0.1739206314086914,-0.3969295024871826
-0.005695438478142,0.8311343193054199,0.0526077821850776,-0.7868950963020325,0.0434701517224311,-0.0456180721521377,0.0,0.0,-0.2288090586662292,-0.1125636100769043
-0.0051588057540357,0.8127729892730713,0.0555695667862892,-0.8160092830657959,0.0415874719619751,-0.0376533940434455,0.0,0.0,0.2756276130676269,0.6734488010406494
-0.0045989034697413,0.7947403788566589,0.058897316455841,-0.8013635873794556,0.0387136898934841,-0.0574759431183338,0.0,0.0,-0.1205572485923767,-0.7245096564292908
-0.0040651322342455,0.7760510444641113,0.0544791407883167,-0.8306137323379517,0.0376206338405609,-0.0218609254807233,0.0,0.0,0.010079026222229,0.7885129451751709
-0.0035374641884118,0.7574262022972107,0.0550628192722797,-0.8277136087417603,0.035345684736967,-0.0454990155994892,0.0,0.0,0.3867462873458862,-0.2099846601486206
-0.0028986930847167,0.7388108372688293,0.0652831047773361,-0.827319324016571,0.0339654758572578,-0.0276043377816677,0.0,0.0,-0.0542928576469421,0.7590861320495605
-0.0021693229209631,0.7195358276367188,0.0756881609559059,-0.8566075563430786,0.0312521308660507,-0.0542670264840126,0.0,0.0,0.2542382478713989,-0.6873500943183899
-0.0014044761192053,0.7002076506614685,0.0772949680685997,-0.8590121865272522,0.0304523631930351,-0.0159953795373439,0.0,0.0,0.6924623250961304,-0.0133062601089477
-0.0006750106695108,0.6806749701499939,0.0735196843743324,-0.8681033253669739,0.0298865269869565,-0.0113166272640228,0.0,0.0,0.3822968006134033,-0.5568150281906128
5.674362182617188e-05,0.6609010100364685,0.0721014589071273,-0.8788675665855408,0.0309520345181226,0.0213098190724849,0.0,0.0,0.7886052131652832,0.1064052581787109
0.0008499145624227,0.641200602054596,0.0774870216846466,-0.8756130337715149,0.0327561199665069,0.0360818542540073,0.0,0.0,0.80967116355896,-0.2872525453567505
0.0014978408580645,0.6222085356712341,0.0631054937839508,-0.8441300988197327,0.0344268530607223,0.033414576202631,0.0,0.0,0.7891701459884644,0.4678590297698974
0.0019782066810876,0.603833794593811,0.0465678349137306,-0.8166906237602234,0.0358719713985919,0.0289025213569402,0.0,0.0,0.2519161701202392,0.3541228771209717
0.0024314881302416,0.5853810906410217,0.0434970371425151,-0.8201627135276794,0.0376847498118877,0.0362555235624313,0.0,0.0,0.3895739316940307,0.3332040309906006
0.0029877661727368,0.5670005679130554,0.0527771599590778,-0.8169907331466675,0.0405000708997249,0.0563065186142921,0.0,0.0,0.5732851028442383,0.4640927314758301
0.0034589767456054,0.5490133166313171,0.0440786629915237,-0.799515426158905,0.0435087047517299,0.0601726770401001,0.0,0.0,0.607043981552124,0.7985402345657349
0.0040883063338696,0.5310268998146057,0.0608301237225532,-0.7994600534439087,0.0455820821225643,0.0414680279791355,0.0,0.0,0.4778594970703125,-0.0450165271759033
0.0046816826798021,0.5134551525115967,0.0567627362906932,-0.7810457944869995,0.0481202751398086,0.0507638864219188,0.0,0.0,-0.0444028973579406,0.3183851242065429
0.0052664754912257,0.4952288568019867,0.0554559901356697,-0.8101603984832764,0.0511122122406959,0.0598386712372303,0.0,0.0,0.7555027008056641,-0.3024118542671203
0.0057138442061841,0.4770901203155517,0.0417190864682197,-0.8062697649002075,0.0540901944041252,0.0595597736537456,0.0,0.0,0.9265345335006714,0.492809534072876
0.0062078475020825,0.459697812795639,0.0454141050577163,-0.7731412649154663,0.0580329373478889,0.0788548290729522,0.0,0.0,0.8017737865447998,0.6853795051574707
0.0068614957854151,0.4427740573883056,0.0619000270962715,-0.7523024082183838,0.0614539198577404,0.0684195011854171,0.0,0.0,0.6040126085281372,0.569833517074585
0.007572459988296,0.4264098703861236,0.0681201294064521,-0.7274244427680969,0.0643951594829559,0.0588249042630195,0.0,0.0,0.8950763940811157,0.7353479862213135
0.0081705097109079,0.4107432067394256,0.058072667568922,-0.6963740587234497,0.066114604473114,0.0343886129558086,0.0,0.0,0.2816603183746338,0.4767180681228637
0.0087695121765136,0.394855797290802,0.0575020909309387,-0.7062126398086548,0.0684817880392074,0.0473436750471591,0.0,0.0,0.6552684307098389,0.0379679203033447
0.009198760613799,0.3793552815914154,0.0405275970697402,-0.689024031162262,0.0708495751023292,0.0473558530211448,0.0,0.0,0.7910137176513672,0.8126175403594971
0.009776210412383,0.3640594482421875,0.0562292635440826,-0.679886519908905,0.0723538994789123,0.0300865210592746,0.0,0.0,0.6322118043899536,0.4293452501296997
0.0103087425231933,0.3490176200866699,0.0511474721133708,-0.6686300039291382,0.0744336321949958,0.0415943935513496,0.0,0.0,0.7613639831542969,0.2421574592590332
0.0107918735593557,0.3339614272117615,0.0457031056284904,-0.6692947149276733,0.0770206674933433,0.0517403855919837,0.0,0.0,0.8932349681854248,0.514607310295105
0.0110865589231252,0.3192513287067413,0.0278656147420406,-0.6538652777671814,0.0786067470908165,0.0317216329276561,0.0,0.0,0.9279341697692872,0.4638679027557373
0.011299324221909,0.3053830862045288,0.0190876964479684,-0.6164833903312683,0.0807791352272033,0.043447308242321,0.0,0.0,0.9699008464813232,0.9101608991622924
0.0116341589018702,0.2913926243782043,0.0324301235377788,-0.6218559741973877,0.0818183794617652,0.0207849871367216,0.0,0.0,0.9417603015899658,0.8408951759338379
0.0119566917419433,0.2782696783542633,0.0323457829654216,-0.5832346677780151,0.081723041832447,-0.0019065368687734,0.0,0.0,0.7409783601760864,0.6737617254257202
0.0121528627350926,0.2652285099029541,0.0208440162241458,-0.5795443654060364,0.080509603023529,-0.0242689605802297,0.0,0.0,0.6362638473510742,0.7346806526184082
0.0122207645326852,0.2525334358215332,0.0092097204178571,-0.5640941858291626,0.0781067758798599,-0.0480563826858997,0.0,0.0,0.9073376655578612,0.7391047477722168
0.0122955320402979,0.2402711510658264,0.0108247753232717,-0.5448179244995117,0.0747934058308601,-0.0662676244974136,0.0,0.0,0.9145851135253906,0.5118639469146729
0.012145328335464,0.2288111001253128,-0.0106408586725592,-0.5091261267662048,0.0704595744609832,-0.0866767391562461,0.0,0.0,0.8341081142425537,0.6416056156158447
0.0120530128479003,0.2176705747842788,-0.0042645796202123,-0.4949096739292145,0.0655427202582359,-0.0983370095491409,0.0,0.0,0.6824606657028198,-0.0999390482902526
0.0118643762543797,0.2064684480428695,-0.0142063945531845,-0.4976750612258911,0.0609400942921638,-0.0920524895191192,0.0,0.0,0.495085597038269,0.787445068359375
0.0117522235959768,0.1950561106204986,-0.0055552921257913,-0.5069948434829712,0.0553524494171142,-0.1117529720067977,0.0,0.0,0.8707523345947266,-0.5613048672676086
0.0114995958283543,0.1835525780916214,-0.0211117807775735,-0.5111187696456909,0.0512486919760704,-0.0820752829313278,0.0,0.0,0.8784455060958862,0.3570095300674438
0.0111536979675292,0.1727448552846908,-0.0308751873672008,-0.4802212417125702,0.0475731007754802,-0.0735117048025131,0.0,0.0,0.8662581443786621,0.4864327907562256
0.0108160972595214,0.1626696139574051,-0.030932430177927,-0.4476993680000305,0.0447873845696449,-0.055714376270771,0.0,0.0,0.8705599308013916,0.5932161808013916
0.0103097911924123,0.1533265262842178,-0.0467252321541309,-0.4151366949081421,0.040923535823822,-0.0772767513990402,0.0,0.0,0.6632089614868164,0.5470597743988037
0.0096549037843942,0.143817201256752,-0.0605749189853668,-0.4225135445594787,0.0360736325383186,-0.0969981625676155,0.0,0.0,0.6611194610595703,0.5483922958374023
0.0090189930051565,0.1348543912172317,-0.0581667721271514,-0.3982270359992981,0.0307158585637807,-0.1071554645895958,0.0,0.0,0.4272361993789673,0.0709326267242431
0.0082409856840968,0.1259784251451492,-0.0724398642778396,-0.3943848311901092,0.0254211984574794,-0.1058931201696395,0.0,0.0,0.1224721670150756,0.5833092927932739
0.0074164392426609,0.1171412318944931,-0.076323814690113,-0.3926713168621063,0.0193662270903587,-0.1210996136069297,0.0,0.0,0.3814139366149902,0.3061423301696777
0.0065308571793138,0.1085261926054954,-0.0828438550233841,-0.3828279078006744,0.013730239123106,-0.112719751894474,0.0,0.0,0.512527346611023,0.6420943737030029
0.0057363510131835,0.1000585630536079,-0.0731096044182777,-0.3762957453727722,0.0074652973562479,-0.1252988874912262,0.0,0.0,0.7820284366607666,0.1668328046798706
0.0049248696304857,0.091490514576435,-0.0753909721970558,-0.38078573346138,0.0017803420778363,-0.1136990785598754,0.0,0.0,0.8389686346054077,0.537914514541626
0.0042252540588378,0.082936555147171,-0.063902348279953,-0.3801783621311188,-0.0042017651721835,-0.119642399251461,0.0,0.0,0.9415169954299928,-0.2984597682952881
0.0036617279984056,0.0747335031628608,-0.0515690371394157,-0.3646020591259002,-0.0089268088340759,-0.0945005267858505,0.0,0.0,0.9610360860824584,-0.2714486122131347
0.0032281875610351,0.0665755122900009,-0.0397951602935791,-0.3626022040843963,-0.0124316858127713,-0.0700977444648742,0.0,0.0,0.9698659181594848,0.0919969081878662
0.0027598380111157,0.0591061674058437,-0.0437200963497161,-0.3319979906082153,-0.0155160296708345,-0.0616866424679756,0.0,0.0,0.8318812847137451,0.0547170639038085
0.0022995949257165,0.0522425025701522,-0.0435162000358104,-0.3050791919231415,-0.0179929602891206,-0.0495387353003025,0.0,0.0,0.8057171106338501,-0.148609459400177
0.0019495964515954,0.0458134971559047,-0.0335752181708812,-0.2857494950294494,-0.0193950086832046,-0.0280412975698709,0.0,0.0,0.5921603441238403,-0.1868480443954467
0.001664352370426,0.0391984544694423,-0.0280137993395328,-0.2940124571323395,-0.0199060905724763,-0.0102213202044367,0.0,0.0,0.970771551132202,0.261460542678833
0.0012901306618005,0.0328410491347312,-0.0370500274002552,-0.2825560271739959,-0.020269876345992,-0.0072757466696202,0.0,0.0,0.9261558055877686,0.3977147340774536
0.0009970664978027,0.0273340083658695,-0.0298366881906986,-0.2447495907545089,-0.0197445768862962,0.0105056716129183,0.0,0.0,0.8080720901489258,-0.0583404898643493
0.0006532669067382,0.0221066325902938,-0.0352219343185424,-0.2323137074708938,-0.0189097486436367,0.0166966263204813,0.0,0.0,0.8575121164321899,0.2601946592330932
0.0001495361357228,0.017569551244378,-0.0509949438273906,-0.2016414999961853,-0.0183000490069389,0.0121941640973091,0.0,0.0,0.5824440717697144,0.9219982624053956
-0.0002116203249897,0.0133798690512776,-0.0354212149977684,-0.1862179934978485,-0.0189870148897171,-0.0137392822653055,0.0,0.0,0.5453982353210449,0.6056883335113525
-0.0006017684936523,0.0095921251922845,-0.0373939275741577,-0.1683654934167862,-0.0205933544784784,-0.0321266055107116,0.0,0.0,0.3262059688568115,0.0859841108322143
-0.0010814666748046,0.0060527538880705,-0.0464385971426963,-0.1573273241519928,-0.0221045110374689,-0.0302231200039386,0.0,0.0,0.285671591758728,0.6733803749084473
-0.0015557289589196,0.002436134731397,-0.044908083975315,-0.1607778668403625,-0.0245947521179914,-0.0498046539723873,0.0,0.0,0.3549171686172485,0.5275607109069824
-0.0020178793929517,-0.0003863716265186,-0.0619481019675731,-0.1252550482749939,-0.0090615767985582,0.3106438219547272,1.0,0.0,0.8706247806549072,0.9673514366149902
-0.0024873733054846,-0.0024068974889814,-0.0764011889696121,-0.0898826420307159,0.0200309883803129,0.5818769931793213,1.0,1.0,0.5616065263748169,0.9693294763565063
-0.0028492927085608,-0.0035705829504877,-0.0505190789699554,-0.0522855333983898,0.0328915454447269,0.2555566430091858,1.0,1.0,0.7196240425109863,0.9995486736297609
-0.003190612886101,-0.0042571211233735,-0.028740257024765,-0.0304130688309669,0.0275329928845167,-0.1072229966521263,0.0,1.0,-0.5718422532081604,0.0305982828140258
-0.0034120560158044,-0.0044836066663265,-0.01872119307518,-0.0100214527919888,0.0241346675902605,-0.0679839774966239,1.0,1.0,-0.8324590921401978,0.9113898277282716
-0.0034855841659009,-0.0042570852674543,-0.0029899613000452,0.0101288249716162,0.0198489874601364,-0.085708163678646,1.0,1.0,-0.7917153239250183,0.1519184112548828
-0.0035594939254224,-0.0036835575010627,-0.0030260127969086,0.0255354307591915,0.015533342026174,-0.0863167196512222,1.0,1.0,-0.87014240026474,0.0475889444351196
-0.0036039352416992,-0.0027849816251546,-0.002543669193983,0.0399484075605869,0.0136588187888264,-0.0374912992119789,1.0,1.0,-0.8493908047676086,0.2646583318710327
-0.0037052154075354,-0.0019130849977955,-0.0035075438208878,0.0387964285910129,0.0071218810044229,-0.1307398080825805,1.0,1.0,-0.943486750125885,-0.1264103651046753
-0.0038013458251953,-0.0011035943171009,-0.0034248165320605,0.0359955467283725,0.0010150187881663,-0.1221375688910484,1.0,1.0,-0.9427895545959472,-0.1784536838531494
-0.0038440704811364,-0.0008709215908311,-0.0024311929009854,0.0103423343971371,-0.0007920625503174,-0.0361342504620552,1.0,1.0,-0.8419206738471985,-0.2318116426467895
-0.0038516998756676,-0.0008732104324735,-0.0007685038726776,-0.0001020367999444,-0.000780313508585,0.0002345653192605,1.0,1.0,-0.8257192373275757,0.1022683382034301
-0.0038505555130541,-0.0008749270346015,0.0001263962767552,,-0.0007820396567694,-2.868424053303897e-05,1.0,1.0,-0.7013435959815979,-0.0313572287559509
-0.0038473128806799,-0.0008749270346015,0.0003324401914142,-2.9248869282128e-07,-0.000787210999988,-9.65852159424685e-05,1.0,1.0,-0.5307173728942871,-0.0347648859024047
-0.0038455962203443,-0.0008749270346015,0.0001752706302795,5.388155273067241e-07,-0.0007900053169578,-5.100774433230981e-05,1.0,1.0,-0.6420130133628845,-0.1212942004203796
-0.003845500992611,-0.0008749270346015,5.851090008945903e-06,9.152547164603677e-09,-0.0007902609067969,-1.693248123046942e-06,1.0,1.0,-0.8111754059791565,-0.2321743965148925
-0.0038460730575025,-0.0008749270346015,-5.3307721827877685e-05,-1.0241607562022637e-08,-0.0007895834860391,1.5498208085773513e-05,1.0,1.0,-0.6830472350120544,-0.0169602632522583
-0.0038464546669274,-0.0008749270346015,-3.666306656668894e-05,-5.294471971950543e-09,-0.0007891366258263,1.064130810846109e-05,1.0,1.0,-0.7970306277275085,-0.0919718742370605
-0.0038465498946607,-0.0008749270346015,-6.557870619872119e-06,-4.834864175684571e-10,-0.0007891145069152,1.983487209145096e-06,1.0,1.0,-0.6505628228187561,-0.0233570337295532
