x_pos,y_pos,x_vel,y_vel,angle,ang_vel,leg_1,leg_2,main_booster,lat_booster
-0.0015505790943279,1.403116226196289,-0.1574138700962066,-0.3468430340290069,0.0021082430612295,0.0416128933429718,0.0,0.0,-0.3443499803543091,0.7016482353210449
-0.0030675888992846,1.3948237895965576,-0.1525782793760299,-0.3685495257377624,0.002975347219035,0.0173442605882883,0.0,0.0,0.0259630680084228,0.7472631931304932
-0.0044556618668138,1.3863942623138428,-0.1385873258113861,-0.3746484816074371,0.0027547201607376,-0.0044128657318651,0.0,0.0,-0.0430485010147094,0.7816886901855469
-0.0058183670043945,1.3774538040161133,-0.1351069062948227,-0.3973498344421386,0.0016123785171657,-0.0228489730507135,0.0,0.0,-0.2075111865997314,0.7229050397872925
-0.007134533021599,1.3680075407028198,-0.1290388852357864,-0.4198309779167175,-0.0009455358958803,-0.0511632934212684,0.0,0.0,0.3505003452301025,0.2118057012557983
-0.0083595272153615,1.3587188720703125,-0.1207755804061889,-0.4128338694572449,-0.0026462113019078,-0.0340163335204124,0.0,0.0,-0.3568081855773926,0.2404568195343017
-0.0096045490354299,1.3489216566085815,-0.1230998411774635,-0.435431957244873,-0.0040271156467497,-0.0276207718998193,0.0,0.0,-0.0392601490020751,0.5263596773147583
-0.010816479101777,1.3386174440383911,-0.1187957301735878,-0.4579711258411407,-0.0063875867053866,-0.0472139492630958,0.0,0.0,0.1807878017425537,0.8783519268035889
-0.0119822500273585,1.3287111520767212,-0.1127528324723243,-0.4403011202812195,-0.0101729547604918,-0.0757143795490264,0.0,0.0,0.0594633817672729,0.6635351181030273
-0.0131069179624319,1.3189986944198608,-0.107638195157051,-0.4317094385623932,-0.0149528654292225,-0.0956069156527519,0.0,0.0,0.5050792694091797,-0.3262985944747925
-0.0141587257385253,1.3095883131027222,-0.1010433286428451,-0.4182807803153991,-0.0190406367182731,-0.081762708723545,0.0,0.0,-0.772525429725647,-0.0200722813606262
-0.0152224544435739,1.2996697425842283,-0.1025642305612564,-0.440877616405487,-0.0228103511035442,-0.0754012316465377,0.0,0.0,-0.7599681615829468,0.5870283842086792
-0.016240119934082,1.2892441749572754,-0.0968411117792129,-0.4634417593479156,-0.0276775322854518,-0.0973527804017067,0.0,0.0,-0.6094086170196533,0.2751307487487793
-0.0172659866511821,1.2783105373382568,-0.0979912206530571,-0.4860356152057647,-0.0322277285158634,-0.0910117775201797,0.0,0.0,-0.2300118803977966,-0.8462460041046143
-0.0183491706848144,1.2668795585632324,-0.1053442507982254,-0.5081026554107666,-0.0351761542260646,-0.0589735731482505,0.0,0.0,-0.4663835763931274,-0.8794342279434204
-0.0194939617067575,1.2549331188201904,-0.1132550239562988,-0.5309882760047913,-0.0363854356110096,-0.0241880118846893,0.0,0.0,-0.4205901622772217,0.4785037040710449
-0.0206414218991994,1.2424780130386353,-0.1138282194733619,-0.5535805225372314,-0.0372841954231262,-0.0179766993969678,0.0,0.0,0.2808667421340942,0.0197197198867797
-0.0216681472957134,1.2299437522888184,-0.1026035323739051,-0.5570821166038513,-0.0373561643064022,-0.0014397829072549,0.0,0.0,0.3638491630554199,-0.430877149105072
-0.0225887298583984,1.2178895473480225,-0.0926651954650878,-0.5357210040092468,-0.0367469303309917,0.0121856434270739,0.0,0.0,-0.528274655342102,-0.6558662056922913
-0.0235645286738872,1.2053297758102417,-0.1000027656555175,-0.5581531524658203,-0.0343566983938217,0.0478090643882751,0.0,0.0,-0.508522093296051,0.2100918292999267
-0.0245349891483783,1.192261815071106,-0.0997769236564636,-0.580741822719574,-0.0316659770905971,0.0538195185363292,0.0,0.0,-0.7682339549064636,0.8187078237533569
-0.0254323966801166,1.178677678108215,-0.0910884290933609,-0.6037150025367737,-0.0303361397236585,0.0265993438661098,0.0,0.0,0.0052226781845092,0.1094355583190918
-0.0262314788997173,1.165078043937683,-0.0819343030452728,-0.6043846607208252,-0.0283430870622396,0.0398649200797081,0.0,0.0,-0.6398707628250122,0.1168761253356933
-0.0270195957273244,1.150970220565796,-0.081120029091835,-0.6269804239273071,-0.0260586943477392,0.0456920638680458,0.0,0.0,-0.5693473219871521,0.1317076683044433
-0.0277947429567575,1.136353850364685,-0.0801188349723815,-0.6495727300643921,-0.0234855897724628,0.0514669306576252,0.0,0.0,-0.6842219233512878,0.6430575847625732
-0.0285168644040823,1.1212096214294434,-0.0741263329982757,-0.6730433702468872,-0.0215963684022426,0.0377843528985977,0.0,0.0,-0.7374593019485474,-0.1408581137657165
-0.0292224884033203,1.105557203292847,-0.0727622509002685,-0.6956340074539185,-0.0194254517555236,0.0434183664619922,0.0,0.0,-0.4147758483886719,-0.1300258040428161
-0.0299099925905466,1.0893964767456057,-0.0712299346923828,-0.718224823474884,-0.0169766452163457,0.0489761792123317,0.0,0.0,-0.5600945353507996,-0.3578400611877441
-0.0305777546018362,1.0727275609970093,-0.0695367008447647,-0.7408158183097839,-0.0142539525404572,0.0544540509581565,0.0,0.0,-0.0304329395294189,-0.0564996004104614
-0.0312243457883596,1.0555500984191897,-0.0676902085542678,-0.7634069919586182,-0.0112615535035729,0.0598480328917503,0.0,0.0,-0.4015548229217529,-0.0679506063461303
-0.0318483337759971,1.0378646850585938,-0.0656982213258743,-0.7859984040260315,-0.0080038607120513,0.065153956413269,0.0,0.0,0.280592679977417,0.1980230808258056
-0.032505989074707,1.0201812982559204,-0.0690430402755737,-0.7859145998954773,-0.0047644628211855,0.064787670969963,0.0,0.0,0.4039500951766968,0.6111297607421875
-0.0331635475158691,1.0030174255371094,-0.0679063200950622,-0.7628335952758789,-0.0026425186078995,0.0424392148852348,0.0,0.0,0.3668901920318603,-0.0949554443359375
-0.0338467583060264,0.9857932329177856,-0.0704719349741935,-0.7655225992202759,-0.0005138601991347,0.0425732024013996,0.0,0.0,0.8078594207763672,-0.1532471179962158
-0.034484289586544,0.9690901637077332,-0.0662420541048049,-0.7423582077026367,0.0019423929043114,0.0491248629987239,0.0,0.0,0.1730098724365234,0.2593756914138794
-0.0350814834237098,0.9526844620704652,-0.0625110417604446,-0.7291480898857117,0.0046979528851807,0.0551110692322254,0.0,0.0,-0.5774760842323303,0.3232884407043457
-0.0356492027640342,0.9357706904411316,-0.0598080158233642,-0.7517397403717041,0.0076871616765856,0.0597846508026123,0.0,0.0,-0.0147687196731567,0.7483679056167603
-0.0361238494515419,0.9183550477027892,-0.049114029854536,-0.7740350365638733,0.0093213189393281,0.0326830595731735,0.0,0.0,0.1952993869781494,0.05955171585083
-0.0366015434265136,0.9013452529907228,-0.0495108142495155,-0.7560041546821594,0.0110444417223334,0.0344625040888786,0.0,0.0,0.3818233013153076,-0.0373874902725219
-0.0370292663574218,0.8845902681350708,-0.0448543764650821,-0.7446867227554321,0.0130905965343117,0.0409231260418891,0.0,0.0,0.4261903762817383,0.5425162315368652
-0.0374903678894043,0.8683385252952576,-0.0470507107675075,-0.7223074436187744,0.0140288574621081,0.018765415996313,0.0,0.0,0.0687943696975708,0.5615808963775635
-0.0377896316349506,0.8520880341529846,-0.0300878435373306,-0.722245991230011,0.0141894090920686,0.003210800467059,0.0,0.0,-0.1836620569229126,-0.3868314027786255
-0.038055133074522,0.8353292942047119,-0.0269160326570272,-0.7448371052742004,0.0145403183996677,0.0070183002389967,0.0,0.0,0.1072049140930175,0.2959432601928711
-0.0382251739501953,0.8185950517654419,-0.0178573280572891,-0.743751585483551,0.0153807261958718,0.0168083887547254,0.0,0.0,-0.513766348361969,0.7489502429962158
-0.0383052825927734,0.8013450503349304,-0.0076280487701296,-0.7666662931442261,0.0150054022669792,-0.0075067924335598,0.0,0.0,0.1228588819503784,0.6335740089416504
-0.038268469274044,0.7839228510856628,0.0051213963888585,-0.7743083834648132,0.0135818216949701,-0.0284714810550212,0.0,0.0,-0.2227115035057068,0.2306833267211914
-0.0381962768733501,0.7659924030303955,0.0085053322836756,-0.796899676322937,0.0123113142326474,-0.025410333648324,0.0,0.0,0.0634161233901977,-0.2177560329437255
-0.0381673797965049,0.7483572363853455,0.0043787932954728,-0.7837719321250916,0.0108486330136656,-0.029253751039505,0.0,0.0,-0.1602315902709961,-0.1522702574729919
-0.0381023399531841,0.7302138805389404,0.0078461775556206,-0.8063631653785706,0.0095174666494131,-0.0266230199486017,0.0,0.0,-0.0353987216949462,0.0238039493560791
-0.0380011573433876,0.7115621566772461,0.0113505702465772,-0.8289543390274048,0.0083063673228025,-0.0242220759391784,0.0,0.0,0.0684456825256347,-0.3415743112564087
-0.0377737060189247,0.69295734167099,0.0234252698719501,-0.826877236366272,0.007632405962795,-0.0134792448952794,0.0,0.0,-0.0051307678222656,0.5505597591400146
-0.037470243871212,0.6738484501838684,0.0319376960396766,-0.8492797017097473,0.0060637611895799,-0.0313728637993335,0.0,0.0,0.0884429216384887,-0.1272853016853332
-0.0370595939457416,0.6546711325645447,0.0422249175608158,-0.8523175120353699,0.0049109258688986,-0.0230566505342721,0.0,0.0,0.708336353302002,0.4898173809051513
-0.0366127975285053,0.6362228393554688,0.0457637533545494,-0.8199197053909302,0.003842631354928,-0.0213659852743148,0.0,0.0,0.2782657146453857,0.1080532073974609
-0.0360150337219238,0.6178328990936279,0.0602592900395393,-0.8173337578773499,0.0033630931284278,-0.0095905419439077,0.0,0.0,0.5401976108551025,0.0958238840103149
-0.035470675677061,0.5995930433273315,0.055296491831541,-0.8106590509414673,0.0025127728004008,-0.0170062538236379,0.0,0.0,0.6587879657745361,-0.0474677085876464
-0.0347967147827148,0.5820454955101013,0.0677903294563293,-0.779888391494751,0.0021258303895592,-0.0077391960658133,0.0,0.0,0.0097004175186157,-0.1838574409484863
-0.0340020172297954,0.5646082758903503,0.0794575363397598,-0.7749890089035034,0.0021408866159617,0.0003011308726854,0.0,0.0,0.2078316211700439,-0.1267781853675842
-0.0331165306270122,0.547565758228302,0.0882696136832237,-0.7574447393417358,0.0024053175002336,0.0052886162884533,0.0,0.0,0.0273404121398925,-0.3823000192642212
-0.0322424881160259,0.5307477116584778,0.0873884856700897,-0.7474679350852966,0.0024320194497704,0.0005338748451322,0.0,0.0,0.0522984266281127,-0.4543651342391968
-0.0312989242374897,0.5137752890586853,0.0942036733031272,-0.7543295621871948,0.0025753669906407,0.0028669754974544,0.0,0.0,0.4281977415084839,-0.8811976909637451
-0.0304878242313861,0.4972080290317535,0.0793578997254371,-0.7363253235816956,0.0043118456378579,0.034729529172182,0.0,0.0,-0.2399013042449951,-0.1486645340919494
-0.0296393390744924,0.4801325798034668,0.083148255944252,-0.7589164972305298,0.0059828241355717,0.0334197282791137,0.0,0.0,0.7897136211395264,-0.2470849752426147
-0.0287322048097848,0.4635450839996338,0.0889882296323776,-0.7372326254844666,0.0076906937174499,0.0341574139893054,0.0,0.0,0.4606528282165527,-0.6641356945037842
-0.0278355590999126,0.4469754099845886,0.0866821557283401,-0.736446738243103,0.0106373820453882,0.0589335933327674,0.0,0.0,0.844386100769043,-0.3860769271850586
-0.0270469672977924,0.4308850169181824,0.0766325965523719,-0.7151477336883545,0.0128324748948216,0.043902076780796,0.0,0.0,0.8485183715820312,-0.3817646503448486
-0.0262095443904399,0.4157229661941528,0.0815262794494628,-0.6738891005516052,0.0150110814720392,0.0435722917318344,0.0,0.0,0.3629175424575805,-0.0939900875091552
-0.0252712257206439,0.4004159867763519,0.0914558991789817,-0.6803340911865234,0.0173604153096675,0.0469867065548896,0.0,0.0,0.452404260635376,-0.4646772146224975
-0.0242852214723825,0.3857269287109375,0.0962640941143035,-0.652874767780304,0.0196624025702476,0.0460396036505699,0.0,0.0,-0.2941223978996277,-0.2890349626541137
-0.0232625007629394,0.3705296516418457,0.1001135930418968,-0.6754658222198486,0.0217928495258092,0.0426090396940708,0.0,0.0,0.6890745162963867,-0.5557557940483093
-0.0223627090454101,0.3558598458766937,0.0871540904045105,-0.6520363092422485,0.0245771128684282,0.0556852705776691,0.0,0.0,0.5760974884033203,-0.4709265232086181
-0.0214117057621479,0.3415731191635132,0.0923514887690544,-0.6350128650665283,0.0272981617599725,0.0544209964573383,0.0,0.0,0.5692744255065918,-0.6181684732437134
-0.0206277854740619,0.3279804587364197,0.0749068185687065,-0.6041858196258545,0.0307328887283802,0.0686945766210556,0.0,0.0,0.1476253271102905,-0.1162360310554504
-0.0197689048945903,0.3144833743572235,0.0824014395475387,-0.5999480485916138,0.0341792479157447,0.0689271166920661,0.0,0.0,0.5718350410461426,-0.0445429682731628
-0.0189185142517089,0.3010341227054596,0.0819401144981384,-0.5978178381919861,0.0372407846152782,0.0612308904528617,0.0,0.0,0.5449216365814209,-0.0584652423858642
-0.0179797168821096,0.2875357568264007,0.0907313227653503,-0.6000074744224548,0.0403486527502536,0.0621572062373161,0.0,0.0,0.7037148475646973,-0.0955842137336731
-0.0170516017824411,0.2740517556667328,0.0900820195674896,-0.599365770816803,0.043047048151493,0.0539680421352386,0.0,0.0,0.8503313064575195,0.333699107170105
-0.0161350257694721,0.2613900899887085,0.0892334058880806,-0.5628135204315186,0.0454329773783683,0.0477189160883426,0.0,0.0,0.3200665712356567,-0.7034155130386353
-0.0151969911530613,0.2492048293352127,0.0901554748415947,-0.541681706905365,0.0490482524037361,0.0723056867718696,0.0,0.0,0.6350340843200684,-0.3314923048019409
-0.0143736843019723,0.2377149015665054,0.0794788151979446,-0.5107584595680237,0.0518618002533912,0.0562708675861358,0.0,0.0,0.4470483064651489,-0.6589276790618896
-0.013706112280488,0.2261306792497635,0.0631295964121818,-0.5149838924407959,0.055448692291975,0.0717380195856094,0.0,0.0,0.7302699089050293,0.1645354032516479
-0.0130067821592092,0.2152815461158752,0.0664157718420028,-0.4823181331157684,0.0589262396097183,0.0695510506629943,0.0,0.0,0.7071046829223633,0.0409066677093505
-0.0124116893857717,0.2048051953315735,0.0567990057170391,-0.4657252430915832,0.0616070926189422,0.0536170303821563,0.0,0.0,0.8072474002838135,-0.552135169506073
-0.0119345663115382,0.1949229389429092,0.0443911328911781,-0.4393555819988251,0.0648895502090454,0.0656493455171585,0.0,0.0,0.7975442409515381,-0.6635839939117432
-0.0115383146330714,0.1856678873300552,0.0353338234126567,-0.4115253090858459,0.0691320449113845,0.0848502293229103,0.0,0.0,0.3208091259002685,-0.6560996770858765
-0.0111141204833984,0.176603302359581,0.0370158702135086,-0.4031267762184143,0.0744818300008773,0.1069955453276634,0.0,0.0,0.6008855104446411,0.3989895582199096
-0.0106569286435842,0.167529284954071,0.0405459776520729,-0.4035582840442657,0.079599805176258,0.1023598089814186,0.0,0.0,0.6729757785797119,0.6914474964141846
-0.0100407600402832,0.1585701256990432,0.0579596050083637,-0.3983831703662872,0.0832209661602974,0.0724236220121383,0.0,0.0,0.9132080078125,-0.3324699401855469
-0.0092753414064645,0.1501122266054153,0.0724401324987411,-0.3761396110057831,0.0872819721698761,0.0812202244997024,0.0,0.0,0.7539228200912476,-0.6460962295532227
-0.008403587155044,0.1417808681726455,0.0817401409149169,-0.3706091344356537,0.0926656201481819,0.1076729074120521,0.0,0.0,0.5383309125900269,-0.9558417797088624
-0.0076442719437181,0.1339816451072693,0.0689524114131927,-0.3470793068408966,0.0995883345603942,0.1384541690349578,0.0,0.0,0.2871454954147339,-0.6255594491958618
-0.006932926364243,0.126557856798172,0.0632212907075882,-0.3304965198040008,0.1074429899454116,0.1570931822061538,0.0,0.0,0.3722031116485595,0.7825942039489746
-0.00607051840052,0.1194836199283599,0.0801224410533905,-0.3148607313632965,0.113526701927185,0.1216740235686302,0.0,0.0,-0.1517227888107299,-0.969125509262085
-0.0052372934296727,0.1118802428245544,0.0759549885988235,-0.3385065793991089,0.120856650173664,0.1465990096330642,0.0,0.0,0.381393551826477,-0.743306040763855
-0.0045289993286132,0.1043811440467834,0.0624133646488189,-0.3339947760105133,0.1292267143726349,0.167401447892189,0.0,0.0,0.2537785768508911,0.0150896310806274
-0.0038084029220044,0.0973604023456573,0.0637254267930984,-0.3127751350402832,0.1375203728675842,0.1658730804920196,0.0,0.0,0.0472979545593261,0.5596275329589844
-0.0030771256424486,0.0903730690479278,0.0663331598043441,-0.311191588640213,0.1442946493625641,0.1354859173297882,0.0,0.0,0.3104778528213501,-0.0648028850555419
-0.0025017738807946,0.0837926492094993,0.051580935716629,-0.2930540144443512,0.150234043598175,0.1187882423400878,0.0,0.0,0.4108791351318359,0.2999014854431152
-0.0019099235069006,0.0776041150093078,0.0532714910805225,-0.2756538689136505,0.1561369448900222,0.1180580258369445,0.0,0.0,0.5469762086868286,0.510351300239563
-0.0014090538024902,0.0719482973217964,0.0457284227013587,-0.2518320381641388,0.1604931056499481,0.0871228799223899,0.0,0.0,0.8235569000244141,0.1419966220855713
-0.0010988235007971,0.0669855698943138,0.0274765007197856,-0.2209552228450775,0.1640428900718689,0.0709958225488662,0.0,0.0,0.3438129425048828,0.3720438480377197
-0.0008434295887127,0.0621082410216331,0.0224731564521789,-0.2171114385128021,0.1671136617660522,0.0614150837063789,0.0,0.0,0.6085779666900635,0.542391300201416
-0.0007325172191485,0.0575687997043132,0.0098143760114908,-0.201899915933609,0.1683958023786544,0.0256427768617868,0.0,0.0,0.3083574771881103,0.6872138977050781
-0.0007376670837402,0.0531122535467147,0.0001722103188512,-0.1979899853467941,0.1677068173885345,-0.0137800406664609,0.0,0.0,0.2869795560836792,0.3959910869598388
-0.0007247924804687,0.0489951707422733,0.0019865315407514,-0.1829045116901397,0.1670103073120117,-0.0139300851151347,0.0,0.0,0.4773520231246948,0.7703975439071655
-0.0006159782642498,0.0448807328939437,0.0134067013859748,-0.1825811266899109,0.164480984210968,-0.0505861528217792,0.0,0.0,0.4544576406478882,0.0059778690338134
-0.000461864459794,0.0412824265658855,0.0177349336445331,-0.1596667170524597,0.1621513217687606,-0.0465929731726646,0.0,0.0,0.027471899986267,0.2258561849594116
-0.0003710746823344,0.0378861762583255,0.0118759665638208,-0.1506463587284088,0.159364104270935,-0.0557447001338005,0.0,0.0,0.2941670417785644,0.7756260633468628
-0.0001738548307912,0.0350257270038127,0.0243069007992744,-0.1266437023878097,0.1547757387161255,-0.0917671173810958,0.0,0.0,-0.1751881241798401,0.3041141033172607
5.1021575927734375e-05,0.0316565856337547,0.0274735540151596,-0.1492312252521515,0.1497944891452789,-0.0996250286698341,0.0,0.0,0.1790957450866699,0.4043120145797729
0.000211048129131,0.0286417100578546,0.0214052498340606,-0.1334560662508011,0.1443960517644882,-0.1079685539007186,0.0,0.0,-0.0974078774452209,0.3081467151641845
0.0003974914434365,0.0251183602958917,0.0244568474590778,-0.1560446172952652,0.1386039704084396,-0.1158417090773582,0.0,0.0,0.3481318950653076,-0.0169066190719604
0.0006232261657714,0.0216558072715997,0.028485145419836,-0.1533543467521667,0.1327220946550369,-0.1176372393965721,0.0,0.0,0.3896917104721069,-0.8137330412864685
0.0006266593700274,0.0184234231710433,0.0051589612849056,-0.1432374417781829,0.127925306558609,-0.0959358811378479,0.0,0.0,0.5018408298492432,0.6518017053604126
0.0005195617559365,0.0153625579550862,-0.0039202836342155,-0.1354734301567077,0.1211710795760154,-0.1350845247507095,0.0,0.0,0.7593756914138794,0.6925320625305176
0.0003934860287699,0.0126923657953739,-0.0039767730049788,-0.1179956123232841,0.1125837564468383,-0.1717464029788971,0.0,0.0,0.2987215518951416,0.376421570777893
0.00021686553373,0.0105270715430378,0.0008814991451799,-0.0949440076947212,0.0941781550645828,-0.3681177496910095,0.0,1.0,0.1139999628067016,0.277214765548706
0.0001003265351755,0.0082678655162453,0.0074186860583722,-0.0993154123425483,0.075282908976078,-0.3779078125953674,0.0,1.0,0.3406254053115845,0.2294416427612304
2.0694733393611383e-05,0.0063438629731535,0.0107682179659605,-0.0846728608012199,0.0567538551986217,-0.3705814778804779,0.0,1.0,0.1726700067520141,0.1540055274963379
-7.381439354503527e-05,0.0047750924713909,0.0092179914936423,-0.0691201761364936,0.0383074581623077,-0.3689277768135071,0.0,1.0,0.1219707727432251,0.0370223522186279
-0.0001332282990915,0.0030224656220525,0.01252749748528,-0.0775206610560417,0.0200614817440509,-0.3649194836616516,0.0,0.0,0.0102229118347167,-0.5150541067123413
