x_pos,y_pos,x_vel,y_vel,angle,ang_vel,leg_1,leg_2,main_booster,lat_booster
-0.0014988898765295,1.4033253192901611,-0.1523362696170807,-0.3375483453273773,0.0021977983415126,0.0433857068419456,0.0,0.0,0.2450368404388427,0.8692936897277832
-0.0028597831260412,1.3959720134735107,-0.1370329707860946,-0.3268131911754608,0.0031236791983246,0.0185200758278369,0.0,0.0,0.1796799898147583,0.655975341796875
-0.0040374756790697,1.3887476921081543,-0.1180426701903343,-0.3210844397544861,0.0034028377849608,0.0055835270322859,0.0,0.0,-0.7105237245559692,0.9430053234100342
-0.0051291463896632,1.3812212944030762,-0.1084444522857666,-0.3345071971416473,0.0026816325262188,-0.0144254090264439,0.0,0.0,-0.132508635520935,0.7996315956115723
-0.006117820739746,1.3733985424041748,-0.0967167243361473,-0.3476749956607818,0.000554185709916,-0.0425528287887573,0.0,0.0,-0.4081510305404663,-0.1386723518371582
-0.007079410366714,1.3652766942977903,-0.0945412963628768,-0.3609731495380401,-0.0010441913036629,-0.0319704711437225,0.0,0.0,-0.2481671571731567,-0.3182774782180786
-0.0080136302858591,1.3568556308746338,-0.0923507660627365,-0.3742712140083313,-0.0021007151808589,-0.0211325902491807,0.0,0.0,-0.8250755071640015,-0.3575210571289062
-0.0089200977236032,1.3481353521347046,-0.0901459157466888,-0.3875691294670105,-0.0026024205144494,-0.010034816339612,0.0,0.0,-0.3227494955062866,-0.124695599079132
-0.0097988126799464,1.339115858078003,-0.0879280343651771,-0.4008670151233673,-0.0025377434212714,0.0012935129925608,0.0,0.0,-0.5942429304122925,-0.1926957964897155
-0.0106492042541503,1.3297970294952393,-0.0856982171535492,-0.4141649603843689,-0.0018961685709655,0.0128327663987874,0.0,0.0,-0.7634408473968506,-0.0356326699256897
-0.0114713665097951,1.320179104804993,-0.0834574922919273,-0.4274629950523376,-0.0006680508959107,0.0245646685361862,0.0,0.0,-0.9376064538955688,-0.0774748921394348
-0.0122649194672703,1.3102619647979736,-0.0812068432569503,-0.4407611787319183,0.0011554054217413,0.0364723727107048,0.0,0.0,-0.906493842601776,0.7412581443786621
-0.0129587175324559,1.3000495433807373,-0.0700317844748497,-0.4538843333721161,0.0017951645422726,0.0127967502921819,0.0,0.0,-0.8061267733573914,-0.1953975558280944
-0.0136236194521188,1.289538025856018,-0.0677585303783416,-0.4671826660633087,0.0030466164462268,0.0250313133001327,0.0,0.0,-0.8876045942306519,-0.4458279609680176
-0.014259529300034,1.2787272930145264,-0.0654783546924591,-0.4804811477661133,0.0049152304418385,0.0373757407069206,0.0,0.0,-0.8453145027160645,-0.0565200448036193
-0.014866161160171,1.2676175832748413,-0.0631914958357811,-0.4937797784805298,0.0074073760770261,0.0498475804924964,0.0,0.0,-0.9197661876678468,-0.6921247839927673
-0.0154858585447072,1.2562164068222046,-0.0661899000406265,-0.5067470073699951,0.0115878488868474,0.0836169645190239,0.0,0.0,-0.3060840964317322,0.0058035850524902
-0.0160761829465627,1.244516372680664,-0.0638955384492874,-0.5200474858283997,0.0164017174392938,0.0962860137224197,0.0,0.0,-0.9339371919631958,0.6364996433258057
-0.0165787693113088,1.2325249910354614,-0.0542803592979908,-0.5330016016960144,0.0203862804919481,0.0796984136104583,0.0,0.0,-0.9174636006355286,0.4475504159927368
-0.0170516967773437,1.220234751701355,-0.0519730038940906,-0.5463027358055115,0.0250140875577926,0.0925641879439354,0.0,0.0,-0.8321940898895264,0.3269233703613281
-0.01749506033957,1.2076457738876345,-0.0496628656983375,-0.5596040487289429,0.0302878860384225,0.1054853945970535,0.0,0.0,-0.3814553022384643,0.4167714118957519
-0.0179086681455373,1.194758415222168,-0.0473500117659568,-0.5729063153266907,0.0362113043665885,0.1184791177511215,0.0,0.0,-0.8702890276908875,0.6841332912445068
-0.0182269103825092,1.1815752983093262,-0.0367885753512382,-0.586053192615509,0.0411343201994895,0.0984688401222229,0.0,0.0,-0.6521522402763367,0.7373509407043457
-0.0184498783200979,1.1680891513824463,-0.0262857135385274,-0.5994979739189148,0.0450783409178257,0.0788872018456459,0.0,0.0,-0.784906268119812,0.486352801322937
-0.0186429973691701,1.1543045043945312,-0.0239588227123022,-0.6128005385398865,0.0496809184551239,0.0920598432421684,0.0,0.0,-0.7639380693435669,0.8115508556365967
-0.0187568664550781,1.1402076482772827,-0.0154735315591096,-0.626663088798523,0.0537192784249782,0.0807669907808303,0.0,0.0,-0.8706157803535461,0.3255397081375122
-0.0188406948000192,1.1258124113082886,-0.013130784034729,-0.6399638056755066,0.0584210865199565,0.0940362066030502,0.0,0.0,-0.8640648722648621,0.5104738473892212
-0.0188629142940044,1.1111268997192385,-0.0068439496681094,-0.6528754830360413,0.0629917681217193,0.0914137586951255,0.0,0.0,-0.7461469769477844,0.6545531749725342
-0.0188146587461233,1.096152424812317,0.0005614836118184,-0.6657235026359558,0.0672080367803573,0.0843252390623092,0.0,0.0,-0.6803696751594543,0.7674107551574707
-0.0186775214970111,1.0808823108673096,0.0102602737024426,-0.6788238883018494,0.0706196129322052,0.0682317167520523,0.0,0.0,-0.8388508558273315,0.793068528175354
-0.0184461586177349,1.0653297901153564,0.0206668935716152,-0.6913465261459351,0.073071464896202,0.0490368939936161,0.0,0.0,-0.4154704809188843,0.6287226676940918
-0.0181409828364849,1.049479842185974,0.0284556858241558,-0.7045453190803528,0.075106181204319,0.040694523602724,0.0,0.0,-0.8162842392921448,0.0490598678588867
-0.0178055763244628,1.0333315134048462,0.0308043006807565,-0.717846155166626,0.0778143778443336,0.0541639626026153,0.0,0.0,-0.4731611013412475,0.5876765251159668
-0.0173981674015522,1.0168843269348145,0.0383818969130516,-0.731113612651825,0.0801520943641662,0.0467543080449104,0.0,0.0,-0.6979279518127441,0.914405107498169
-0.0168865211308002,1.000149488449097,0.0500141270458698,-0.7438327074050903,0.0812942385673523,0.022842701524496,0.0,0.0,0.0290429592132568,-0.1818326711654663
-0.0163715369999408,0.983821988105774,0.0496111586689949,-0.7257727384567261,0.083165243268013,0.0374200865626335,0.0,0.0,-0.6502365469932556,0.8552311658859253
-0.0157614704221487,0.9671997427940368,0.0600725598633289,-0.7388180494308472,0.0840853154659271,0.0184017047286033,0.0,0.0,-0.2598485946655273,0.6815578937530518
-0.0150644304230809,0.9502915143966676,0.0695539712905883,-0.7514838576316833,0.0842381119728088,0.0030557322315871,0.0,0.0,-0.2202548384666443,0.6243367195129395
-0.0142914773896336,0.9330976009368896,0.0776263922452926,-0.7641525864601135,0.0839047729969024,-0.0066669732332229,0.0,0.0,-0.171438455581665,-0.0767377614974975
-0.0134884836152195,0.9156053066253662,0.079959325492382,-0.7774535417556763,0.0842505097389221,0.0069144801236689,0.0,0.0,0.253580093383789,0.505603551864624
-0.0127531047910451,0.8986959457397461,0.0737157091498375,-0.7515208721160889,0.0840708240866661,-0.0035937607754021,0.0,0.0,-0.0356060266494751,0.8929793834686279
-0.0119027141481637,0.881496787071228,0.0866973921656608,-0.7643131613731384,0.0824278369545936,-0.0328596532344818,0.0,0.0,0.3467233180999756,-0.2059754133224487
-0.0109643936157226,0.8643911480903625,0.0944340080022811,-0.760215163230896,0.0818311870098114,-0.0119331460446119,0.0,0.0,0.0176392793655395,0.8433997631072998
-0.0098841665312647,0.8474893569946289,0.1096268445253372,-0.7511088252067566,0.080240897834301,-0.0318056568503379,0.0,0.0,-0.1084938645362854,-0.5713333487510681
-0.0088217733427882,0.8302764296531677,0.1059301346540451,-0.7650337219238281,0.0805476158857345,0.0061343228444457,0.0,0.0,-0.7270815968513489,0.9092726707458496
-0.0076518058776855,0.8127653002738953,0.1179618835449218,-0.7782240509986877,0.0795877948403358,-0.0191964637488126,0.0,0.0,-0.157432734966278,0.6108040809631348
-0.0063989637419581,0.7949585318565369,0.1269251704216003,-0.7913190126419067,0.0779690966010093,-0.0323738232254982,0.0,0.0,-0.2122066020965576,-0.6838236451148987
-0.005180740263313,0.7768534421920776,0.1211318001151084,-0.8047130107879639,0.0786443352699279,0.0135049391537904,0.0,0.0,-0.2659908533096313,0.5454999208450317
-0.0038998604286462,0.7584584951400757,0.1275838911533355,-0.8175791501998901,0.0791506618261337,0.0101263858377933,0.0,0.0,0.0943249464035034,0.2430568933486938
-0.0026300430763512,0.7402672171592712,0.1258441060781479,-0.808560311794281,0.0802713558077812,0.0224140733480453,0.0,0.0,-0.6279035210609436,0.958632469177246
-0.0012373924255371,0.7217885851860046,0.1398363411426544,-0.82124263048172,0.0797065645456314,-0.0112958131358027,0.0,0.0,-0.438410997390747,-0.7590619921684265
0.0001185417204396,0.7030087113380432,0.1338059306144714,-0.8347575068473816,0.0814750641584396,0.0353702493011951,0.0,0.0,-0.3907938599586487,0.3472206592559814
0.0015034675598144,0.6839305758476257,0.1360184103250503,-0.8480587005615234,0.083921268582344,0.0489242449402809,0.0,0.0,0.0228161811828613,0.5240904092788696
0.0029190063942223,0.6653022766113281,0.1394509971141815,-0.8280362486839294,0.0860024020075798,0.0416226349771022,0.0,0.0,0.527351975440979,-0.1214183568954467
0.0044616698287427,0.6470672488212585,0.1508391946554184,-0.810647189617157,0.0893968939781189,0.067889779806137,0.0,0.0,-0.4203886389732361,-0.1939749717712402
0.0060326578095555,0.6285340189933777,0.1529968082904815,-0.8239495754241943,0.0934666693210601,0.0813951790332794,0.0,0.0,-0.0579136610031127,-0.1604182124137878
0.0076318741776049,0.6097028255462646,0.1551328003406524,-0.8372524976730347,0.0982106775045394,0.0948801785707473,0.0,0.0,0.7148005962371826,-0.5101332068443298
0.0093017574399709,0.5916372537612915,0.1600715667009353,-0.8033837676048279,0.1050734743475914,0.1372559368610382,0.0,0.0,0.3359407186508178,0.7640063762664795
0.0110565181821584,0.574295163154602,0.1693323254585266,-0.7712036371231079,0.1111717596650123,0.1219658032059669,0.0,0.0,0.0575551986694335,0.2444608211517334
0.0127344131469726,0.557397186756134,0.1611948609352111,-0.7515267729759216,0.1177149042487144,0.130863070487976,0.0,0.0,0.3998740911483764,0.8812942504882812
0.0145212169736623,0.5406822562217712,0.1731354892253875,-0.7433302998542786,0.1232223883271217,0.1101499572396278,0.0,0.0,0.0689063072204589,0.4675395488739013
0.0162144657224416,0.5243334174156189,0.1634187400341034,-0.727117657661438,0.12909696996212,0.11749167740345,0.0,0.0,0.391569972038269,0.9015696048736572
0.0180665012449026,0.5083693265914917,0.1803256869316101,-0.7099483013153076,0.1339491903781891,0.0970443189144134,0.0,0.0,0.0541969537734985,0.1425384283065796
0.0199069026857614,0.4926919043064117,0.1784465610980987,-0.6972858309745789,0.1395343393087387,0.1117025390267372,0.0,0.0,-0.4366006851196289,0.2081222534179687
0.0217728614807128,0.4767171144485473,0.1803275644779205,-0.7105924487113953,0.1457806229591369,0.1249260902404785,0.0,0.0,0.3063054084777832,0.3867602348327636
0.0234990119934082,0.4611170887947082,0.1661465764045715,-0.6939799785614014,0.1522328555583953,0.1290446817874908,0.0,0.0,0.4486864805221557,0.9811304807662964
0.0252325050532817,0.4463661611080169,0.1681904047727584,-0.6561341881752014,0.1573890596628189,0.1031236872076988,0.0,0.0,0.2987443208694458,0.7703163623809814
0.0270869247615337,0.431680679321289,0.181078553199768,-0.6531573534011841,0.1617502123117447,0.0872231349349021,0.0,0.0,0.167831540107727,0.7724504470825195
0.0289482120424509,0.4176197350025177,0.182654857635498,-0.625311553478241,0.1652286350727081,0.0695685297250747,0.0,0.0,-0.1211246848106384,0.656764030456543
0.0308756828308105,0.4032692015171051,0.1897328197956085,-0.6381398439407349,0.1682456731796264,0.0603410527110099,0.0,0.0,-0.0100457072257995,-0.6048257350921631
0.0327704437077045,0.3886098861694336,0.1844336092472076,-0.6521080732345581,0.1733006238937378,0.1010991707444191,0.0,0.0,0.2153677940368652,0.4280650615692138
0.0346298217773437,0.3743355274200439,0.1801497638225555,-0.6351032257080078,0.1790992617607116,0.1159726381301879,0.0,0.0,0.2817806005477905,0.0922197103500366
0.0362944602966308,0.3607043325901031,0.1605165600776672,-0.6065604090690613,0.1850701868534088,0.1194184273481369,0.0,0.0,-0.0590630173683166,0.8994646072387695
0.0380569472908973,0.3467979729175567,0.1717007309198379,-0.6186397075653076,0.1896461546421051,0.0915194004774093,0.0,0.0,0.0339006185531616,0.8798671960830688
0.0398366935551166,0.3329604864120483,0.1745480597019195,-0.6154397130012512,0.193086639046669,0.068809688091278,0.0,0.0,0.5077335834503174,-0.4401869773864746
0.0416380874812603,0.3192802369594574,0.1758205890655517,-0.6085807085037231,0.1974333673715591,0.0869345292448997,0.0,0.0,0.6471254825592041,0.745761513710022
0.0434146896004676,0.3058002293109894,0.1742836236953735,-0.5995658040046692,0.2008331567049026,0.0679956451058387,0.0,0.0,0.6254401206970215,0.0161269903182983
0.0450432784855365,0.293167382478714,0.1589168012142181,-0.561997652053833,0.2048013061285019,0.079363152384758,0.0,0.0,0.7278611660003662,0.8209115266799927
0.046665571630001,0.2815461158752441,0.1591785848140716,-0.516925036907196,0.2078804075717926,0.0615816637873649,0.0,0.0,0.6228005886077881,0.582014799118042
0.0480635650455951,0.2707889676094055,0.1376111209392547,-0.4784067571163177,0.2100845873355865,0.0440836362540721,0.0,0.0,0.7308149337768555,0.7619452476501465
0.049316119402647,0.2602079808712005,0.124304711818695,-0.470400720834732,0.2110475450754165,0.0192590337246656,0.0,0.0,0.9258757829666138,0.7887281179428101
0.0504965782165527,0.2507235407829284,0.1179919987916946,-0.421538770198822,0.2111040502786636,0.0011299611069262,0.0,0.0,0.8812649250030518,-0.2670338749885559
0.0514366142451763,0.2418663799762725,0.0939193740487098,-0.393662542104721,0.2111913114786148,0.0017453528707847,0.0,0.0,0.9935390949249268,0.4980052709579468
0.0521490089595317,0.2338904291391372,0.0709009692072868,-0.3545351028442383,0.2115265727043151,0.0067051909863948,0.0,0.0,0.9582512378692628,0.1728260517120361
0.052680492401123,0.2268278449773788,0.0523454137146472,-0.3140057325363159,0.2123389244079589,0.0162471365183591,0.0,0.0,0.9389054775238036,0.4070082902908325
0.053173828870058,0.2205011993646621,0.0475319027900695,-0.2814437747001648,0.2141551822423935,0.0363252684473991,0.0,0.0,0.8928287029266357,0.1244168281555175
0.0536145195364952,0.2144603580236435,0.0416402779519557,-0.2688350677490234,0.2166146039962768,0.0491880401968956,0.0,0.0,0.947352170944214,0.2649133205413818
0.0540629401803016,0.208852469921112,0.0414057150483131,-0.2497472763061523,0.2200833857059478,0.069375641644001,0.0,0.0,0.9781873226165771,-0.5237227082252502
0.0545048713684082,0.2039953768253326,0.0386923290789127,-0.2167041897773742,0.2256527096033096,0.1113864630460739,0.0,0.0,0.8266855478286743,0.6101466417312622
0.055057905614376,0.1995454132556915,0.0501339212059974,-0.1985762417316436,0.2308975160121917,0.1048962473869323,0.0,0.0,0.8917526006698608,-0.1718003153800964
0.055406380444765,0.1960519701242447,0.0292591415345668,-0.1561511009931564,0.2365681231021881,0.113412007689476,0.0,0.0,-0.1789649724960327,0.4066982269287109
0.0557520873844623,0.1922611743211746,0.028549239039421,-0.1694586277008056,0.242676705121994,0.1221720576286315,0.0,0.0,0.0906950235366821,-0.0158150196075439
0.0560674667358398,0.1888439804315567,0.0247474238276481,-0.1530122607946396,0.2495846152305603,0.13815838098526,0.0,0.0,-0.6759235858917236,0.3737605810165405
0.0563771240413188,0.1851295828819275,0.0238055773079395,-0.1663206666707992,0.2568916082382202,0.1461397111415863,0.0,0.0,-0.0248186588287353,0.1711757183074951
0.0566799156367778,0.1811179965734481,0.022753557190299,-0.1796293258666992,0.264576643705368,0.1537010818719864,0.0,0.0,-0.3978695869445801,0.622272253036499
0.0570271499454975,0.1768382638692855,0.0282723549753427,-0.1913896650075912,0.2711740732192993,0.1319483369588852,0.0,0.0,-0.0931942462921142,0.8026806116104126
0.0574234947562217,0.1722852289676666,0.0344033017754554,-0.2033400684595108,0.2765413820743561,0.1073461398482322,0.0,0.0,0.2179245948791504,0.0594862699508667
0.057560920715332,0.1682431101799011,0.0086262784898281,-0.1806267350912094,0.2817936241626739,0.1050450429320335,0.0,0.0,-0.206445038318634,0.4093214273452759
0.0576865188777446,0.1639032214879989,0.0071790120564401,-0.1939318776130676,0.2873305082321167,0.1107377782464027,0.0,0.0,-0.3149187564849853,0.4126155376434326
0.0577992424368858,0.1592656522989273,0.0056460122577846,-0.2072367817163467,0.2931265532970428,0.1159209758043289,0.0,0.0,-0.2588226795196533,0.3110549449920654
0.0578980445861816,0.154330238699913,0.0040325368754565,-0.2205414175987243,0.299155592918396,0.1205805391073226,0.0,0.0,-0.5445125102996826,0.931260347366333
0.0580495819449424,0.1491248160600662,0.0108807832002639,-0.232234701514244,0.3035777807235718,0.0884434208273887,0.0,0.0,-0.267180860042572,0.8107991218566895
0.0582343116402626,0.1436451077461242,0.0153033463284373,-0.2442080378532409,0.3068472445011139,0.065389446914196,0.0,0.0,0.2595440149307251,0.5482852458953857
0.0582033172249794,0.1383993476629257,-0.0050850533880293,-0.2335637658834457,0.3089008927345276,0.0410723984241485,0.0,0.0,-0.2962337136268616,0.6635994911193848
0.0582122802734375,0.1328867226839065,0.0003362101560924,-0.24512580037117,0.3094838559627533,0.0116595495492219,0.0,0.0,-0.1385571956634521,0.8773061037063599
0.0582768432796001,0.1271028071641922,0.0076973102986812,-0.2567990124225616,0.3082004189491272,-0.0256691426038742,0.0,0.0,0.224907636642456,0.8231760263442993
0.058328341692686,0.1219201385974884,0.0078572016209363,-0.2297679334878921,0.3053937256336212,-0.0561340376734733,0.0,0.0,0.0225614309310913,0.9664738178253174
0.0582698807120323,0.1171601116657257,-0.0012599698966369,-0.2106044143438339,0.3006585240364074,-0.0947041660547256,0.0,0.0,-0.6097303628921509,0.9903380870819092
0.0582804679870605,0.1121551841497421,0.0080562587827444,-0.2210113704204559,0.2934294939041137,-0.1445803642272949,0.0,0.0,0.0312755107879638,0.9962939023971558
0.0582950599491596,0.10743048787117,0.0104901464655995,-0.2081926614046096,0.2841218113899231,-0.1861535012722015,0.0,0.0,0.7267032861709595,0.973934292793274
0.0581117644906044,0.1036746129393577,-0.0072777597233653,-0.1648178994655609,0.2727717459201813,-0.2270012199878692,0.0,0.0,-0.4160194993019104,0.8890742063522339
0.0579781532287597,0.0996599495410919,-0.0002432684414088,-0.1760415285825729,0.2593594491481781,-0.268245667219162,0.0,0.0,-0.3875892162322998,0.9692776203155518
0.0579056739807128,0.0953772142529487,0.0081734471023082,-0.1876913160085678,0.2436304986476898,-0.3145792484283447,0.0,0.0,-0.2624809741973877,0.8317786455154419
0.0578593239188194,0.0908187478780746,0.0122976368293166,-0.1998848468065261,0.2264387309551239,-0.3438353836536407,0.0,0.0,-0.2209725379943847,0.7619922161102295
0.0578344352543354,0.0859787538647651,0.0158639568835496,-0.2123977392911911,0.2078922986984253,-0.3709289133548736,0.0,0.0,-0.5196684002876282,-0.5296069979667664
0.0577420219779014,0.08082976937294,0.0082482993602752,-0.2264821231365203,0.1902769953012466,-0.3523063361644745,0.0,0.0,-0.4175804853439331,-0.5799700021743774
0.0575810447335243,0.0753714442253112,0.0005384825053624,-0.2405424565076828,0.1735807806253433,-0.3339247107505798,0.0,0.0,-0.1820811033248901,-0.5556243062019348
0.0573608390986919,0.0696030482649803,-0.0059909401461482,-0.2545782625675201,0.1575415581464767,-0.3207845985889435,0.0,0.0,0.1388412714004516,-0.6358709335327148
0.0570650100708007,0.0642450675368309,-0.0146650914102792,-0.2366186827421188,0.1426382064819336,-0.2980670034885406,0.0,0.0,0.1891225576400756,-0.3555656671524048
0.0566779151558876,0.0594562143087387,-0.0235799197107553,-0.2114551663398742,0.1275575459003448,-0.3016135096549988,0.0,0.0,-0.4457685947418213,-0.089127779006958
0.0562638267874717,0.054370816797018,-0.0259593278169631,-0.2247672975063324,0.1121963262557983,-0.3072242438793182,0.0,0.0,-0.2608782052993774,-0.8862742185592651
0.0557641014456748,0.0489803664386272,-0.0356828644871711,-0.238564908504486,0.0980151295661926,-0.283623993396759,0.0,0.0,0.177581787109375,-0.7492998838424683
