x_pos,y_pos,x_vel,y_vel,angle,ang_vel,leg_1,leg_2,main_booster,lat_booster
-0.0015711784362792,1.4029550552368164,-0.159618467092514,-0.3539972007274627,0.0022381115704774,0.0441838577389717,0.0,0.0,-0.695656020983777,-0.9171505183744638
-0.0032539367675781,1.3943395614624023,-0.1725997626781463,-0.3829270005226135,0.0065098162740468,0.0854429602622985,0.0,0.0,-0.2151203102972596,-0.681013490018179
-0.0050217630341649,1.3850492238998413,-0.1825900077819824,-0.4129409492015838,0.0122590828686952,0.1149962171912193,0.0,0.0,0.3248401237553961,-0.7279633916287747
-0.0069993017241358,1.375685691833496,-0.2052923440933227,-0.4162350296974182,0.0197028424590826,0.1488892585039138,0.0,0.0,0.3870060735840075,0.7673688861068867
-0.0088447574526071,1.3664823770523071,-0.1911683231592178,-0.4091376662254333,0.0262492056936025,0.1309396773576736,0.0,0.0,-0.370716190697185,0.8062280394709717
-0.0106483455747365,1.356612205505371,-0.1854344755411148,-0.4387727677822113,0.031263954937458,0.1003041863441467,0.0,0.0,-0.0057737339917252,-0.9320794966651254
-0.0125615121796727,1.3460699319839478,-0.1987481713294983,-0.4687178432941437,0.0386191345751285,0.1471173763275146,0.0,0.0,-0.5544223474577477,0.7561872167741305
-0.0144313815981149,1.3348658084869385,-0.1929634064435959,-0.4981320202350616,0.0445274896919727,0.1181779354810714,0.0,0.0,-0.6845390995545084,-0.9068990016878008
-0.0164026264101266,1.322998046875,-0.2053735256195068,-0.5277164578437805,0.0526905767619609,0.1632767170667648,0.0,0.0,0.7770881284121145,0.9936820465096148
-0.0183637626469135,1.3116447925567627,-0.2027897536754608,-0.504836916923523,0.059299811720848,0.1321971565485,0.0,0.0,0.0610996887676278,0.7323052045863968
-0.0202494617551565,1.3002060651779177,-0.1942519694566726,-0.5086313486099243,0.0649313479661941,0.1126409024000167,0.0,0.0,0.3045175751923505,-0.7212593868833882
-0.0221767425537109,1.2887221574783323,-0.2003765404224395,-0.5107427835464478,0.072507806122303,0.1515433490276336,0.0,0.0,0.912835615441175,0.7646147855875768
-0.0239570625126361,1.277809977531433,-0.1849442571401596,-0.485339492559433,0.0793638676404953,0.1371337622404098,0.0,0.0,-0.7725333440238091,0.6631215655158172
-0.0256939884275198,1.2662299871444702,-0.1795345991849899,-0.514987587928772,0.0851669088006019,0.1160714030265808,0.0,0.0,-0.4584502295406893,0.7834429980266862
-0.0273676868528127,1.2539992332458496,-0.1716886907815933,-0.5438337922096252,0.0894573554396629,0.0858164876699447,0.0,0.0,-0.214098047750856,0.7729178714152996
-0.0289785377681255,1.241100549697876,-0.1639971584081649,-0.5734491348266602,0.0923435911536216,0.0577300488948822,0.0,0.0,0.9714236338332138,-0.7714074529583704
-0.0305741317570209,1.2290832996368408,-0.1648339331150055,-0.534439742565155,0.0975889861583709,0.1049174442887306,0.0,0.0,0.1866968982644268,-0.6775762277147891
-0.0321386344730854,1.2168023586273191,-0.1636634469032287,-0.5463024377822876,0.1047475188970565,0.1431836187839508,0.0,0.0,0.9146942467226322,0.7683996088301039
-0.0336209312081337,1.2052772045135498,-0.1545709520578384,-0.5126893520355225,0.1110535040497779,0.1261309683322906,0.0,0.0,-0.6339954021887788,-0.874171588085856
-0.0351802818477153,1.1930701732635498,-0.1646639257669448,-0.5431983470916748,0.1197327449917793,0.1736005395650863,0.0,0.0,0.4048955493930815,-0.9151370848038218
-0.0367626175284385,1.181164026260376,-0.1692809015512466,-0.5300832390785217,0.1307467967271804,0.2203013449907302,0.0,0.0,0.8454534795006166,0.6003970653407205
-0.0383427627384662,1.1693342924118042,-0.1682874262332916,-0.5266989469528198,0.1409920305013656,0.2049227654933929,0.0,0.0,0.5301248928338933,0.9778458576344756
-0.039773941040039,1.1576297283172607,-0.1519475430250167,-0.5210599303245544,0.1498113423585891,0.1764013469219207,0.0,0.0,0.7622383846196465,-0.8039092177396788
-0.0412257201969623,1.145746827125549,-0.1561495959758758,-0.5292621850967407,0.1607872694730758,0.2195383608341217,0.0,0.0,-0.9772959746610386,-0.7050844139411199
-0.0427336692810058,1.1331830024719238,-0.1638584285974502,-0.5598652958869934,0.1738861054182052,0.2619999647140503,0.0,0.0,0.109441061770044,0.6381538961159309
-0.0443657860159873,1.1206177473068235,-0.1752174347639084,-0.5599018335342407,0.1859387308359146,0.2410520762205124,0.0,0.0,-0.3001256202580606,0.6218863026837411
-0.0459330566227436,1.1074035167694092,-0.1678386181592941,-0.588728666305542,0.197108119726181,0.2233879119157791,0.0,0.0,0.4345942354632663,-0.965948633983856
-0.0478257164359092,1.0945264101028442,-0.2025315314531326,-0.574138879776001,0.210478127002716,0.267400175333023,0.0,0.0,-0.2562957392919844,0.8734554121992462
-0.0496460907161235,1.0810070037841797,-0.1942599862813949,-0.602644681930542,0.2228337377309799,0.2471117973327636,0.0,0.0,0.8541124415720462,0.8854420279148209
-0.0515215881168842,1.0676331520080566,-0.1982976645231247,-0.5960562229156494,0.2337245494127273,0.2178159654140472,0.0,0.0,0.2061311702244945,-0.8492901084453693
-0.0535675063729286,1.0544865131378174,-0.2173418700695037,-0.5863792896270752,0.2466887980699539,0.2592850625514984,0.0,0.0,0.1480840340768419,-0.7079825134781911
-0.0557746887207031,1.0410702228546145,-0.2351295053958892,-0.5987669825553894,0.2613751590251922,0.2937270402908325,0.0,0.0,0.219529827754483,0.728291987847533
-0.0581196770071983,1.0278480052947998,-0.2476669549942016,-0.5900596380233765,0.2748503983020782,0.2695046067237854,0.0,0.0,0.8813140669526394,0.6918119405558869
-0.0605689994990825,1.0145368576049805,-0.2568344175815582,-0.5938830971717834,0.2870852947235107,0.244698017835617,0.0,0.0,-0.70009909367057,0.6279964657039759
-0.0629392638802528,1.000582575798035,-0.247951865196228,-0.6223824620246887,0.298347145318985,0.2252372503280639,0.0,0.0,0.5127195507506079,0.7612687010709968
-0.0654073730111122,0.9869946837425232,-0.2565458416938782,-0.6059364676475525,0.3084169626235962,0.2013960629701614,0.0,0.0,-0.281293057983998,-0.982256940704456
-0.0679182037711143,0.9726990461349488,-0.2631053924560547,-0.6379719376564026,0.3209057152271271,0.2497748881578445,0.0,0.0,-0.4969973833017591,-0.7652851208605597
-0.070449449121952,0.9577164053916932,-0.2668124437332153,-0.668986976146698,0.3351698815822601,0.2852831482887268,0.0,0.0,0.2335358526025031,0.6282291092126296
-0.0731380432844162,0.9429744482040404,-0.2814903259277344,-0.6581905484199524,0.3484004437923431,0.264611005783081,0.0,0.0,0.4369376025769029,0.728557390728709
-0.0758913978934288,0.9283560514450072,-0.2868183255195617,-0.6525316834449768,0.3604834973812103,0.241660475730896,0.0,0.0,-0.5486843596654682,0.972135798346797
-0.0785505324602127,0.9131123423576356,-0.2760514318943023,-0.6800866723060608,0.3712089657783508,0.2145098000764846,0.0,0.0,-0.3658081293106079,0.8043348789215088
-0.0810995101928711,0.8972418308258057,-0.2634113132953644,-0.70759516954422,0.3802283108234405,0.1803867220878601,0.0,0.0,-0.3822776079177856,0.6644436120986938
-0.0835510268807411,0.8807311654090881,-0.2523969113826751,-0.7357609272003174,0.3879427015781402,0.1542880535125732,0.0,0.0,-0.4418919086456299,0.9938076734542848
-0.0858776122331619,0.8636028170585632,-0.2378969490528106,-0.7627008557319641,0.3935361802577972,0.1118703261017799,0.0,0.0,-0.2778366208076477,0.8966195583343506
-0.0880997627973556,0.8458346724510193,-0.2260754853487014,-0.7907686829566956,0.397670567035675,0.0826876536011695,0.0,0.0,-0.157679796218872,0.967210292816162
-0.0902022346854209,0.8274370431900024,-0.2123343497514724,-0.8182557821273804,0.3999079763889313,0.0447480492293834,0.0,0.0,0.2257579565048217,0.8623842000961304
-0.0922799110412597,0.8088951706886292,-0.2084370851516723,-0.8242718577384949,0.4006260335445404,0.0143609941005706,0.0,0.0,0.2330434322357177,0.995602250099182
-0.0945790261030197,0.7905425429344177,-0.2288564145565033,-0.8153709173202515,0.3994826972484588,-0.0228668060153722,0.0,0.0,0.0585005283355712,0.9996727705001832
-0.0970559120178222,0.7722136974334717,-0.2449208945035934,-0.8138391375541687,0.3965238034725189,-0.0591780953109264,0.0,0.0,0.0835490226745605,0.99993896484375
-0.0995603576302528,0.753711462020874,-0.2459286749362945,-0.8210665583610535,0.3916957378387451,-0.0965616106986999,0.0,0.0,0.4549307823181152,0.9997826814651488
-0.1020065322518348,0.73536616563797,-0.238399788737297,-0.8136467337608337,0.3850648403167724,-0.1326176971197128,0.0,0.0,0.4458088874816894,0.9995296001434326
-0.1046336144208908,0.7172672152519226,-0.2546496987342834,-0.8022445440292358,0.3764796257019043,-0.1717046201229095,0.0,0.0,0.2257533073425293,0.9996135234832764
-0.1071752533316612,0.6990516185760498,-0.2442485392093658,-0.8070083856582642,0.3659776151180267,-0.2100394964218139,0.0,0.0,0.1731581687927246,0.9991397857666016
-0.1098023429512977,0.6810142993927002,-0.2509011626243591,-0.7986875772476196,0.3535248041152954,-0.2490566968917846,0.0,0.0,0.2993233203887939,0.998910665512085
-0.1123159378767013,0.6629583835601807,-0.2376616299152374,-0.799185574054718,0.3391573429107666,-0.2873491644859314,0.0,0.0,0.3698527812957763,0.9987300634384156
-0.1149272918701171,0.6447786092758179,-0.2454609125852584,-0.8043956160545349,0.3227837681770324,-0.327471524477005,0.0,0.0,0.0219631195068359,0.9979113340377808
-0.1175127029418945,0.6267142295837402,-0.2408055067062378,-0.7990100383758545,0.304368257522583,-0.3683102130889892,0.0,0.0,-0.0786912441253662,0.9938676357269288
-0.1199645027518272,0.6080328822135925,-0.2249449491500854,-0.8261863589286804,0.2834948301315307,-0.4174686372280121,0.0,0.0,-0.6619154214859009,0.9892517328262328
-0.1222917586565017,0.5887349247932434,-0.2101663053035736,-0.8534711599349976,0.2603662610054016,-0.4625714421272278,0.0,0.0,-0.5293949842453003,0.9981906414031982
-0.1245122924447059,0.5688101649284363,-0.1975897401571273,-0.8813979625701904,0.2354557365179062,-0.4982107281684875,0.0,0.0,0.5059213638305664,0.9977376461029052
-0.1266401261091232,0.548754870891571,-0.1862048059701919,-0.887320876121521,0.2085530161857605,-0.5380551218986511,0.0,0.0,0.9343950748443604,0.978846311569214
-0.1289494484663009,0.5292341113090515,-0.2019700109958648,-0.8637639880180359,0.1794095635414123,-0.582869291305542,0.0,0.0,0.950929880142212,0.9877666234970092
-0.1310906410217285,0.5100188851356506,-0.1832224130630493,-0.8505658507347107,0.1484809070825576,-0.618573784828186,0.0,0.0,0.9779362678527832,0.458414077758789
-0.1332721710205078,0.4912417232990265,-0.1871422827243805,-0.8317400813102722,0.1175873726606369,-0.6178708076477051,0.0,0.0,0.6462377309799194,0.8497867584228516
-0.1353846490383148,0.4724106192588806,-0.178313136100769,-0.8346696496009827,0.0848983377218246,-0.6537814140319824,0.0,0.0,0.7385716438293457,-0.1044191122055053
-0.1376399993896484,0.4538375735282898,-0.1917591691017151,-0.8238908648490906,0.0514706633985042,-0.6685540080070496,0.0,0.0,0.3175892829895019,0.4115384817123413
-0.13987398147583,0.4356338083744049,-0.189487412571907,-0.8082320094108582,0.0179665628820657,-0.670082151889801,0.0,0.0,0.6838535070419312,-0.3563053607940674
-0.1419906616210937,0.4172248542308807,-0.1779496371746063,-0.8181077241897583,-0.0153249716386199,-0.6658309102058411,0.0,0.0,0.8444015979766846,-0.9245483875274658
-0.1440937966108322,0.3996016681194305,-0.1783231198787689,-0.7838823795318604,-0.0469128787517547,-0.6317585706710815,0.0,0.0,0.9494123458862304,-0.8340986371040344
-0.1463197767734527,0.3821685314178467,-0.1918687224388122,-0.7760486602783203,-0.0773060396313667,-0.6078633069992065,0.0,0.0,0.750591516494751,-0.6535956263542175
-0.1486090719699859,0.3651721179485321,-0.1990961134433746,-0.757200300693512,-0.1068746969103813,-0.5913735032081604,0.0,0.0,0.6412743330001831,-0.3376153707504272
-0.1507649421691894,0.348435640335083,-0.1857515424489975,-0.7462454438209534,-0.1365440189838409,-0.5933862924575806,0.0,0.0,0.759160041809082,-0.8086358308792114
-0.1529740393161773,0.3324306309223175,-0.1922573149204254,-0.7142059803009033,-0.1651380509138107,-0.5718815326690674,0.0,0.0,0.931708812713623,-0.8491452932357788
-0.1550097465515136,0.3167594671249389,-0.1766785085201263,-0.6997082233428955,-0.1921115666627884,-0.5394704341888428,0.0,0.0,0.8736999034881592,-0.8861923813819885
-0.1570371687412262,0.3011071681976318,-0.1773718893527984,-0.6991478204727173,-0.2176702916622162,-0.5111748576164246,0.0,0.0,0.995358109474182,-0.895247220993042
-0.1589282006025314,0.2853537797927856,-0.1655428260564804,-0.7037988305091858,-0.2415520548820495,-0.4776354432106018,0.0,0.0,0.9941136837005616,-0.9590440392494202
-0.1608043611049652,0.2695688009262085,-0.1656990945339203,-0.7053114175796509,-0.263885885477066,-0.4466767311096191,0.0,0.0,0.9984474182128906,-0.873420774936676
-0.1624741554260254,0.2545498609542846,-0.146586388349533,-0.6713181138038635,-0.2847819924354553,-0.4179223179817199,0.0,0.0,0.997776746749878,-0.9654051065444946
-0.1638044416904449,0.2402842342853546,-0.1145377308130264,-0.6377514600753784,-0.3038462698459625,-0.3812862932682037,0.0,0.0,0.9988539218902588,-0.9841716289520264
-0.1650242805480957,0.2268819212913513,-0.1049828082323074,-0.5993157029151917,-0.3214844167232513,-0.3527633547782898,0.0,0.0,0.9959385395050048,-0.9630995392799376
-0.1663269996643066,0.2134931236505508,-0.114621914923191,-0.5986166000366211,-0.337808609008789,-0.3264830112457275,0.0,0.0,0.9994895458221436,-0.9918221235275269
-0.1673058569431305,0.2008137851953506,-0.0840132758021354,-0.5668430328369141,-0.3523508906364441,-0.2908460795879364,0.0,0.0,0.9977214336395264,-0.9957602620124816
-0.1682190895080566,0.1885595172643661,-0.0789208859205246,-0.5477298498153687,-0.3654276132583618,-0.2615337371826172,0.0,0.0,0.9998283386230468,-0.9980183839797974
-0.1689549386501312,0.1768743097782135,-0.0627310425043106,-0.5221546292304993,-0.3769273161888122,-0.2299940139055252,0.0,0.0,0.999556303024292,-0.9980239272117616
-0.1694420874118805,0.1657602339982986,-0.0394677408039569,-0.4964300692081451,-0.3867559134960174,-0.1965721100568771,0.0,0.0,0.9556291103363036,-0.9991271495819092
-0.1696132719516754,0.1549161076545715,-0.0096729714423418,-0.4840050041675567,-0.394713431596756,-0.1591501981019973,0.0,0.0,0.9971686601638794,-0.9971901774406432
-0.1696497946977615,0.1439960747957229,0.002176365815103,-0.486965149641037,-0.4009452760219574,-0.1246371269226074,0.0,0.0,0.9988481998443604,-0.991808831691742
-0.1694353073835373,0.1330480128526687,0.0255150739103555,-0.4877363741397857,-0.4053093791007995,-0.0872824266552925,0.0,0.0,0.9920566082000732,-0.9951528310775756
-0.1688218116760254,0.1223115995526313,0.0635557919740676,-0.4778031706809997,-0.4076775014400482,-0.0473622903227806,0.0,0.0,0.9588208198547364,-0.712490975856781
-0.1678945571184158,0.111474260687828,0.0935297235846519,-0.4818916320800781,-0.408538281917572,-0.0172160901129245,0.0,0.0,0.9938193559646606,-0.9562156200408936
-0.1666645109653473,0.1012732833623886,0.1223244220018386,-0.4531840980052948,-0.4078088104724884,0.0145896524190902,0.0,0.0,0.988889455795288,-0.9714418649673462
-0.1650873124599456,0.0916900038719177,0.1554630696773529,-0.4252732992172241,-0.4053778350353241,0.0486196093261241,0.0,0.0,0.788926362991333,-0.9791713953018188
-0.1631422042846679,0.082394964993,0.1905204504728317,-0.4119808375835418,-0.4011017382144928,0.0855219587683677,0.0,0.0,0.9299588203430176,-0.7101567983627319
-0.1609717309474945,0.0729108899831771,0.2117820680141449,-0.4200352430343628,-0.3954606056213379,0.1128228679299354,0.0,0.0,0.9362554550170898,-0.9083164930343628
-0.1586887389421463,0.0636641383171081,0.2217522859573364,-0.4091574251651764,-0.3884615004062652,0.1399816274642944,0.0,0.0,0.9581067562103271,-0.8190224766731262
-0.1559636145830154,0.0551538802683353,0.264506071805954,-0.3760721981525421,-0.3799297213554382,0.1706354022026062,0.0,0.0,0.946143388748169,-0.963820219039917
-0.1530790328979492,0.0469699241220951,0.278972178697586,-0.3612350523471832,-0.3698597550392151,0.2013985812664032,0.0,0.0,0.9605059623718262,-0.9555049538612366
-0.1500647515058517,0.0395776145160198,0.2906655371189117,-0.3258086442947387,-0.3584889769554138,0.2274155169725418,0.0,0.0,0.9241280555725098,-0.6027177572250366
-0.146700382232666,0.032631978392601,0.3245514631271362,-0.3057731091976166,-0.3459869623184204,0.2500404119491577,1.0,0.0,0.975316882133484,-0.91964989900589
-0.1431824713945388,0.0275420043617486,0.3237952888011932,-0.2207895666360855,-0.3141352236270904,0.6409159898757935,1.0,0.0,0.9894198179244996,-0.937632143497467
-0.1394247114658355,0.0238560773432254,0.3274769783020019,-0.1541981995105743,-0.2642106711864471,0.998682141304016,1.0,0.0,0.9878754615783693,-0.9786370396614076
-0.1355654746294021,0.0207723956555128,0.3275434374809265,-0.1276761293411255,-0.2047583758831024,1.1892573833465576,1.0,0.0,0.8757262229919434,-0.977799654006958
-0.1318070441484451,0.0181110724806785,0.316220223903656,-0.1111501976847648,-0.1448933631181717,1.197380781173706,1.0,0.0,0.854242205619812,-0.9315260648727416
-0.1282233297824859,0.0157505851238966,0.2969072461128235,-0.1000864058732986,-0.0837616324424743,1.2226879596710205,0.0,0.0,0.1906827688217163,0.6200847625732422
-0.1244620308279991,0.0135207744315266,0.3162434697151184,-0.0968167260289192,-0.0245438758283853,1.1843572854995728,0.0,0.0,-0.4693076610565185,0.3125706911087036
-0.1206959709525108,0.0106681203469634,0.3170499801635742,-0.126856580376625,0.034258272498846,1.1760449409484863,0.0,0.0,-0.4303088188171386,0.8162848949432373
-0.1168477088212966,0.0072005963884294,0.3278113007545471,-0.1563793867826461,0.0906287282705307,1.1274116039276123,0.0,1.0,0.9245872497558594,0.1602921485900879
-0.1133056655526161,0.0050357319414615,0.3161316514015198,-0.0992306023836135,0.1272163838148117,0.7301756143569946,0.0,1.0,0.8633608818054199,0.8473110198974609
-0.1099017113447189,0.0042481636628508,0.3250159919261932,-0.0363953188061714,0.142493188381195,0.3054806590080261,0.0,0.0,-0.071146011352539,-0.661022961139679
-0.1067702323198318,0.0033103560563176,0.3161830008029938,-0.0413974896073341,0.1394563913345337,-0.06076530367136,0.0,0.0,-0.2869086265563965,-0.8845016360282898
-0.10391416400671,0.0021727418061345,0.3044663667678833,-0.0489144213497638,0.1206478774547576,-0.3762123584747314,0.0,0.0,-0.6544850468635559,-0.8669511079788208
-0.1012568473815918,0.0006883001187816,0.2950386106967926,-0.0638757497072219,0.0915020704269409,-0.5829755663871765,0.0,0.0,-0.4891787767410278,-0.876777172088623
-0.0987245589494705,-0.0013104104436933,0.2870620191097259,-0.0871217548847198,0.057957075536251,-0.670965313911438,0.0,0.0,-0.4238378405570984,-0.8810393214225769
-0.0962966904044151,-0.0039189122617244,0.2767345905303955,-0.1149757876992225,0.024367207661271,-0.6718520522117615,0.0,0.0,0.6193516254425049,-0.9752416014671326
-0.0940466895699501,-0.0056654955260455,0.2412304431200027,-0.0774446651339531,0.0083291847258806,-0.3207700848579407,1.0,0.0,-0.120549738407135,-0.9699567556381226
-0.0918672531843185,-0.0071804071776568,0.2227613627910614,-0.0673094764351844,0.0035592920612543,-0.0954164490103721,1.0,0.0,0.413138747215271,-0.9653851389884948
-0.0898008346557617,-0.0076291225850582,0.2059903591871261,-0.0199440717697143,0.0041864085942506,0.0125281559303402,1.0,0.0,-0.5223219394683838,-0.9733721017837524
-0.0882124900817871,-0.0073857926763594,0.1585336029529571,0.0107960719615221,0.0045251310802996,0.0068285553716123,1.0,0.0,-0.6391276121139526,-0.9812389016151428
-0.0868591293692588,-0.0073455953970551,0.1481610238552093,0.0017777701141312,-0.0081648407503962,-0.2538266181945801,0.0,0.0,-0.7786217927932739,-0.1147185564041137
-0.0855793952941894,-0.007325246464461,0.1409404128789901,0.0007531046285293,-0.020842969417572,-0.2534160614013672,1.0,0.0,-0.659610390663147,-0.912381649017334
-0.0843727141618728,-0.0072056199423968,0.1254743039608001,0.0052240742370486,-0.0255007725208997,-0.0930564925074577,0.0,0.0,-0.7900609374046326,0.6761835813522339
