x_pos,y_pos,x_vel,y_vel,angle,ang_vel,leg_1,leg_2,main_booster,lat_booster
-0.0015748024452477,1.402951955795288,-0.1590255498886108,-0.3541345298290252,0.0013805447379127,0.0272038541734218,0.0,0.0,-0.1595306992530822,0.3253161907196045
-0.0031995773315429,1.3943346738815308,-0.1634012162685394,-0.3829908370971679,0.0022982256487011,0.0183560214936733,0.0,0.0,0.565902590751648,0.908738374710083
-0.0046593667939305,1.385612964630127,-0.1448610126972198,-0.3876293897628784,0.0011998064583167,-0.0219705514609813,0.0,0.0,0.3579995632171631,0.7547338008880615
-0.0062157632783055,1.3768322467803955,-0.1524209678173065,-0.3902547061443329,-0.0019973877351731,-0.0639498233795166,0.0,0.0,-0.2428891658782959,0.3575830459594726
-0.0078164096921682,1.3673791885375977,-0.156396597623825,-0.420142263174057,-0.0056268647313117,-0.0725958943367004,0.0,0.0,0.6373715400695801,0.7208648920059204
-0.0092506408691406,1.3580588102340698,-0.1382035166025161,-0.4142690896987915,-0.0107923038303852,-0.1033184677362442,0.0,0.0,-0.2166285514831543,0.1375246047973632
-0.010725307278335,1.3480662107467651,-0.1417983472347259,-0.4441613852977752,-0.0163937807083129,-0.1120398640632629,0.0,0.0,0.1700135469436645,-0.1695835590362548
-0.0121251102536916,1.3380866050720217,-0.1343799531459808,-0.4436141550540924,-0.0219289883971214,-0.1107145547866821,0.0,0.0,0.3255252838134765,0.6053353548049927
-0.0135096553713083,1.328447341918945,-0.131177082657814,-0.4285378158092499,-0.0291245207190513,-0.1439240574836731,0.0,0.0,0.3066740036010742,0.7297918796539307
-0.0148553848266601,1.3189997673034668,-0.1253781914710998,-0.420084685087204,-0.0382062532007694,-0.1816513538360595,0.0,0.0,-0.3954199552536011,-0.118070900440216
-0.0162336342036724,1.308881402015686,-0.1282097399234771,-0.4499790966510772,-0.0477286614477634,-0.190465897321701,0.0,0.0,0.4866981506347656,-0.0816709995269775
-0.0175564773380756,1.2987998723983765,-0.1225318759679794,-0.4484068751335144,-0.0573920868337154,-0.1932860761880874,0.0,0.0,-0.2071349024772644,-0.8550950884819031
-0.0189611427485942,1.2880560159683228,-0.131595030426979,-0.477858692407608,-0.0661673620343208,-0.1755216270685196,0.0,0.0,0.3143626451492309,0.7648158073425293
-0.0202526096254587,1.2770453691482544,-0.1184009090065956,-0.4898727834224701,-0.0768213048577308,-0.2130983769893646,0.0,0.0,0.2027546167373657,-0.6504522562026978
-0.021459674462676,1.266260862350464,-0.1110174879431724,-0.4798300862312317,-0.0864425897598266,-0.1924431473016739,0.0,0.0,-0.1357200145721435,-0.0906463265419006
-0.0226903911679983,1.2548058032989502,-0.1129382029175758,-0.5097313523292542,-0.096509113907814,-0.2013481557369232,0.0,0.0,-0.5445881485939026,-0.5928904414176941
-0.0239783283323049,1.242692232131958,-0.1191456764936447,-0.5390282869338989,-0.1061072349548339,-0.1919796764850616,0.0,0.0,0.2199733257293701,-0.719963788986206
-0.0251962654292583,1.230304718017578,-0.113284632563591,-0.5511772036552429,-0.1145646721124649,-0.1691635847091674,0.0,0.0,0.6583613157272339,-0.9566881656646729
-0.026305865496397,1.2184500694274902,-0.1040865182876586,-0.5274139046669006,-0.1214082315564155,-0.1368835866451263,0.0,0.0,-0.5738975405693054,-0.8676669597625732
-0.027509594336152,1.205937743186951,-0.1150228008627891,-0.5565472841262817,-0.1267355233430862,-0.106555089354515,0.0,0.0,0.4269999265670776,-0.9274632930755616
-0.0285939220339059,1.1937172412872314,-0.1046263724565506,-0.543462336063385,-0.1305315345525741,-0.0759270340204238,0.0,0.0,-0.9065700173377992,-0.9377070069313048
-0.0297646522521972,1.1808340549468994,-0.1146622523665428,-0.5728037357330322,-0.1329390406608581,-0.0481543503701686,0.0,0.0,-0.6634380221366882,-0.7351406216621399
-0.0309931747615337,1.1672872304916382,-0.1211426630616188,-0.6022297739982605,-0.1346384882926941,-0.0339920856058597,0.0,0.0,0.7356969118118286,-0.6654845476150513
-0.0321626663208007,1.1535435914993286,-0.1163172125816345,-0.6108843684196472,-0.1352674961090088,-0.0125814480707049,0.0,0.0,-0.0165343880653381,-0.824306845664978
-0.0334214195609092,1.1391468048095703,-0.1268405020236969,-0.6397678852081299,-0.1343012452125549,0.0193269345909357,0.0,0.0,-0.0875995755195617,-0.3535166978836059
-0.0346902832388877,1.1240572929382324,-0.1274240761995315,-0.6706005930900574,-0.1337741315364837,0.0105423610657453,0.0,0.0,0.5893938541412354,-0.3226901292800903
-0.0358694083988666,1.1093342304229736,-0.1180160194635391,-0.6543445587158203,-0.1336674094200134,0.0021343962289392,0.0,0.0,-0.2372089624404907,-0.671980082988739
-0.0371176712214946,1.0939594507217407,-0.1261437535285949,-0.6832029819488525,-0.1323590576648712,0.0261669009923934,0.0,0.0,-0.256939172744751,-0.7705705761909485
-0.0384435653686523,1.0779342651367188,-0.1353421807289123,-0.7119908928871155,-0.1296081840991974,0.055017165839672,0.0,0.0,0.3369927406311035,-0.4502888917922973
-0.0397385582327842,1.0618276596069336,-0.1317637860774994,-0.7156549096107483,-0.1273669302463531,0.0448251292109489,0.0,0.0,-0.0278860330581665,-0.3682006597518921
-0.0410361289978027,1.0450494289398191,-0.1315767467021942,-0.7455422878265381,-0.1255539953708648,0.036258727312088,0.0,0.0,0.7875728607177734,0.3899202346801758
-0.0423592552542686,1.0283211469650269,-0.1333136260509491,-0.7433978319168091,-0.1245558261871337,0.019963402301073,0.0,0.0,0.9561944007873536,0.0322048664093017
-0.0436618812382221,1.0123521089553833,-0.1303908079862594,-0.7097265124320984,-0.124432124197483,0.0024741988163441,0.0,0.0,0.1178609132766723,0.051955223083496
-0.0449767112731933,0.996082603931427,-0.1309824883937835,-0.7231299877166748,-0.1249267011880874,-0.0098916245624423,0.0,0.0,0.1947015523910522,-0.1705771684646606
-0.0462221130728721,0.9798142313957214,-0.1236817985773086,-0.723108172416687,-0.1257819235324859,-0.0171043127775192,0.0,0.0,0.2069344520568847,-0.8001214861869812
-0.0474434867501258,0.963711440563202,-0.1224808543920517,-0.7156477570533752,-0.1254346370697021,0.0069457432255148,0.0,0.0,0.4851729869842529,-0.5430713891983032
-0.0486790649592876,0.9475563764572144,-0.1245262399315834,-0.7179286479949951,-0.1244728416204452,0.0192357897758483,0.0,0.0,0.4636268615722656,-0.1468170881271362
-0.0497942939400672,0.9317267537117004,-0.1122346520423889,-0.7034728527069092,-0.1237572133541107,0.0143127413466572,0.0,0.0,0.1111245155334472,-0.6901392936706543
-0.0509189590811729,0.9160922765731812,-0.1141443625092506,-0.6947232484817505,-0.1220899894833564,0.0333443470299243,0.0,0.0,-0.6078091263771057,0.6096386909484863
-0.0519891753792762,0.8997777104377747,-0.1070237308740615,-0.7250902056694031,-0.1220887377858161,2.5207671569660303e-05,0.0,0.0,-0.1875430941581726,-0.3097778558731079
-0.0530547127127647,0.8827913999557495,-0.1061626523733139,-0.7549765110015869,-0.1224741041660308,-0.0077072246931493,0.0,0.0,0.2723767757415771,-0.6981151103973389
-0.0540151596069335,0.86572265625,-0.0968347266316413,-0.7585451602935791,-0.1216932833194732,0.01561657525599,0.0,0.0,0.0961465835571289,-0.5550207495689392
-0.054918099194765,0.8482808470726013,-0.0919300392270088,-0.7750564813613892,-0.1200624927878379,0.0326157249510288,0.0,0.0,0.5754866600036621,-0.685632586479187
-0.0557061210274696,0.8309080004692078,-0.0816521346569061,-0.771906852722168,-0.1172197833657264,0.0568538606166839,0.0,0.0,0.5228548049926758,-0.0245823264122009
-0.0564935691654682,0.813274085521698,-0.0810762792825698,-0.7835427522659302,-0.1149120852351188,0.0461540929973125,0.0,0.0,0.2832928895950317,0.3208315372467041
-0.0572099685668945,0.7953492403030396,-0.0737684965133667,-0.7964996099472046,-0.1127939969301223,0.042361781001091,0.0,0.0,0.1303786039352417,-0.380814790725708
-0.0578443519771099,0.7772011756896973,-0.0654219985008239,-0.8064299821853638,-0.1108302399516105,0.0392751470208168,0.0,0.0,0.4845463037490845,-0.1722694635391235
-0.0584902763366699,0.7595150470733643,-0.065756469964981,-0.7859659790992737,-0.1096734553575515,0.0231356211006641,0.0,0.0,0.1954833269119262,-0.6004126071929932
-0.0592204108834266,0.7420379519462585,-0.0748710930347442,-0.7766273617744446,-0.1078290492296218,0.0368881151080131,0.0,0.0,0.4065793752670288,-0.2285981774330139
-0.059916116297245,0.7245374917984009,-0.0710061341524124,,-0.1063917353749275,0.0287458952516317,0.0,0.0,0.1280374526977539,-0.4620038270950317
-0.0604671463370323,0.7069312930107117,-0.0566973462700843,-0.7823885083198547,-0.1048167273402214,0.0315002389252185,0.0,0.0,0.1486521959304809,-0.4081315398216247
-0.0609991066157817,0.6894234418869019,-0.0542784631252288,-0.778049111366272,-0.1037335023283958,0.0216642022132873,0.0,0.0,0.5672314167022705,-0.3961081504821777
-0.0613789558410644,0.6718567609786987,-0.0392634309828281,-0.7806527614593506,-0.1024682447314262,0.0253053102642297,0.0,0.0,0.0685617923736572,-0.5513067841529846
-0.0617419257760047,0.6543995141983032,-0.0383984111249446,-0.7757404446601868,-0.1003865525126457,0.0416338518261909,0.0,0.0,-0.401464581489563,-0.7645267248153687
-0.062145996838808,0.6362742185592651,-0.0433787554502487,-0.8053713440895081,-0.097437784075737,0.0589752569794654,0.0,0.0,0.2732608318328857,0.2222698926925659
-0.0625840201973915,0.6180298924446106,-0.0461617819964885,-0.8107069730758667,-0.0950989946722984,0.0467758812010288,0.0,0.0,0.741386890411377,0.0011681318283081
-0.0628401786088943,0.6003538370132446,-0.0281708631664514,-0.7854400277137756,-0.0925612598657608,0.0507549531757831,0.0,0.0,0.6574578285217285,-0.5162954926490784
-0.0629241019487381,0.5830037593841553,-0.0121532110497355,-0.7708872556686401,-0.0888386145234108,0.0744528248906135,0.0,0.0,-0.0369988679885864,0.367762804031372
-0.063005730509758,0.5649818181991577,-0.0116799045354127,-0.8007726073265076,-0.0853551551699638,0.0696691572666168,0.0,0.0,0.6521213054656982,0.383446455001831
-0.0630946159362793,0.5474719405174255,-0.0118131069466471,-0.7780504822731018,-0.0824527814984321,0.0580473542213439,0.0,0.0,0.5758233070373535,0.1914074420928955
-0.0631047263741493,0.5298120379447937,-0.0039465292356908,-0.7847235798835754,-0.079542838037014,0.0581990703940391,0.0,0.0,0.3291115760803222,-0.376745343208313
-0.0631501227617263,0.5123334527015686,-0.0068920427002012,-0.7767007350921631,-0.0772136822342872,0.0465828329324722,0.0,0.0,0.7154219150543213,-0.5343363285064697
-0.0630603805184364,0.4949737191200256,0.0053714578971266,-0.7713642716407776,-0.07364272326231,0.0714192613959312,0.0,0.0,0.7877717018127441,-0.3366259336471557
-0.0628976821899414,0.4779313206672668,0.012728857807815,-0.7572702169418335,-0.0701399743556976,0.0700548961758613,0.0,0.0,0.8187301158905029,-0.6700974106788635
-0.0627500563859939,0.4608768224716186,0.0100211044773459,-0.7577603459358215,-0.0654571279883384,0.0936568230390548,0.0,0.0,0.9298646450042723,-0.0866642594337463
-0.0627047568559646,0.4441979229450226,0.0006385099259205,-0.7411182522773743,-0.0616076700389385,0.0769893303513526,0.0,0.0,0.868288516998291,0.053356647491455
-0.0625797286629676,0.4282937049865722,0.008657538332045,-0.7067020535469055,-0.0577995441854,0.0761625617742538,0.0,0.0,0.777606725692749,-0.0020215511322021
-0.0623532310128212,0.41218101978302,0.0185200273990631,-0.7159687280654907,-0.0537257269024848,0.0814762413501739,0.0,0.0,0.9636855125427246,-0.0573127269744873
-0.0620463378727436,0.3969134390354156,0.0265583787113428,-0.6784161329269409,-0.0496353581547737,0.0818074494600296,0.0,0.0,0.8452777862548828,-0.0987521409988403
-0.0618251785635948,0.3817737102508545,0.0185913313180208,-0.6727662682533264,-0.0461526066064834,0.0696548745036125,0.0,0.0,0.831618070602417,-0.018223226070404
-0.0616791732609272,0.367093563079834,0.011661684140563,-0.6523597240447998,-0.0432515777647495,0.0580208674073219,0.0,0.0,0.9461654424667358,0.0198044776916503
-0.0614745132625103,0.3528376817703247,0.0174630116671323,-0.633514404296875,-0.040283203125,0.0593674853444099,0.0,0.0,0.9634854793548584,0.4090182781219482
-0.0613926872611045,0.3394230604171753,0.0059848213568329,-0.5961480736732483,-0.0381130129098892,0.0434038452804088,0.0,0.0,0.932795524597168,0.4055855274200439
-0.0612107291817665,0.3263438940048218,0.015682453289628,-0.5812338590621948,-0.0356249660253524,0.049760952591896,0.0,0.0,0.8963972330093384,0.2237071990966797
-0.0610639564692974,0.3132674992084503,0.012405501678586,-0.581121027469635,-0.033385757356882,0.0447841808199882,0.0,0.0,0.9531229734420776,0.8314549922943115
-0.0607648864388465,0.3000783920288086,0.0291946437209844,-0.5861648321151733,-0.0326763540506362,0.0141877038404345,0.0,0.0,0.9367839097976683,0.4537663459777832
-0.0605047233402729,0.286815345287323,0.0255231708288192,-0.5894574522972107,-0.0321887470781803,0.0097522418946027,0.0,0.0,0.9779376983642578,0.5317094326019287
-0.0601984970271587,0.2743069529533386,0.0312706343829631,-0.5559431910514832,-0.0328309424221515,-0.0128437373787164,0.0,0.0,0.864830493927002,-0.0163784623146057
-999.0,0.2625022232532501,0.041202999651432,-0.5246609449386597,-0.0330871455371379,-0.0051244478672742,0.0,0.0,0.5631756782531738,-0.6071500182151794
-0.0595355033874511,0.2511986792087555,0.0246867053210735,-0.5023648142814636,-0.0324242338538169,0.0132584553211927,0.0,0.0,0.8586678504943848,-0.1576091647148132
-0.059434987604618,0.2397884875535965,0.0100729800760746,-0.5071183443069458,-0.0324492193758487,-0.0004997465875931,0.0,0.0,0.9036887884140016,0.7113410234451294
-0.0592191703617572,0.2290727496147155,0.0229219682514667,-0.4762856066226959,-0.0337744653224945,-0.0265046544373035,0.0,0.0,0.7026110887527466,-0.3347756862640381
-0.0591097846627235,0.2185790836811065,0.0127683635801076,-0.4664272367954254,-0.0355810560286045,-0.0361319705843925,0.0,0.0,0.8244521617889404,-0.5935168266296387
-0.0591087341308593,0.2085436135530471,0.0009105369681492,-0.4460404813289642,-0.0363699905574321,-0.015778949484229,0.0,0.0,0.1734150648117065,-0.2820562124252319
-0.0591224655508995,0.1985806822776794,-0.0005529826739802,-0.4428151845932007,-0.0371816121041774,-0.0162324868142604,0.0,0.0,0.3187294006347656,0.246666669845581
-0.0590749755501747,0.188637688755989,0.0052190627902746,-0.4419238865375519,-0.0376476645469665,-0.0093210563063621,0.0,0.0,0.0600299835205078,-0.111787736415863
-0.059030819684267,0.1783506721258163,0.0047880387865006,-0.4572112262248993,-0.0380131267011165,-0.0073090763762593,0.0,0.0,0.604428768157959,-0.265508770942688
-0.0589097030460834,0.1679722368717193,0.01202929392457,-0.461262047290802,-0.0379252769052982,0.0017567400354892,0.0,0.0,0.7893130779266357,0.3906798362731933
-0.0586348548531532,0.1578393578529358,0.0266091469675302,-0.4503271281719208,-0.0370578505098819,0.0173483677208423,0.0,0.0,0.6897847652435303,-0.1938073635101318
-0.058232594281435,0.1476308703422546,0.0386265143752098,-0.4536716341972351,-0.0354828126728534,0.0315007343888282,0.0,0.0,0.7030806541442871,-0.1047104597091674
-0.0578398704528808,0.1379112601280212,0.037648469209671,-0.4319448173046112,-0.0338814631104469,0.0320271328091621,0.0,0.0,0.6844964027404785,0.0235922336578369
-0.0574216842651367,0.1286772340536117,0.0399953983724117,-0.4103642404079437,-0.0320759825408458,0.036109521985054,0.0,0.0,0.461106538772583,-0.5784221291542053
-0.0569437965750694,0.1196538507938385,0.0444461591541767,-0.4009683728218078,-0.0287855900824069,0.0658081322908401,0.0,0.0,0.6438164710998535,-0.2378113269805908
-0.0563906654715538,0.1104410737752914,0.0514521896839141,-0.4093911945819855,-0.024964191019535,0.0764278918504715,0.0,0.0,0.8808310031890869,-0.5211033225059509
-0.0559627525508403,0.1014278531074523,0.0379848256707191,-0.4005158841609955,-0.020222308114171,0.0948376804590225,0.0,0.0,0.9187374114990234,-0.1822737455368042
-0.0554524436593055,0.0932422503829002,0.0456950813531875,-0.363739401102066,-0.0149517683312296,0.1054106801748275,0.0,0.0,0.5840120315551758,0.4362386465072632
-0.0549932494759559,0.0852035582065582,0.0406036078929901,-0.3572290539741516,-0.0097077144309878,0.1048811823129654,0.0,0.0,0.9400795698165894,0.9766082763671876
-0.0546476356685161,0.0779041647911071,0.0314184166491031,-0.3244028389453888,-0.0066005541011691,0.0621433071792125,0.0,0.0,0.4596412181854248,0.4345451593399048
-0.054259680211544,0.0708565339446067,0.0352054499089717,-0.3132165074348449,-0.0030558253638446,0.0708945393562316,0.0,0.0,0.2983084917068481,0.967766523361206
-0.0538815483450889,0.0640279874205589,0.0361029431223869,-0.3034923374652862,-0.001375364488922,0.0336093381047248,0.0,0.0,0.3264259099960327,0.552802562713623
-0.0535715110599994,0.0574327558279037,0.0304847545921802,-0.2931188941001892,-0.0008651700918562,0.0102040665224194,0.0,0.0,0.7980334758758545,0.9047621488571168
-0.053260326385498,0.050975140184164,0.0323869362473487,-0.2870088517665863,-0.0021187113597989,-0.0250707007944583,0.0,0.0,0.5846238136291504,0.9247481822967528
-0.0530423149466514,0.0447115041315555,0.0250034444034099,-0.2783905267715454,-0.0052853398956358,-0.063332699239254,0.0,0.0,0.6686077117919922,0.9353766441345216
-0.052960205823183,0.0385679565370082,0.0134570952504873,-0.2730763852596283,-0.0104627227410674,-0.1035477891564369,0.0,0.0,0.8745756149291992,0.840334415435791
-0.052713967859745,0.0329773053526878,0.0312167108058929,-0.2485335171222686,-0.0169613622128963,-0.1299726068973541,0.0,0.0,0.5226156711578369,0.5671212673187256
-0.0523992553353309,0.0272172782570123,0.0389622375369071,-0.2561039328575134,-0.0243541020900011,-0.1478552967309951,0.0,0.0,0.7308270931243896,-0.0836458206176757
-0.0519568435847759,0.0219785310328006,0.050924114882946,-0.2329577505588531,-0.0309571772813797,-0.1320613026618957,0.0,0.0,0.6817374229431152,-0.3898696303367615
-0.0515574440360069,0.0172533374279737,0.0466431714594364,-0.2101612091064453,-0.0375822037458419,-0.1325005888938903,0.0,0.0,0.6888799667358398,0.3961967229843139
-0.0510241501033306,0.0131574245169758,0.0592732951045036,-0.1822026073932647,-0.0434481091797351,-0.117318071424961,0.0,0.0,0.3433051109313965,-0.4172755479812622
-0.050453282892704,0.0090916967019438,0.0626484006643295,-0.1808707565069198,-0.0489443689584732,-0.1099249869585037,0.0,0.0,-0.0358958840370178,-0.122785210609436
-0.0499277114868164,0.0043539144098758,0.0580407083034515,-0.2107553631067276,-0.0543599538505077,-0.108311727643013,0.0,0.0,0.8527768850326538,-0.6756739616394043
-0.049288559705019,0.0010134554468095,0.0483331941068172,-0.1479875743389129,-0.0388939678668975,0.3093937337398529,1.0,0.0,0.7712805271148682,-0.5984567403793335
-0.0484782233834266,-0.0016669296892359,0.0472617633640766,-0.1186148077249527,-0.0054695182479918,0.6686047911643982,1.0,0.0,0.8404395580291748,0.7304829359054565
-0.0478927604854106,-0.0029740238096565,0.0339892357587814,-0.058211825788021,0.0187899004667997,0.4852175116539001,1.0,1.0,0.415019154548645,0.6145975589752197
-0.0476028434932231,-0.0036396766081452,0.0238067843019962,-0.0296725798398256,0.0239370241761207,0.102985680103302,1.0,1.0,-0.2945041060447693,0.2437062263488769
-0.0474437698721885,-0.0039054297376424,0.0138953579589724,-0.0118542062118649,0.0259696245193481,0.0406947992742061,1.0,1.0,-0.7803072929382324,0.2236043214797973
-0.0474010482430458,-0.0037843370810151,0.0052286116406321,0.0053926007822155,0.0250525847077369,-0.0183111242949962,1.0,1.0,-0.7761273384094238,0.0078436136245727
-0.0473855026066303,-0.0033713125158101,0.0047658863477408,0.0183989573270082,0.0218947865068912,-0.0631273314356803,1.0,1.0,-0.8533545136451721,0.089634895324707
-0.0473896041512489,-0.0027401710394769,0.0044300821609795,0.0281114261597394,0.0171333383768796,-0.0952034741640091,1.0,1.0,-0.5489803552627563,-0.0996646881103515
-0.0474035255610942,-0.0020015977788716,0.0042599104344844,0.032876681536436,0.0115689560770988,-0.1112662181258201,1.0,1.0,-0.6286031603813171,-0.5145031213760376
-0.0474626533687114,-0.001286628190428,-0.0004076754266861,0.0318040363490581,0.0061585661023855,-0.1081898435950279,1.0,1.0,-0.5291268825531006,-0.2390651702880859
