x_pos,y_pos,x_vel,y_vel,angle,ang_vel,leg_1,leg_2,main_booster,lat_booster
-0.0015241622459143,1.4031327962875366,-0.1551191657781601,-0.346106618642807,0.0024166987277567,0.0477201491594314,0.0,0.0,-0.0588957667350769,0.984194278717041
-0.0029658316634595,1.3948723077774048,-0.1450505256652832,-0.3671314120292663,0.0032990355975925,0.0176490768790245,0.0,0.0,-0.0820894241333007,0.9167171716690063
-0.0043211937882006,1.3861134052276611,-0.1348305642604828,-0.389282763004303,0.0026022167876362,-0.0139374583959579,0.0,0.0,-0.0372871756553649,0.6726456880569458
-0.0056365011259913,1.376860737800598,-0.130383089184761,-0.4112307727336883,0.0014687003567814,-0.0226725973188877,0.0,0.0,-0.3568875789642334,0.2388265132904052
-0.0069549558684229,1.3671162128448486,-0.1313264220952987,-0.4330866932868957,0.0009620335767976,-0.0101344482973217,0.0,0.0,0.8025310039520264,0.9173016548156738
-0.008039379492402,1.3577678203582764,-0.1070307716727256,-0.4154818952083587,-0.0004346882633399,-0.0279371254146099,0.0,0.0,-0.6389577984809875,-0.0087349414825439
-0.0091283796355128,1.3479275703430176,-0.1081052869558334,-0.4373451769351959,-0.0012128959642723,-0.0155656384304165,0.0,0.0,-0.2647777795791626,0.0639749765396118
-0.0102225299924612,1.3375955820083618,-0.1092485338449478,-0.4591983258724212,-0.0013782257447019,-0.0033068459015339,0.0,0.0,0.5128769874572754,0.7071096897125244
-0.0112781524658203,1.327928900718689,-0.1045588478446006,-0.4296323359012604,-0.0023609162308275,-0.0196560025215148,0.0,0.0,-0.5744970440864563,0.88081955909729
-0.0122710224241018,1.3177756071090698,-0.0971404761075973,-0.4512673616409302,-0.0044833300635218,-0.0424520149827003,0.0,0.0,0.1235519647598266,0.8041375875473022
-0.0131382942199707,1.30773663520813,-0.0836303308606147,-0.4461861848831177,-0.0075520337559282,-0.0613798014819622,0.0,0.0,-0.9004282355308533,-0.4287536144256592
-0.014013672247529,1.2972058057785034,-0.0850329250097274,-0.4680476486682892,-0.010030404664576,-0.0495714247226715,0.0,0.0,-0.4216612577438354,0.1850813627243042
-0.014898014254868,1.2861833572387695,-0.0865032523870468,-0.4899021983146667,-0.0119257755577564,-0.0379113256931304,0.0,0.0,-0.892799973487854,-0.8103145360946655
-0.015848446637392,1.2746623754501345,-0.0951451584696769,-0.512037456035614,-0.0118227582424879,0.0020604464225471,0.0,0.0,-0.3768268823623657,-0.4844728708267212
-0.0168091766536235,1.262649655342102,-0.0967530235648155,-0.5338929891586304,-0.0111525636166334,0.0134049504995346,0.0,0.0,0.0299350023269653,-0.6312822699546814
-0.0177513118833303,1.250415325164795,-0.0968281850218772,-0.5437349081039429,-0.0085767954587936,0.0515204444527626,0.0,0.0,-0.4038782715797424,-0.0883814096450805
-0.0187054630368948,1.2376891374588013,-0.0985699519515037,-0.5655940771102905,-0.0054512992501258,0.0625155717134475,0.0,0.0,0.1402628421783447,-0.3555794358253479
-0.0195724479854106,1.2248584032058716,-0.0908673331141471,-0.5702444911003113,-0.001323543023318,0.0825624540448188,0.0,0.0,0.1121578216552734,0.4147098064422607
-0.0203865058720111,1.212346434593201,-0.086433358490467,-0.5560857057571411,0.0036408009473234,0.0992958918213844,0.0,0.0,-0.8481895923614502,0.8144015073776245
-0.0211588852107524,1.199342966079712,-0.0813711881637573,-0.5779495239257812,0.007724767550826,0.0816866979002952,0.0,0.0,-0.7708708643913269,0.4266989231109619
-0.0219460483640432,1.1858481168746948,-0.0833560079336166,-0.5998046398162842,0.0123191848397254,0.0918963551521301,0.0,0.0,-0.3344782590866089,0.2405723333358764
-0.0227486602962017,1.1718618869781494,-0.0853991582989692,-0.6216618418693542,0.0174114126712083,0.1018535941839218,0.0,0.0,-0.8231353759765625,0.7992837429046631
-0.0234903339296579,1.1573851108551023,-0.0778605639934539,-0.6434584259986877,0.0210586823523044,0.0729521065950393,0.0,0.0,0.2267582416534423,0.8747556209564209
-0.0241243354976177,1.142758846282959,-0.0658541768789291,-0.6500943303108215,0.0234809219837188,0.0484489873051643,0.0,0.0,-0.2216236591339111,0.006812572479248
-0.0247756950557231,1.127640962600708,-0.0680507272481918,-0.6719549298286438,0.0263635832816362,0.0576583258807659,0.0,0.0,-0.5229476690292358,0.2254853248596191
-0.0254445075988769,1.1120102405548096,-0.0702604800462722,-0.6947653293609619,0.0296925250440835,0.066579096019268,0.0,0.0,-0.2289168834686279,0.1255536079406738
-0.0261319167912006,1.0958878993988037,-0.0725480914115905,-0.7166217565536499,0.0334535352885723,0.0752202644944191,0.0,0.0,-0.374959647655487,0.7261409759521484
-0.0267936699092388,1.0792841911315918,-0.0692555829882621,-0.7380176186561584,0.0364994518458843,0.0609183087944984,0.0,0.0,0.157754898071289,0.6420580148696899
-0.0275465957820415,1.0630052089691162,-0.0773448571562767,-0.7235658168792725,0.0385220646858215,0.0404523722827434,0.0,0.0,0.4029942750930786,0.5514135360717773
-0.0283114425837993,1.0468546152114868,-0.0777713283896446,-0.7178389430046082,0.0397883132100105,0.0253249444067478,0.0,0.0,0.1332825422286987,0.6904218196868896
-0.029051398858428,1.0310947895050049,-0.0742753967642784,-0.700442910194397,0.0400641821324825,0.0055172936990857,0.0,0.0,-0.5253888368606567,0.5492656230926514
-0.0297749526798725,1.0148426294326782,-0.0720210820436477,-0.7223139405250549,0.039739191532135,-0.0064997700974345,0.0,0.0,-0.5653097629547119,-0.2178662419319152
-0.0305204391479492,0.9980987906455994,-0.074558176100254,-0.7441693544387817,0.0397465080022811,0.0001463545777369,0.0,0.0,0.7194005250930786,-0.1127029061317443
-0.0313696861267089,0.9814220070838928,-0.0849393308162689,-0.741188108921051,0.0397608317434787,0.0002861772954929,0.0,0.0,0.4619159698486328,-0.1537457704544067
-0.0322496406733989,0.9650862812995912,-0.0883791968226432,-0.7260357737541199,0.0401367954909801,0.0075191026553511,0.0,0.0,-0.5436468720436096,0.0027085542678833
-0.0331532470881938,0.948259174823761,-0.0910174548625946,-0.7478911280632019,0.0407887324690818,0.0130386399105191,0.0,0.0,-0.9363110661506652,0.3756794929504394
-0.0340809822082519,0.9309403896331788,-0.0936860591173172,-0.7697463631629944,0.0416971743106842,0.0181686226278543,0.0,0.0,0.0102969408035278,0.2048617601394653
-0.0350293144583702,0.9138292074203492,-0.0961054414510726,-0.7605347037315369,0.0429499596357345,0.0250557251274585,0.0,0.0,-0.7724916338920593,0.6728734970092773
-0.0359532348811626,0.8962370753288269,-0.0926117449998855,-0.7818792462348938,0.0431670993566513,0.0043428996577858,0.0,0.0,-0.2422323226928711,-0.4059602618217468
-0.036902617663145,0.878153383731842,-0.09536162763834,-0.8037343621253967,0.0435809083282947,0.0082762669771909,0.0,0.0,0.6244596242904663,0.6966607570648193
-0.0379711166024208,0.8607271909713745,-0.1057966500520706,-0.7744636535644531,0.0425441227853298,-0.020735677331686,0.0,0.0,-0.6049838066101074,0.4672814607620239
-0.0390659347176551,0.8428094387054443,-0.1085929498076438,-0.7963186502456665,0.0416635051369667,-0.0176124535501003,0.0,0.0,0.619611382484436,0.5946919918060303
-0.0400504097342491,0.8248636722564697,-0.0967494994401931,-0.7975445985794067,0.0399863123893737,-0.0335438027977943,0.0,0.0,0.8453264236450195,-0.5852921009063721
-0.0410135276615619,0.8073141574859619,-0.0962293893098831,-0.7799693942070007,0.0399102643132209,-0.0015208042459562,0.0,0.0,-0.2262852191925048,0.1867409944534301
-0.042004108428955,0.7892731428146362,-0.0990844219923019,-0.801824152469635,0.0399298295378685,0.0003911940730176,0.0,0.0,0.4068002700805664,0.7810328006744385
-0.0429283156991004,0.7711654305458069,-0.0910040289163589,-0.8047572374343872,0.0385348163545131,-0.0279000215232372,0.0,0.0,0.836193323135376,0.6351863145828247
-0.0437767021358013,0.7533139586448669,-0.0823957622051239,-0.7933347821235657,0.0361182242631912,-0.048331793397665,0.0,0.0,0.9565432071685792,-0.7466043829917908
-0.0448926910758018,0.7364479303359985,-0.1103481650352478,-0.7495667338371277,0.0348836034536361,-0.0246924255043268,0.0,0.0,0.5041457414627075,0.8681067228317261
-0.0461300835013389,0.7201701402664185,-0.1205693632364273,-0.7233847975730896,0.031760212033987,-0.0624679699540138,0.0,0.0,-0.7678996324539185,0.1334391832351684
-0.0473966598510742,0.7034007906913757,-0.1234955564141273,-0.7452400326728821,0.028635561466217,-0.0624929256737232,0.0,0.0,-0.0687758922576904,0.4190425872802734
-0.0486927032470703,0.6861398220062256,-0.1264322847127914,-0.7670950293540955,0.025491340085864,-0.0628845766186714,0.0,0.0,-0.2618963718414306,0.8462915420532227
-0.0499583259224891,0.668395459651947,-0.1217902526259422,-0.7885701060295105,0.0207868088036775,-0.0940907076001167,0.0,0.0,0.7432315349578857,0.8758895397186279
-0.0510663986206054,0.6508644223213196,-0.1044452786445617,-0.7790825366973877,0.0145030682906508,-0.1256749331951141,0.0,0.0,0.512643575668335,-0.3763419389724731
-0.0522125251591205,0.6339375972747803,-0.1081844791769981,-0.7522531747817993,0.0081609096378088,-0.1268431544303894,0.0,0.0,-0.209954023361206,-0.2083361744880676
-0.0533891692757606,0.6165196895599365,-0.1111518591642379,-0.7741108536720276,0.0017304940847679,-0.1286085098981857,0.0,0.0,0.7929925918579102,0.7136451005935669
-0.0546536445617675,0.5993744730949402,-0.1181326135993003,-0.7620229721069336,-0.0064778160303831,-0.164166122674942,0.0,0.0,0.0877686738967895,-0.0677505731582641
-0.0558837875723838,0.5825248956680298,-0.1148671135306358,-0.74892657995224,-0.0145193161442875,-0.1608299911022186,0.0,0.0,0.4962105751037597,0.1475955247879028
-0.0570112243294715,0.5660977363586426,-0.1050459146499633,-0.7301867604255676,-0.0221170037984848,-0.1519537717103958,0.0,0.0,-0.4415122270584106,0.2848716974258423
-0.0581699386239051,0.5491797924041748,-0.1080265045166015,-0.7520462274551392,-0.0298631507903337,-0.154922753572464,0.0,0.0,0.7985379695892334,-0.3007991909980774
-0.0594173446297645,0.5330572724342346,-0.1163497567176818,-0.7167460322380066,-0.0381549969315528,-0.1658369898796081,0.0,0.0,-0.8460373282432556,0.0394136905670166
-0.0606964118778705,0.5164440274238586,-0.1193305253982544,-0.7386066913604736,-0.0466219335794448,-0.1693388670682907,0.0,0.0,0.0152426958084106,-0.1152824163436889
-0.0620485320687294,0.499990314245224,-0.126166358590126,-0.7315810918807983,-0.0555615127086639,-0.1787919700145721,0.0,0.0,-0.4202302694320678,0.5969488620758057
-0.0633755698800087,0.4830400347709656,-0.1220161318778991,-0.7537744045257568,-0.0661325305700302,-0.2114203423261642,0.0,0.0,0.8890447616577148,-0.2332664132118225
-0.0646611228585243,0.4666460156440735,-0.117792785167694,-0.729131817817688,-0.0767896920442581,-0.2131429463624954,0.0,0.0,0.691257119178772,-0.1978538036346435
-0.0659391433000564,0.4503748118877411,-0.1168508529663086,-0.7237605452537537,-0.0876312479376792,-0.2168309986591339,0.0,0.0,0.3324306011199951,-0.6250229477882385
-0.0673660263419151,0.4343471527099609,-0.1325706988573074,-0.7129639983177185,-0.0976647436618805,-0.2006700485944748,0.0,0.0,-0.4769713878631592,0.203076958656311
-0.068824864923954,0.4178294539451599,-0.135525494813919,-0.7348287105560303,-0.1079393625259399,-0.2054925858974456,0.0,0.0,0.8675459623336792,-0.4179953336715698
-0.0701876655220985,0.4012997448444366,-0.1261169016361236,-0.7354192137718201,-0.1180349811911583,-0.2019123136997223,0.0,0.0,0.8058152198791504,-0.8493110537528992
-0.0715060234069824,0.3856856524944305,-0.1231879442930221,-0.6946665644645691,-0.1266296505928039,-0.1718937158584594,0.0,0.0,0.831902027130127,-0.7593334913253784
-0.0729624778032302,0.3703917562961578,-0.1380254030227661,-0.6803940534591675,-0.134222000837326,-0.1518470495939254,0.0,0.0,0.7319353818893433,-0.5940472483634949
-0.0745046585798263,0.3556951880455017,-0.1472443044185638,-0.6538260579109192,-0.1411648094654083,-0.1388562321662902,0.0,0.0,-0.1948497295379638,-0.3107163906097412
-0.0760785117745399,0.3405080139636993,-0.1501418799161911,-0.6756876707077026,-0.1483886390924453,-0.1444765627384185,0.0,0.0,0.8824639320373535,-0.6811591386795044
-0.0777506828308105,0.3263124823570251,-0.1606769561767578,-0.6315804123878479,-0.1549212634563446,-0.1306523084640503,0.0,0.0,0.8562455177307129,0.2350949048995971
-0.0792726501822471,0.3125687837600708,-0.1457533538341522,-0.6115154027938843,-0.1613654643297195,-0.1288841068744659,0.0,0.0,0.818354606628418,-0.8026290535926819
-0.0808604210615158,0.2989907264709472,-0.153547316789627,-0.604049026966095,-0.1665869057178497,-0.1044292598962783,0.0,0.0,0.738955020904541,-0.4260494709014892
-0.082351878285408,0.2854101657867431,-0.1439693719148636,-0.604170024394989,-0.1717811673879623,-0.1038851961493492,0.0,0.0,0.8928143978118896,0.5629513263702393
-0.0838028937578201,0.2719067633152008,-0.138366088271141,-0.600943922996521,-0.1785236597061157,-0.1348498910665512,0.0,0.0,0.931788206100464,-0.4691165089607239
-0.0851294547319412,0.2592847347259521,-0.1255886107683181,-0.5618488788604736,-0.1856240034103393,-0.1420072466135025,0.0,0.0,0.7451355457305908,-0.947455883026123
-0.0863071456551551,0.2474463731050491,-0.1124160066246986,-0.5268276333808899,-0.190994992852211,-0.1074201837182045,0.0,0.0,0.8383529186248779,-0.9388849139213562
-0.0875501632690429,0.2365266382694244,-0.1202968209981918,-0.4858438074588775,-0.195020779967308,-0.0805157646536827,0.0,0.0,-0.5777455568313599,-0.7790856957435608
-0.0888976082205772,0.2251299768686294,-0.1323114335536956,-0.5068410038948059,-0.1974735409021377,-0.0490549430251121,0.0,0.0,0.5632781982421875,0.2443112134933471
-0.0900906547904014,0.2143315374851226,-0.1167216673493385,-0.4802810549736023,-0.2000744193792343,-0.0520174726843833,0.0,0.0,0.4707288742065429,-0.5576168298721313
-0.0913500785827636,0.2038375288248062,-0.1239242702722549,-0.4666741490364074,-0.2021103799343109,-0.0407188795506954,0.0,0.0,0.4519941806793213,0.1992826461791992
-0.0925661101937294,0.1937426179647445,-0.1190420165657997,-0.4490146934986114,-0.2046975344419479,-0.0517428629100322,0.0,0.0,0.1602238416671753,-0.5846563577651978
-0.0937649756669998,0.1838979870080948,-0.1181375160813331,-0.4377803206443786,-0.2064523547887802,-0.0350965782999992,0.0,0.0,0.0855501890182495,-0.7421093583106995
-0.0949064269661903,0.1741217225790023,-0.1136139258742332,-0.4345758855342865,-0.2069965302944183,-0.0108835846185684,0.0,0.0,0.7684568166732788,-0.0349781513214111
-0.0959754958748817,0.164384663105011,-0.1061582192778587,-0.4328619539737701,-0.2077543586492538,-0.015156234614551,0.0,0.0,0.9427895545959472,-0.2401134967803955
-0.0968673676252365,0.1548180431127548,-0.088606871664524,-0.4252654314041137,-0.2083387523889541,-0.0116878999397158,0.0,0.0,0.824325442314148,-0.7466405034065247
-0.0975400954484939,0.145649179816246,-0.0682323575019836,-0.4073686599731445,-0.2073682248592376,0.0194105450063943,0.0,0.0,0.485591173171997,0.0147011280059814
-0.0980431586503982,0.1364713758230209,-0.051512848585844,-0.4077330529689789,-0.2061483412981033,0.0243976060301065,0.0,0.0,0.6848421096801758,-0.762649655342102
-0.098479077219963,0.1279534697532653,-0.0459871962666511,-0.3782390654087066,-0.2037331461906433,0.0483041331171989,0.0,0.0,0.5826655626296997,-0.7266330122947693
-0.0988161116838455,0.1200252175331115,-0.0372896119952201,-0.351875752210617,-0.2001199275255203,0.0722643584012985,0.0,0.0,0.1299693584442138,-0.8616752028465271
-0.0990552902221679,0.1122709810733795,-0.028943071141839,-0.343963474035263,-0.1950641870498657,0.1011150106787681,0.0,0.0,0.6768193244934082,-0.6192941665649414
-0.0991937667131424,0.1044895052909851,-0.020050385966897,-0.345039814710617,-0.1888292282819748,0.1246995478868484,0.0,0.0,0.7701221704483032,-0.4976873993873596
-0.0993074402213096,0.0970372557640075,-0.0169911719858646,-0.3305040299892425,-0.1831777989864349,0.1130283623933792,0.0,0.0,0.712378978729248,0.1325788497924804
-0.0991933792829513,0.0903894528746604,0.005695411004126,-0.2947627604007721,-0.1774413436651229,0.1147291213274002,0.0,0.0,-0.3594081401824951,-0.4799312353134155
-0.0990997329354286,0.0832511261105537,0.0039597633294761,-0.3166245520114898,-0.1720228046178817,0.1083703860640525,0.0,0.0,0.739682674407959,0.5118411779403687
-0.0989790931344032,0.0768899992108345,0.0083836205303668,-0.2822964489459991,-0.1683364659547805,0.0737268477678299,0.0,0.0,0.526907205581665,-0.681191623210907
-0.098734475672245,0.0709864944219589,0.0195456370711326,-0.2618269324302673,-0.1634204387664795,0.0983209311962127,0.0,0.0,0.0993227958679199,-0.8110942840576172
-0.0985293388366699,0.0653627961874008,0.0142969563603401,-0.2492722421884536,-0.1572054922580719,0.1242990344762802,0.0,0.0,0.5922820568084717,0.407906174659729
-0.0983060821890831,0.0603363364934921,0.0167713332921266,-0.2228229641914367,-0.1516638398170471,0.1108334213495254,0.0,0.0,-0.084695816040039,0.4869301319122314
-0.0980979949235916,0.0548191405832767,0.0155675951391458,-0.2446836680173874,-0.1464224308729171,0.1048275679349899,0.0,0.0,0.0752362012863159,0.4860161542892456
-0.0979215651750564,0.0494085177779197,0.0130376266315579,-0.2400258332490921,-0.1418282836675644,0.0918828323483467,0.0,0.0,0.7250099182128906,0.4931738376617431
-0.097835823893547,0.0443523041903972,0.0049881162121891,-0.2243834286928177,-0.1382524073123932,0.0715176537632942,0.0,0.0,0.4815330505371094,0.635535717010498
-0.0975193008780479,0.0397342555224895,0.0293979849666357,-0.205039769411087,-0.1360155642032623,0.0447372533380985,0.0,0.0,0.6649348735809326,0.7919309139251709
-0.097033217549324,0.0351441018283367,0.0481121689081192,-0.2039585709571838,-0.1355213224887848,0.0098845548927783,0.0,0.0,0.7418453693389893,-0.0071475505828857
-0.0962952598929405,0.0312272887676954,0.0728726163506507,-0.1739977300167083,-0.1345960199832916,0.0185063909739255,0.0,0.0,0.5270211696624756,-0.6124505996704102
-0.0955380424857139,0.0279047824442386,0.0738817527890205,-0.1475013792514801,-0.1327667534351349,0.0365850776433944,0.0,0.0,0.3219711780548095,-0.6013544201850891
-0.0946178436279296,0.0250991210341453,0.0890009775757789,-0.1244284957647323,-0.129754438996315,0.060246042907238,0.0,0.0,-0.1476625204086303,-0.7122775912284851
-0.0937500968575477,0.0218120198696851,0.0827582404017448,-0.1457508355379104,-0.1257587373256683,0.07991424202919,0.0,0.0,-0.009063184261322,-0.1424190998077392
-0.0928845405578613,0.0180338248610496,0.0827892199158668,-0.1676092147827148,-0.122015856206417,0.0748575776815414,0.0,0.0,0.3099937438964844,-0.688569962978363
-0.0919440239667892,0.0147004462778568,0.0890701487660408,-0.1477511674165725,-0.1170582994818687,0.0991513654589653,0.0,0.0,0.2308497428894043,-0.7589802742004395
-0.090954877436161,0.0113798715174198,0.092562735080719,-0.1470987349748611,-0.1107526272535324,0.1261134445667266,0.0,0.0,0.4241650104522705,-0.5449609160423279
-0.0899937599897384,0.0089442105963826,0.0753824040293693,-0.1068697199225425,-0.0900982320308685,0.4131906926631927,1.0,0.0,0.3162572383880615,-0.4472171068191528
-0.0890969261527061,0.0066484902054071,0.0693633630871772,-0.1009461507201194,-0.0699158832430839,0.4037145972251892,1.0,0.0,0.3486679792404175,-0.5108842253684998
-0.0882194489240646,0.0045830821618437,0.0657310113310813,-0.090928129851818,-0.0480809472501277,0.4367696344852447,1.0,0.0,-0.1806167364120483,0.3266196250915527
-0.0873472243547439,0.0020237183198332,0.0654777288436889,-0.1132016405463218,-0.0265779681503772,0.4300906062126159,1.0,0.0,0.4097130298614502,0.3302903175354004
-0.0863550156354904,-0.0005656504654325,0.0769105106592178,-0.1148351058363914,-0.0045589990913867,0.4403864443302154,1.0,0.0,0.002769112586975,-0.1162160634994506
-0.0853613838553428,-0.0027074837125837,0.0712553709745407,-0.0953451767563819,0.0231967959553003,0.5551261901855469,1.0,1.0,0.3911153078079223,0.8382569551467896
-0.0844401344656944,-0.0038848305121064,0.0790442079305648,-0.0528061501681804,0.0348231308162212,0.2308683842420578,0.0,1.0,-0.7672401666641235,0.751555323600769
