x_pos,y_pos,x_vel,y_vel,angle,ang_vel,leg_1,leg_2,main_booster,lat_booster
-0.0015290260780602,1.403534173965454,-0.1550601422786712,-0.3282632827758789,0.0019304360030218,0.0380923226475715,0.0,0.0,-0.4668259442909119,-0.8655065073277352
-0.0031267167069017,1.396076798439026,-0.1634095013141632,-0.3314464688301086,0.0055334600619971,0.0720679312944412,0.0,0.0,0.9563996666218426,-0.9589145121830234
-0.0046347617171704,1.3892405033111572,-0.1568658500909805,-0.3038719296455383,0.0115312589332461,0.1199668422341346,0.0,0.0,0.7838829262621736,0.777579430016335
-0.0062366486527025,1.3831192255020142,-0.1645343005657196,-0.2720930278301239,0.0158381909132003,0.086146667599678,0.0,0.0,-0.6953936602336495,-0.8585103687125911
-0.0079002380371093,1.3769094944000244,-0.1722348928451538,-0.2760619223117828,0.0216472651809453,0.1161924451589584,0.0,0.0,0.353096379118742,0.924741754462088
-0.0093812942504882,1.3712821006774902,-0.1524177193641662,-0.2501707673072815,0.0259133502840995,0.0853295177221298,0.0,0.0,0.1717297402474156,0.8621354826487856
-0.010833740234375,1.3661807775497437,-0.1479944288730621,-0.2267804890871048,0.028630543500185,0.0543491132557392,0.0,0.0,-0.4008411876661353,-0.6862539870116706
-0.0123376846313476,1.3609894514083862,-0.1543428748846054,-0.2308053374290466,0.0325432904064655,0.0782618522644043,0.0,0.0,-0.0931211287965974,-0.969556969256658
-0.013930988498032,1.3557151556015017,-0.1654459685087204,-0.2345614582300186,0.0385877750813961,0.1209007948637008,0.0,0.0,0.95222623250581,-0.9090835953683176
-0.0156422611325979,1.3516392707824707,-0.1792308986186981,-0.1813802272081375,0.0466068126261234,0.160395473241806,0.0,0.0,-0.7823192888241961,0.7961072740308813
-0.0172945968806743,1.3474793434143066,-0.1716938912868499,-0.1851048171520233,0.0529997944831848,0.127871423959732,0.0,0.0,0.1303303646739175,-0.6418560001015288
-0.0189754478633403,1.3437702655792236,-0.1760926842689514,-0.1651506274938583,0.0609276294708251,0.1585711240768432,0.0,0.0,0.3626701473723881,0.900064399849059
-0.0205119140446186,1.340857744216919,-0.1601529270410537,-0.1297244727611541,0.0673714950680732,0.1288892179727554,0.0,0.0,0.1535719843968133,0.7241074072560687
-0.0219672210514545,1.338231086730957,-0.1508369743824005,-0.1169875785708427,0.0726273581385612,0.1051266565918922,0.0,0.0,0.2710260439440628,-0.9951821586075762
-0.0234353058040142,1.3364790678024292,-0.154338389635086,-0.0782422199845314,0.0800922513008117,0.149311751127243,0.0,0.0,0.2053637580789047,0.8781424658009027
-0.0247737877070903,1.3349710702896118,-0.139865905046463,-0.0673583000898361,0.0860598757863044,0.1193631663918495,0.0,0.0,-0.3221529723496541,-0.719656319819749
-0.0261716842651367,1.3333760499954224,-0.1471076756715774,-0.0713190287351608,0.09331876039505,0.1451908349990844,0.0,0.0,-0.7123611439589128,0.921105038810294
-0.0274953842163085,1.3316965103149414,-0.1375834345817566,-0.0749833583831787,0.0985041409730911,0.1037168502807617,0.0,0.0,-0.4397359299437844,0.7996496943728941
-0.0287624355405569,1.3299453258514404,-0.130257099866867,-0.0780639350414276,0.1020314842462539,0.0705533623695373,0.0,0.0,-0.7125616561449188,0.7213561874623827
-0.0299964901059865,1.3281116485595703,-0.1258995682001114,-0.0816753655672073,0.1045081689953804,0.0495381653308868,0.0,0.0,-0.155576716275984,-0.6152025044128285
-0.0312853828072547,1.3261864185333252,-0.1325422376394271,-0.0858269482851028,0.1081436574459075,0.0727164819836616,0.0,0.0,-0.4396073194446381,-0.773014432980325
-0.0326500907540321,1.3241573572158811,-0.1418413072824478,-0.0905781760811805,0.1134859696030616,0.1068556308746337,0.0,0.0,0.2554520782181868,0.6294226488166721
-0.0339204780757427,1.3226814270019531,-0.1315190196037292,-0.0659468472003936,0.1179570332169532,0.0894293040037155,0.0,0.0,0.9704486049678578,0.8247974258100176
-0.0350957885384559,1.3216886520385742,-0.1207660213112831,-0.0443863160908222,0.1211795136332511,0.0644555836915969,0.0,0.0,0.5450900944117141,-0.6245290834643986
-0.0365535728633403,1.3214685916900637,-0.1501361429691314,-0.0101346643641591,0.1255237162113189,0.0868917554616928,0.0,0.0,0.6576339157377544,0.6127096358163132
-0.0382240302860736,1.3221715688705444,-0.1700029671192169,0.0309895314276218,0.1284606009721756,0.0587378330528736,0.0,0.0,-0.5678825042403608,-0.9560344495627392
-0.0399868972599506,1.3227763175964355,-0.1813312321901321,0.0264327898621559,0.1334907710552215,0.1006031483411789,0.0,0.0,0.5059200285028,0.8600742781830185
-0.0419331565499305,1.3244054317474363,-0.1979723274707794,0.0721009597182273,0.1368191391229629,0.0665673539042472,0.0,0.0,0.7395017508121464,0.9452151373533476
-0.0440869331359863,1.3271483182907104,-0.2167866677045822,0.1217707246541976,0.1382276266813278,0.0281698610633611,0.0,0.0,0.8858051292915623,-0.7048008991251358
-0.0464153289794921,1.3306087255477903,-0.2358022630214691,0.1535137593746185,0.141183391213417,0.0591149255633354,0.0,0.0,-0.6888297522233093,-0.927529588368241
-0.0488324165344238,1.3339747190475464,-0.2466708123683929,0.1491225212812423,0.1461293846368789,0.0989201664924621,0.0,0.0,0.2195616053305389,-0.6559648468408023
-0.0514284148812294,1.3377021551132202,-0.2659682631492615,0.1650295406579971,0.1524918228387832,0.1272488385438919,0.0,0.0,-0.7625461462886418,-0.7451702438469535
-0.0541086196899414,1.341332197189331,-0.2762826085090637,0.1604677140712738,0.1607442796230316,0.1650495678186416,0.0,0.0,-0.390824998313833,-0.8200494690254022
-0.0568760856986045,1.3448491096496582,-0.2870126068592071,0.1551602482795715,0.1710147857666015,0.2054097652435302,0.0,0.0,0.5122792251391539,-0.9366577447028852
-0.0598151199519634,1.349113941192627,-0.3062322735786438,0.1880741566419601,0.183376669883728,0.2472378313541412,0.0,0.0,0.899109175018137,-0.8958127752406445
-0.0629777908325195,1.3545669317245483,-0.3305840790271759,0.2405230402946472,0.1977705061435699,0.2878771126270294,0.0,0.0,-0.3022608297914591,-0.9991986847271184
-0.0662378296256065,1.359904170036316,-0.3425517082214355,0.2349118739366531,0.2144587635993957,0.3337648510932922,0.0,0.0,-0.5809570324582565,0.6906250085859504
-0.0694591552019119,1.3651787042617798,-0.3373615145683288,0.2321400791406631,0.2298604846000671,0.3080342710018158,0.0,0.0,0.673588573962927,-0.6525518052843877
-0.0729855522513389,1.3715882301330566,-0.3691818416118622,0.2822001576423645,0.2466674894094467,0.3361397683620453,0.0,0.0,-0.7524517006468241,0.8176665884175058
-0.0764635056257247,1.3779373168945312,-0.362773597240448,0.2795911431312561,0.2619374394416809,0.3053992390632629,0.0,0.0,0.1827662485661161,0.7840423027496751
-0.0801283866167068,1.3850034475326538,-0.3799672722816467,0.3115830719470978,0.2757341265678406,0.2759344577789306,0.0,0.0,-0.986476182937622,0.9881541728973388
-0.0837189704179763,1.3920183181762695,-0.370320975780487,0.3096035420894623,0.287309318780899,0.2315038442611694,0.0,0.0,-0.9994879364967346,0.8352867364883423
-0.0872504264116287,1.3989688158035278,-0.3626565337181091,0.3070037961006164,0.2971127033233642,0.1960678994655609,0.0,0.0,-0.9794319868087769,0.9681426286697388
-0.0907121673226356,1.4058678150177002,-0.3536282777786255,0.3050828576087951,0.3048120737075805,0.1539875417947769,0.0,0.0,-0.999010980129242,0.3657691478729248
-0.0941892638802528,1.4126781225204468,-0.355323314666748,0.3010621666908264,0.312697172164917,0.1577019542455673,0.0,0.0,-0.9703437685966492,0.3627318143844604
-0.0976815223693847,1.4193998575210571,-0.3569860756397247,0.2970412671566009,0.3207660317420959,0.161377340555191,0.0,0.0,-0.9900387525558472,0.8262202739715576
-0.1011195182800293,1.4260621070861816,-0.3499402105808258,0.2947296500205993,0.3271644413471222,0.1279676705598831,0.0,0.0,-0.999617338180542,0.8658638000488281
-0.1045213714241981,1.4326709508895874,-0.3451051115989685,0.2926012873649597,0.332293152809143,0.1025744900107383,0.0,0.0,-0.9991896748542786,0.5166221857070923
-0.1079083457589149,1.439210295677185,-0.3429771363735199,0.2896454036235809,0.3367701470851898,0.0895398929715156,0.0,0.0,-0.9991949796676636,0.6168901920318604
-0.1112643256783485,1.445681929588318,-0.3388742804527282,0.2868560254573822,0.3402056396007538,0.0687101408839225,0.0,0.0,-0.9769205451011658,-0.204268991947174
-0.1146334633231163,1.4520642757415771,-0.3403526246547699,0.2828390896320343,0.3438126742839813,0.0721405446529388,0.0,0.0,-0.9996140599250792,0.4945790767669678
-0.1180152893066406,1.4583570957183838,-0.3417889475822449,0.2788220047950744,0.3475882112979889,0.075510449707508,0.0,0.0,-0.9998111724853516,0.4165122509002685
-0.1214096099138259,1.4645607471466064,-0.343181848526001,0.2748048901557922,0.3515290021896362,0.0788159221410751,0.0,0.0,-0.9970805644989014,0.6351368427276611
-0.1247701644897461,1.4707064628601074,-0.3387063145637512,0.2724891304969787,0.3543151617050171,0.0557231791317462,0.0,0.0,-0.9968345761299132,0.2999379634857178
-0.1281422674655914,1.4767626523971558,-0.3400087654590606,0.268472671508789,0.3572594821453094,0.0588863268494606,0.0,0.0,-0.997412383556366,0.4705860614776611
-0.1315255165100097,1.482729434967041,-0.3412639498710632,0.2644562125205993,0.3603580594062805,0.0619713142514228,0.0,0.0,-0.971263349056244,0.1883213520050048
-0.1349194496870041,1.4886068105697632,-0.3424707949161529,0.260439783334732,0.363606721162796,0.0649731159210205,0.0,0.0,-0.9992865920066832,-0.0940181612968444
-0.1383235901594162,1.4943947792053225,-0.3436283469200134,0.2564233839511871,0.3670010268688202,0.0678867101669311,0.0,0.0,-0.999409019947052,0.3411486148834228
-0.141737550497055,1.5000932216644287,-0.3447355628013611,0.2524069845676422,0.3705363571643829,0.070706695318222,0.0,0.0,-0.999204397201538,0.2147665023803711
-0.1451608687639236,1.505702257156372,-0.345791757106781,0.248390644788742,0.3742077350616455,0.0734276324510574,0.0,0.0,-0.9977291226387024,0.3305051326751709
-0.1485929489135742,1.5112218856811523,-0.3467961251735687,0.2443743199110031,0.37800994515419,0.0760439187288284,0.0,0.0,-0.9999297857284546,-0.0012354254722595
-0.1520335227251052,1.5166521072387695,-0.3477481007575989,0.2403580546379089,0.3819374442100525,0.0785497277975082,0.0,0.0,-0.992894411087036,-0.0652958750724792
-0.1554819047451019,1.521992802619934,-0.3486471474170685,0.2363418638706207,0.3859843909740448,0.0809391066431999,0.0,0.0,-0.9294690489768982,-0.5046277642250061
-0.1589733064174652,1.5272233486175537,-0.3539760708808899,0.2311471402645111,0.3911440968513489,0.1031936630606651,0.0,0.0,-0.962882936000824,0.5692498683929443
-0.1624286621809005,1.532386302947998,-0.3493627905845642,0.2284138798713684,0.3952252864837646,0.0816236063838005,0.0,0.0,-0.9976623058319092,0.6676644086837769
-0.165852352976799,1.5374841690063477,-0.3452451825141907,0.2257669419050216,0.3983100056648254,0.0616944655776023,0.0,0.0,-0.9967184662818908,-0.4531147480010986
-0.1692819595336914,1.5424925088882446,-0.345930278301239,0.2217519283294677,0.4014878571033478,0.0635578706860542,0.0,0.0,-0.9835641980171204,0.0944377183914184
-0.1727171838283538,1.5474109649658203,-0.3465616703033447,0.2177370935678482,0.4047515988349914,0.0652746856212616,0.0,0.0,-0.9970114827156068,-0.3811094760894775
-0.1761574745178222,1.5522398948669434,-0.3471395373344421,0.2137224227190017,0.408093512058258,0.0668388754129409,0.0,0.0,-0.9745919704437256,-0.0262137055397033
-0.1796024292707443,1.5569789409637451,-0.3476642072200775,0.209707960486412,0.4115057587623596,0.0682447701692581,0.0,0.0,-0.9895883798599244,0.0249158143997192
-0.183051586151123,1.561628341674805,-0.3481360971927643,0.2056937217712402,0.4149800837039947,0.0694867521524429,0.0,0.0,-0.9694178104400636,0.3962738513946533
-0.186504453420639,1.5661877393722534,-0.3485557436943054,0.2016797214746475,0.4185080528259277,0.0705595985054969,0.0,0.0,-0.9896297454833984,0.4902470111846924
-0.1899606734514236,1.5706572532653809,-0.3489238023757934,0.1976659893989563,0.4220809638500213,0.0714583769440651,0.0,0.0,-0.990279495716095,0.5159661769866943
-0.1933782547712326,1.575064778327942,-0.3439911007881164,0.1952242851257324,0.4244875311851501,0.048131313174963,0.0,0.0,-0.9923851490020752,0.2576860189437866
-0.1967984139919281,1.5793824195861816,-0.3442589044570923,0.1912116706371307,0.4269209802150726,0.0486690066754817,0.0,0.0,-0.8794138431549072,0.0274215936660766
-0.2002205848693847,1.5836098194122314,-0.3444778323173523,0.1871993541717529,0.4293720126152038,0.0490206517279148,0.0,0.0,-0.9905575513839722,0.5460281372070312
-0.2036060392856598,1.5877676010131836,-0.3398222327232361,0.1843944638967514,0.4307626187801361,0.0278123915195465,0.0,0.0,-0.9593320488929749,0.5929899215698242
-0.20695261657238,1.5918684005737305,-0.3348132073879242,0.1822181493043899,0.4309279322624206,0.0033064398448914,0.0,0.0,-0.9842789769172668,-0.0298231244087219
-0.2103001177310943,1.5958791971206665,-0.3348929286003113,0.1782072931528091,0.4310821890830993,0.0030853827483952,0.0,0.0,-0.996976912021637,0.4177154302597046
-0.2136481702327728,1.5997995138168335,-0.3349288702011108,0.1741967648267746,0.4312157332897186,0.0026706934440881,0.0,0.0,-0.9308853149414062,0.1290321350097656
-0.216996431350708,1.6036293506622314,-0.3349225521087646,0.1701865792274475,0.43131884932518,0.0020621251314878,0.0,0.0,-0.9792820811271667,0.3877367973327636
-0.2203446328639984,1.6073685884475708,-0.3348755836486816,0.166176751255989,0.43138188123703,0.0012606751406565,0.0,0.0,-0.8367304801940918,0.6889215707778931
-0.223651647567749,1.6110455989837646,-0.3296134769916534,0.1637528538703918,0.4302031397819519,-0.0235747434198856,0.0,0.0,-0.940390169620514,-0.1694220900535583
-0.2269579470157623,1.6146318912506104,-0.3294903635978699,0.1597435623407364,0.4289652705192566,-0.0247573349624872,0.0,0.0,-0.9962276220321656,0.301342248916626
-0.230263277888298,1.6181278228759766,-0.3293319344520569,0.155734583735466,0.4276589453220367,-0.0261265337467193,0.0,0.0,-0.9548373818397522,0.2419404983520507
-0.233567476272583,1.6215327978134155,-0.3291401863098144,0.1517259180545807,0.4262750148773193,-0.0276788268238306,0.0,0.0,-0.9873239398002625,0.4683074951171875
-0.2368702441453933,1.624847173690796,-0.3289171457290649,0.1477175205945968,0.4248045086860657,-0.0294100549072027,0.0,0.0,-0.944394052028656,0.4234155416488647
-0.24017134308815,1.6280709505081177,-0.3286648690700531,0.1437094062566757,0.4232387244701385,-0.031315479427576,0.0,0.0,-0.9179482460021972,0.508375883102417
-0.2434253692626953,1.6312342882156372,-0.3226482570171356,0.141417846083641,0.4202553331851959,-0.0596679225564003,0.0,0.0,-0.8878931403160095,0.7000625133514404
-0.2466142624616623,1.634343504905701,-0.3143742382526397,0.1395226269960403,0.4153774082660675,-0.0975583642721176,0.0,0.0,-0.9673307538032532,-0.7433380484580994
-0.2498564273118972,1.6373313665390017,-0.3210152685642242,0.133727490901947,0.4119288027286529,-0.0689720809459686,0.0,0.0,-0.9689874649047852,-0.3113373517990112
-0.253096342086792,1.640228271484375,-0.3206678926944732,0.1297196000814438,0.4083529412746429,-0.0715176537632942,0.0,0.0,-0.9811472296714784,0.0805839300155639
-0.2563338875770569,1.64303457736969,-0.3203026354312897,0.1257118582725525,0.4046425819396972,-0.0742074847221374,0.0,0.0,-0.9032139778137208,-0.0382974743843078
-0.2595690190792084,1.6457499265670776,-0.3199219703674316,0.1217042282223701,0.4007908403873443,-0.0770346969366073,0.0,0.0,-0.965968906879425,0.6597285270690918
-0.2627576887607574,1.6484005451202393,-0.3139684796333313,0.1191762387752533,0.3955479860305786,-0.1048571243882179,0.0,0.0,-0.939848244190216,-0.6318953633308411
-0.2659851014614105,1.6509426832199097,-0.3187375664710998,0.1140914484858512,0.3912636339664459,-0.085687056183815,0.0,0.0,-0.9695389866828918,0.2153844833374023
-0.2692100405693054,1.6533939838409424,-0.3183255791664123,0.1100839003920555,0.3868193626403808,-0.0888852626085281,0.0,0.0,-0.9868391752243042,0.2165586948394775
-0.272432416677475,1.655754327774048,-0.317908227443695,0.1060763522982597,0.3822096884250641,-0.092193454504013,0.0,0.0,-0.9403114318847656,0.1462600231170654
-0.2756522595882416,1.6580240726470947,-0.3174881935119629,0.1020687967538833,0.3774294555187225,-0.0956049114465713,0.0,0.0,-0.5833171606063843,0.1966122388839721
-0.2788696885108948,1.6602028608322144,-0.3170681297779083,0.0980611890554428,0.372473806142807,-0.0991130918264389,0.0,0.0,-0.9811258912086488,0.0746306180953979
-0.2820846438407898,1.6622908115386963,-0.3166506588459015,0.0940535217523574,0.3673381805419922,-0.1027116328477859,0.0,0.0,-0.8498556613922119,-0.4331713318824768
-0.2852973937988281,1.6642879247665403,-0.316238522529602,0.0900457650423049,0.3620184659957886,-0.1063943952322006,0.0,0.0,-0.914296805858612,-0.2143319249153137
-0.2885079383850097,1.6661944389343262,-0.3158344030380249,0.0860378891229629,0.3565106987953186,-0.1101554483175277,0.0,0.0,-0.7893155217170715,0.036798357963562
-0.2917165160179138,1.668010115623474,-0.3154410719871521,0.0820298716425895,0.350811243057251,-0.1139891520142555,0.0,0.0,-0.8953280448913574,0.2197828292846679
-0.2949233055114746,1.669735074043274,-0.3150612711906433,0.0780217126011848,0.3449167311191559,-0.1178899779915809,0.0,0.0,-0.81508868932724,0.6241016387939453
-0.2980763018131256,1.671391844749451,-0.3081443309783935,0.0753255113959312,0.3374215364456177,-0.1499044597148895,0.0,0.0,-0.944859266281128,0.1092584133148193
-0.3012279570102691,1.6729581356048584,-0.3077990114688873,0.0713154226541519,0.3297253251075744,-0.1539241373538971,0.0,0.0,-0.9047402143478394,-0.2205445170402526
-0.3043785095214844,1.6744341850280762,-0.3074754178524017,0.0673050209879875,0.3218255043029785,-0.157996267080307,0.0,0.0,-0.7126498818397522,-0.4537517428398132
-0.3075283169746399,1.6758196353912354,-0.307176411151886,0.0632942840456962,0.3137197196483612,-0.1621163785457611,0.0,0.0,-0.126228392124176,0.4294551610946655
-0.3106776177883148,1.677114963531494,-0.3069047331809997,0.0592832006514072,0.305405706167221,-0.1662804186344146,0.0,0.0,-0.6429709196090698,0.4441438913345337
-0.313826709985733,1.6783201694488523,-0.3066631257534027,0.055271741002798,0.2968815267086029,-0.1704843789339065,0.0,0.0,-0.7683848142623901,0.2156271934509277
-0.3169759809970855,1.6794350147247314,-0.3064544200897217,0.0512598864734172,0.2881453037261963,-0.1747246235609054,0.0,0.0,-0.6552858352661133,0.1825162172317505
-0.3201258778572082,1.680459976196289,-0.3062812983989715,0.0472476109862327,0.2791954576969147,-0.1789976358413696,0.0,0.0,-0.8734727501869202,0.2500110864639282
-0.3232766985893249,1.6813950538635254,-0.306146502494812,0.043234895914793,0.2700304388999939,-0.1833001673221588,0.0,0.0,-0.9212253093719482,0.3867001533508301
-0.3264289498329162,1.6822401285171509,-0.3060527145862579,0.0392217151820659,0.2606489658355713,-0.1876291781663894,0.0,0.0,-0.595650851726532,0.8703620433807373
-0.3295190334320068,1.6830205917358398,-0.2979384064674377,0.0366189144551754,0.2493520826101303,-0.2259375602006912,0.0,0.0,-0.380994439125061,0.4053943157196045
-0.3326115608215332,1.6837118864059448,-0.2979333996772766,0.0326018556952476,0.2378365695476532,-0.2303103953599929,0.0,0.0,-0.8541898131370544,-0.3368911743164062
-0.3357070088386535,1.6843137741088867,-0.2979772686958313,0.0285841710865497,0.2261015027761459,-0.2347015440464019,0.0,0.0,-0.7563176155090332,0.0998363494873046
-0.3388059139251709,1.6848268508911133,-0.2980725169181824,0.0245658457279205,0.2141460627317428,-0.2391087263822555,0.0,0.0,-0.9381247162818908,0.7419532537460327
-0.3418502807617187,1.6852774620056152,-0.290820837020874,0.0219439771026372,0.2004089951515197,-0.2747417390346527,0.0,0.0,-0.936484396457672,0.300828218460083
-0.3448992669582367,1.68563973903656,-0.2910252213478088,0.0179209653288126,0.1864503324031829,-0.279173344373703,0.0,0.0,-0.3517508506774902,0.3522553443908691
