x_pos,y_pos,x_vel,y_vel,angle,ang_vel,leg_1,leg_2,main_booster,lat_booster
-0.0015556334983557,1.4031894207000732,-0.1575369089841842,-0.3435916304588318,0.0017736445879563,0.0349874421954155,0.0,0.0,-0.0743777751922607,0.790001392364502
-0.0030762671958655,1.395042896270752,-0.1520804315805435,-0.3620661199092865,0.0017864264082163,0.0002563294256106,0.0,0.0,0.0049611330032348,0.8691052198410034
-0.0044652940705418,1.3868235349655151,-0.1371638774871826,-0.3653067350387573,7.125649426598102e-05,-0.0343068689107894,0.0,0.0,-0.5110377669334412,0.5374221801757812
-0.0058530806563794,1.3781670331954956,-0.1361597329378128,-0.3847323954105377,-0.002516207518056,-0.0517541989684104,0.0,0.0,-0.1010503768920898,0.6416428089141846
-0.0072124479338526,1.369077444076538,-0.1317451894283294,-0.4039959907531738,-0.0066632367670536,-0.0829484015703201,0.0,0.0,0.141733169555664,-0.0875824093818664
-0.0085074426606297,1.360114812850952,-0.1257500350475311,-0.3983571231365204,-0.0103749828413128,-0.0742419213056564,0.0,0.0,-0.5253556966781616,0.4317381381988525
-0.0098356250673532,1.350717306137085,-0.129049926996231,-0.4177036881446838,-0.0141058936715126,-0.0746248215436935,0.0,0.0,0.3189325332641601,0.4625834226608276
-0.0110705373808741,1.3416568040847778,-0.120279885828495,-0.402721107006073,-0.0172865334898233,-0.0636184960603714,0.0,0.0,-0.0358330011367797,0.2005627155303955
-0.0123389242216944,1.3321610689163208,-0.1236075535416603,-0.4220693707466125,-0.0204858109354972,-0.063991330564022,0.0,0.0,0.1201272010803222,0.833309531211853
-0.0135657312348485,1.322972297668457,-0.1177569255232811,-0.4084635972976684,-0.0253539625555276,-0.0973719581961631,0.0,0.0,-0.677825927734375,0.2475217580795288
-0.0148261068388819,1.3133485317230225,-0.1210984960198402,-0.4278124868869781,-0.0302389524877071,-0.0977086871862411,0.0,0.0,-0.6572788953781128,0.3878504037857055
-0.0161200519651174,1.3032901287078855,-0.1244473308324813,-0.4471534490585327,-0.0351417027413845,-0.0980639681220054,0.0,0.0,-0.3979283571243286,0.517636775970459
-0.0173981674015522,1.2927968502044678,-0.1215733289718627,-0.4665248990058899,-0.0413096398115158,-0.1233699768781662,0.0,0.0,0.499976634979248,0.1700671911239624
-0.0186339374631643,1.282348394393921,-0.1176295131444931,-0.4645561873912811,-0.0471980310976505,-0.1177786737680435,0.0,0.0,-0.2881860733032226,-0.1498907208442688
-0.0199034698307514,1.2714649438858032,-0.1209878921508789,-0.4839044213294983,-0.0531036145985126,-0.1181225180625915,0.0,0.0,0.6383419036865234,0.3596223592758178
-0.0210824962705373,1.2605798244476318,-0.1124408841133117,-0.4839891791343689,-0.0585142821073532,-0.1082230806350708,0.0,0.0,-0.1075880527496337,-0.5895963907241821
-0.0223308559507131,1.249269723892212,-0.1202706918120384,-0.5028566718101501,-0.0630369558930397,-0.0904616191983223,0.0,0.0,0.612065315246582,0.1829739809036255
-0.0234511382877826,1.2380589246749878,-0.1081122532486915,-0.4984297156333923,-0.0669245719909668,-0.077759176492691,0.0,0.0,0.2627401351928711,-0.1092188358306884
-0.0244900695979595,1.2273236513137815,-0.1003095656633377,-0.4772814810276031,-0.0704814121127128,-0.0711431056261062,0.0,0.0,-0.7531941533088684,-0.2510847449302673
-0.0255626682192087,1.2161535024642944,-0.1036645174026489,-0.4966293275356293,-0.0740544125437736,-0.0714662224054336,0.0,0.0,-0.450214147567749,-0.6621540784835815
-0.026710033416748,1.2045576572418213,-0.1121488958597183,-0.5154991745948792,-0.0766037106513977,-0.0509906001389026,0.0,0.0,-0.0906736254692077,-0.6845456957817078
-0.0279438979923725,1.1925288438796997,-0.1221490874886512,-0.534673810005188,-0.0778348073363304,-0.0246243141591548,0.0,0.0,0.3365144729614258,-0.0824102163314819
-0.0290723796933889,1.1807115077972412,-0.1120832785964012,-0.5252595543861389,-0.0785939395427703,-0.0151843000203371,0.0,0.0,-0.6041899919509888,-0.3021652698516845
-0.0302343368530273,1.1684588193893433,-0.1154118925333023,-0.544606626033783,-0.0793691501021385,-0.0155057283118367,0.0,0.0,-0.6642780900001526,0.0395131111145019
-0.0314295776188373,1.155771017074585,-0.1187269836664199,-0.5639474391937256,-0.0801599323749542,-0.0158170685172081,0.0,0.0,-0.4391963481903076,-0.4763424396514892
-0.0326592437922954,1.1426266431808472,-0.1221427321434021,-0.5842400193214417,-0.0809663832187652,-0.0161290559917688,0.0,0.0,-0.9326195120811462,0.03633713722229
-0.0339218154549598,1.1290470361709597,-0.1254311501979828,-0.603579580783844,-0.0817887037992477,-0.0164464693516492,0.0,0.0,-0.5531713366508484,-0.8100284934043884
-0.0352945327758789,1.1150503158569336,-0.1384131759405136,-0.6220134496688843,-0.080660842359066,0.0225570704787969,0.0,0.0,0.2741792201995849,0.2875185012817383
-0.0367521271109581,1.101523995399475,-0.1464127451181411,-0.6011412739753723,-0.0800146982073783,0.0129228327423334,0.0,0.0,-0.3573440313339233,0.3454196453094482
-0.0382422432303428,1.0875623226165771,-0.1496461778879165,-0.6204808354377747,-0.079384796321392,0.0125976856797933,0.0,0.0,-0.5329475402832031,0.4140833616256714
-0.0397645942866802,1.0731656551361084,-0.1528581529855728,-0.639820396900177,-0.0787713453173637,0.0122695369645953,0.0,0.0,-0.6398521661758423,0.3636643886566162
-0.0413190834224224,1.0583338737487793,-0.1560470461845398,-0.6591599583625793,-0.0781744047999382,0.0119385113939642,0.0,0.0,-0.7533091902732849,-0.237460970878601
-0.0429053306579589,1.0430668592453003,-0.1592112481594085,-0.6784995198249817,-0.0775941833853721,0.0116041423752903,0.0,0.0,-0.6966243982315063,-0.7664855718612671
-0.044590376317501,1.0273656845092771,-0.1707761436700821,-0.6977127194404602,-0.0753446370363235,0.044990949332714,0.0,0.0,-0.7354125380516052,0.5197716951370239
-0.0462644584476947,1.0112258195877075,-0.1685947924852371,-0.7172707319259644,-0.0741749629378318,0.0233935303986072,0.0,0.0,-0.1578379869461059,-0.1547335386276245
-0.0479695312678813,0.9946507811546326,-0.171674832701683,-0.7366104125976562,-0.0730224996805191,0.0230492614209651,0.0,0.0,0.0120990276336669,-0.5210141539573669
-0.0497440323233604,0.9780617356300354,-0.1796131879091262,-0.7371861934661865,-0.0708798021078109,0.0428538061678409,0.0,0.0,-0.00917649269104,0.1041988134384155
-0.0515488609671592,0.961037814617157,-0.1826285421848297,-0.7565260529518127,-0.0687546953558921,0.0425022169947624,0.0,0.0,-0.6478248834609985,-0.5291356444358826
-0.0534277930855751,0.9435891509056092,-0.1911661773920059,-0.775348961353302,-0.0655235797166824,0.0646221786737442,0.0,0.0,0.0760533809661865,0.3659478425979614
-0.0552921295166015,0.9262962341308594,-0.1897654980421066,-0.7684284448623657,-0.0622253268957138,0.0659654438495636,0.0,0.0,0.6725238561630249,0.4881610870361328
-0.0572444908320903,0.9097585082054138,-0.1980490386486053,-0.7348948121070862,-0.0594452880322933,0.0556008592247962,0.0,0.0,0.009436011314392,-0.0119891762733459
-0.0591314323246479,0.8932580351829529,-0.1918372213840484,-0.7332338690757751,-0.0563347823917865,0.0622098967432975,0.0,0.0,-0.92770916223526,-0.0198209881782531
-0.0610467903316021,0.8763224482536316,-0.1946592628955841,-0.7525741457939148,-0.0532428734004497,0.0618381202220916,0.0,0.0,-0.924918293952942,0.6998751163482666
-0.0629257187247276,0.8589453101158142,-0.1893581300973892,-0.7722652554512024,-0.0517924688756465,0.0290078315883874,0.0,0.0,-0.181366741657257,0.2808398008346557
-0.0648322105407714,0.8411330580711365,-0.1920899003744125,-0.7916049361228943,-0.0503610968589782,0.0286273416131734,0.0,0.0,-0.2552405595779419,0.6856427192687988
-0.0667076110839843,0.8228744268417358,-0.1874786913394928,-0.8115008473396301,-0.0504186861217021,-0.0011519428808242,0.0,0.0,0.8913004398345947,0.3213105201721191
-0.0685139670968055,0.8049415349960327,-0.1808851510286331,-0.7970019578933716,-0.0501727536320686,0.0049187447875738,0.0,0.0,0.3492130041122436,0.6505181789398193
-0.0703617110848426,0.787604570388794,-0.183517575263977,-0.7705782055854797,-0.0514227971434593,-0.0250009056180715,0.0,0.0,0.1796197891235351,0.6377720832824707
-0.0722611397504806,0.7706853747367859,-0.1872190684080124,-0.7520619034767151,-0.0541195571422576,-0.053934771567583,0.0,0.0,-0.5000787973403931,-0.367725133895874
-0.0741855651140213,0.7533311247825623,-0.1896933317184448,-0.7714020609855652,-0.0568364523351192,-0.0543382689356803,0.0,0.0,-0.3009300827980041,0.1016550064086914
-0.0761343985795974,0.735541820526123,-0.1921107620000839,-0.7907421588897705,-0.0595737732946872,-0.0547463111579418,0.0,0.0,-0.6610408425331116,0.774116039276123
-0.0780514702200889,0.7173178195953369,-0.1875095963478088,-0.8101291656494141,-0.0637241378426551,-0.0830073729157447,0.0,0.0,0.8065719604492188,0.4883534908294678
-0.0798414200544357,0.6993752121925354,-0.1753404438495636,-0.7976110577583313,-0.0673423781991005,-0.0723649859428405,0.0,0.0,0.8758056163787842,0.6636917591094971
-0.0815364867448806,0.6823535561561584,-0.1644972860813141,-0.7567510008811951,-0.0722918286919593,-0.0989893525838851,0.0,0.0,0.681403636932373,-0.152665913105011
-0.0830662697553634,0.6656230092048645,-0.1486697494983673,-0.7437945008277893,-0.0765611007809639,-0.0853853374719619,0.0,0.0,-0.070100724697113,-0.6851460337638855
-0.0846801772713661,0.6484615802764893,-0.1586544811725616,-0.7628688812255859,-0.0792716369032859,-0.0542108416557312,0.0,0.0,0.4940780401229858,0.4268943071365356
-0.0861729606986045,0.6319329142570496,-0.1469098627567291,-0.7347383499145508,-0.0816105082631111,-0.0467776730656623,0.0,0.0,-0.2867233157157898,0.5878139734268188
-0.0876285582780838,0.6149646043777466,-0.1417226940393448,-0.7543625235557556,-0.085409790277481,-0.0759856849908828,0.0,0.0,0.8187131881713867,-0.1135081648826599
-0.0889441519975662,0.5989053249359131,-0.1280852407217025,-0.713946521282196,-0.088850550353527,-0.0688151866197586,0.0,0.0,-0.048478364944458,-0.2668846249580383
-0.0902783423662185,0.5824111700057983,-0.1299246847629547,-0.7332870960235596,-0.0923133268952369,-0.0692555382847786,0.0,0.0,0.9623194932937622,-0.1447435617446899
-0.091529369354248,0.566130518913269,-0.1218672841787338,-0.7237863540649414,-0.0955169424414634,-0.0640722438693046,0.0,0.0,0.6352739334106445,-0.0522854924201965
-0.0928301811218261,0.5504657626152039,-0.1263593584299087,-0.6964517831802368,-0.0992018282413482,-0.0736979469656944,0.0,0.0,0.6182582378387451,0.2573246955871582
-0.0939767807722091,0.5351042151451111,-0.1114938035607338,-0.6829487085342407,-0.1023492664098739,-0.0629487782716751,0.0,0.0,0.534914493560791,-0.3945968747138977
-0.095059297978878,0.5201540589332581,-0.1051534861326217,-0.6646661758422852,-0.1054175645112991,-0.0613659024238586,0.0,0.0,0.3310812711715698,-0.6233905553817749
-0.0961652770638465,0.5052527189254761,-0.1087485402822494,-0.6624131798744202,-0.1072534471750259,-0.0367174223065376,0.0,0.0,-0.1070097684860229,-0.4905049800872803
-0.0972855538129806,0.4899163544178009,-0.110159732401371,-0.6817530989646912,-0.1091112419962883,-0.0371559001505374,0.0,0.0,0.8871538639068604,0.4194382429122925
-0.0982885360717773,0.4755984544754028,-0.098527118563652,-0.6364807486534119,-0.1108773946762085,-0.0353228114545345,0.0,0.0,-0.0186129808425903,-0.6813288927078247
-0.0993513092398643,0.4608451426029205,-0.1056611388921737,-0.6557491421699524,-0.1114943400025367,-0.0123388981446623,0.0,0.0,0.8471637964248657,-0.1488860845565796
-0.1002901047468185,0.4470744132995605,-0.09337068349123,-0.6120674014091492,-0.1119926869869232,-0.0099671026691794,0.0,0.0,0.4904017448425293,0.5492467880249023
-0.1012406349182128,0.4335108697414398,-0.0932061970233917,-0.602963387966156,-0.1138301491737365,-0.0367490202188491,0.0,0.0,0.475811243057251,0.4511480331420898
-0.1022147163748741,0.4204276800155639,-0.0951545536518096,-0.5816487073898315,-0.1160673946142196,-0.0447451770305633,0.0,0.0,-0.3803722858428955,0.4754221439361572
-0.1031988114118576,0.4069094359874725,-0.0961373299360275,-0.6009887456893921,-0.1183244660496711,-0.04514155164361,0.0,0.0,0.7053138017654419,0.3296692371368408
-0.1042213439941406,0.3942781686782837,-0.0993427261710167,-0.5616234540939331,-0.1212158799171447,-0.057828165590763,0.0,0.0,0.0374097824096679,-0.6435441374778748
-0.105207160115242,0.381751537322998,-0.0970066413283348,-0.5568697452545166,-0.1227844953536987,-0.0313725247979164,0.0,0.0,-0.3738458156585693,0.8067721128463745
-0.1061417609453201,0.3687725067138672,-0.0903300195932388,-0.5771051645278931,-0.125894084572792,-0.0621921941637992,0.0,0.0,0.2337973117828369,0.4402468204498291
-0.1070027351379394,0.3557102084159851,-0.0831921324133873,-0.5807951092720032,-0.1287855952978134,-0.0578302331268787,0.0,0.0,-0.0770145058631897,-0.6748515367507935
-0.1079266518354415,0.3422169685363769,-0.0908930450677871,-0.5998281240463257,-0.1302775144577026,-0.0298384875059127,0.0,0.0,0.6516251564025879,0.215095043182373
-0.1087618842720985,0.3294696807861328,-0.0819660276174545,-0.566683828830719,-0.1318229138851165,-0.0309079084545373,0.0,0.0,-0.1152833700180053,0.2871303558349609
-0.1096024513244628,0.3162872493267059,-0.0824912562966346,-0.5860236287117004,-0.1333818733692169,-0.031179154291749,0.0,0.0,0.6765822172164917,-0.5015187859535217
-0.1104964241385459,0.303939938545227,-0.088493563234806,-0.5488514304161072,-0.1342889219522476,-0.0181410182267427,0.0,0.0,-0.7783880829811096,0.601813793182373
-0.1113582625985145,0.291143923997879,-0.0843072012066841,-0.56888347864151,-0.1361539512872696,-0.0373009331524372,0.0,0.0,-0.0444182753562927,-0.453504204750061
-0.1122236251831054,0.2779127657413482,-0.0846607461571693,-0.5882232189178467,-0.1380284875631332,-0.0374906435608863,0.0,0.0,0.9019279479980468,-0.768925130367279
-0.1131868362426757,0.2652694880962372,-0.0956920161843299,-0.5619798302650452,-0.1386554390192031,-0.0125386174768209,0.0,0.0,0.8991348743438721,0.1433892250061035
-0.1141072288155555,0.2533617615699768,-0.0911184102296829,-0.5293210744857788,-0.1395802646875381,-0.0184964016079902,0.0,0.0,-0.1724103093147277,0.2980371713638305
-0.1150297150015831,0.2410188019275665,-0.0913187861442565,-0.5486606955528259,-0.1405097991228103,-0.0185906179249286,0.0,0.0,0.898013710975647,0.9440650939941406
-0.1156764030456543,0.229194700717926,-0.062026672065258,-0.5257663726806641,-0.1431391984224319,-0.0525883734226226,0.0,0.0,0.4035909175872803,-0.7122835516929626
-0.1163168922066688,0.2173675894737243,-0.0628791600465774,-0.5257627367973328,-0.1443123817443847,-0.0234637074172496,0.0,0.0,0.9331097602844238,0.4900970458984375
-0.116782858967781,0.2057812362909317,-0.0459319092333316,-0.5150126814842224,-0.1449829488992691,-0.0134113784879446,0.0,0.0,0.9093936681747437,0.692457914352417
-0.116918183863163,0.194687619805336,-0.0119208358228206,-0.493209570646286,-0.1465876400470733,-0.0320938825607299,0.0,0.0,0.8902419805526733,-0.2227129340171814
-0.1168296784162521,0.1837934851646423,0.0097189228981733,-0.4842701554298401,-0.1474504470825195,-0.0172561816871166,0.0,0.0,0.9290807247161864,-0.2041241526603698
-0.1166182532906532,0.1737671643495559,0.0220282040536403,-0.4457027614116668,-0.1483380198478698,-0.0177515111863613,0.0,0.0,0.2821985483169555,-0.8838569521903992
-0.1163600906729698,0.1641950458288192,0.0249001905322074,-0.425337016582489,-0.1474264562129974,0.0182312782853841,0.0,0.0,0.7618498802185059,-0.9084309339523317
-0.1159209236502647,0.1552299559116363,0.040932822972536,-0.3981556296348572,-0.1444483250379562,0.0595622174441814,0.0,0.0,0.5657496452331543,-0.7878472805023193
-0.1153933554887771,0.146271526813507,0.0480083897709846,-0.397699773311615,-0.1397098302841186,0.09476999938488,0.0,0.0,0.4933450222015381,-0.2565960884094238
-0.1148469895124435,0.1375717967748642,0.0500913336873054,-0.3862335085868835,-0.1351782828569412,0.090631291270256,0.0,0.0,0.6510310173034668,-0.7641186714172363
-0.1141492873430252,0.1297212988138198,0.0634978264570236,-0.3483548164367676,-0.1289245188236236,0.1250748932361602,0.0,0.0,-0.0553657412528991,-0.5479079484939575
-0.1134939193725586,0.1214447095990181,0.0580862760543823,-0.3672214150428772,-0.1215183064341545,0.1481243818998336,0.0,0.0,0.3968930244445801,-0.3181514143943786
-0.1128591522574424,0.113754354417324,0.0564981997013092,-0.341245174407959,-0.1145813912153244,0.1387381106615066,0.0,0.0,0.0658067464828491,-0.5462548732757568
-0.1121511459350586,0.1062998175621032,0.0625993311405181,-0.3307053744792938,-0.1064323931932449,0.1629801094532013,0.0,0.0,0.2952854633331299,-0.4836559295654297
-0.111419677734375,0.0992949604988098,0.0651076436042785,-0.3107743859291076,-0.098457396030426,0.1594997346401214,0.0,0.0,-0.0519906282424926,0.2442048788070678
-0.1106854453682899,0.0918558686971664,0.0653518587350845,-0.3301189541816711,-0.0904609784483909,0.1599285751581192,0.0,0.0,0.7420293092727661,0.7379146814346313
-0.1098716706037521,0.0847601741552352,0.0748391896486282,-0.3149835169315338,-0.0839738473296165,0.1297423094511032,0.0,0.0,0.0699665546417236,0.1415669918060302
-0.1090976744890213,0.0778214782476425,0.0711851418018341,-0.308049589395523,-0.0778124183416366,0.1232284530997276,0.0,0.0,0.2538967132568359,0.4244885444641113
-0.1084036827087402,0.0710558742284774,0.0636786520481109,-0.3004078865051269,-0.0721544027328491,0.1131600588560104,0.0,0.0,0.7234189510345459,0.9082738161087036
-0.1074581146240234,0.0649611800909042,0.0904468223452568,-0.2706829905509949,-0.0680847615003585,0.0813927799463272,0.0,0.0,-0.066631019115448,-0.4532327651977539
-0.1065097823739051,0.0584314689040184,0.0906960293650627,-0.2900236546993255,-0.0639882162213325,0.0819308012723922,0.0,0.0,0.718883752822876,0.6938948631286621
-0.1052890792489051,0.0526393987238407,0.1189270615577697,-0.2572949528694153,-0.0608786530792713,0.0621911585330963,0.0,0.0,-0.0295392274856567,-0.2377121448516845
-0.1040657013654708,0.0464122407138347,0.1191605553030967,-0.2766350507736206,-0.0577404201030731,0.0627645850181579,0.0,0.0,0.7830483913421631,-0.4776614904403686
-0.1026329025626182,0.0411179177463054,0.1393609941005706,-0.2351616024971008,-0.0538603663444519,0.0776009336113929,0.0,0.0,0.609825611114502,-0.2898045778274536
-0.1010929122567176,0.0362284295260906,0.1496866941452026,-0.2171599268913269,-0.0496062338352203,0.085082821547985,0.0,0.0,0.4992687702178955,-0.7194082736968994
-0.0995778068900108,0.0320261567831039,0.1457359194755554,-0.1865869611501693,-0.0439015328884124,0.1140941604971885,0.0,0.0,0.2624372243881225,-0.8903244137763977
-0.0980509743094444,0.0283001754432916,0.1450472921133041,-0.1653963029384613,-0.0363566763699054,0.1508970558643341,0.0,0.0,-0.0401892066001892,-0.8485217690467834
-0.0965806022286415,0.0241388902068138,0.1378963589668274,-0.1847515553236007,-0.027318051084876,0.1807724386453628,0.0,0.0,0.6098681688308716,0.5441724061965942
-0.0951766967773437,0.0204511024057865,0.1326235830783844,-0.1637769639492035,-0.0196603015065193,0.1531550735235214,0.0,0.0,0.284631609916687,-0.1897468566894531
-0.0938633903861045,0.0169322583824396,0.1240044236183166,-0.1563179492950439,-0.0124307097867131,0.1445917636156082,0.0,0.0,0.2464362382888794,0.0225110054016113
-0.0925600081682205,0.0136170480400323,0.1230630651116371,-0.1472980231046676,-0.0052421502768993,0.1437713801860809,0.0,0.0,0.016828179359436,-0.2952718734741211
-0.0912380218505859,0.010359845124185,0.1248073950409889,-0.1447595804929733,0.0020550310146063,0.1459435671567917,0.0,0.0,0.2947883605957031,0.3794698715209961
-0.0898137092590332,0.0070912693627178,0.1345223933458328,-0.1453023105859756,0.009860873222351,0.1561168730258941,0.0,0.0,0.3208975791931152,0.8128867149353027
-0.0882418602705001,0.0042140102013945,0.1507712304592132,-0.1279315799474716,0.0161846112459898,0.1264748722314834,0.0,0.0,0.0761020183563232,-0.8673948049545288
-0.0867282897233963,0.0016975259641185,0.1431649178266525,-0.1119548827409744,0.0242727417498826,0.1617627292871475,0.0,0.0,0.0607316493988037,-0.8866061568260193
