x_pos,y_pos,x_vel,y_vel,angle,ang_vel,leg_1,leg_2,main_booster,lat_booster
-0.0015211105346679,1.40315580368042,-0.1544161140918731,-0.3450834453105926,0.0020647766068577,0.0407523773610591,0.0,0.0,-0.1893011331558227,0.468714952468872
-0.0030399323441088,1.3949459791183472,-0.1542034447193145,,0.0043606595136225,0.0459228046238422,0.0,0.0,-0.3301196098327636,0.9643161296844482
-0.0044638635590672,1.3862605094909668,-0.142627865076065,-0.3860237300395965,0.0045983870513737,0.0047549558803439,0.0,0.0,0.0907511711120605,0.7671183347702026
-0.0059171677567064,1.3775981664657593,-0.1442207098007202,-0.3849853575229645,0.0035015062894672,-0.0219397023320198,0.0,0.0,-0.011193573474884,0.6511068344116211
-0.0073060989379882,1.3684695959091189,-0.1364517211914062,-0.4057141244411468,0.0010891401907429,-0.0482522770762443,0.0,0.0,-0.2606961727142334,0.8339478969573975
-0.0086123468354344,1.358871340751648,-0.1263727992773056,-0.4265916049480438,-0.0031137007754296,-0.0840648785233497,0.0,0.0,0.7132164239883423,0.6947035789489746
-0.0098854061216115,1.3497028350830078,-0.1218290105462074,-0.4075130820274353,-0.0085301324725151,-0.1083387285470962,0.0,0.0,0.2451554536819458,0.1361464262008667
-0.0110396388918161,1.340795636177063,-0.1107056885957717,-0.3959105908870697,-0.0132023682817816,-0.0934532657265663,0.0,0.0,-0.5178836584091187,-0.0411685109138488
-0.012192154303193,1.331419825553894,-0.1107206344604492,-0.4167474508285522,-0.0176830906420946,-0.0896225720643997,0.0,0.0,0.003261923789978,-0.199834942817688
-0.0133357048034667,1.3222370147705078,-0.1099995374679565,-0.40817591547966,-0.0219893380999565,-0.0861327946186065,0.0,0.0,-0.6875541806221008,0.1713471412658691
-0.0144777297973632,1.3125858306884766,-0.1100130900740623,-0.4290157556533813,-0.026135304942727,-0.082926720380783,0.0,0.0,0.3212546110153198,0.0911594629287719
-0.0155508993193507,1.3030972480773926,-0.10353684425354,-0.4217872321605682,-0.0298702791333198,-0.0747063532471656,0.0,0.0,-0.1016579866409301,0.1244239807128906
-0.0166228301823139,1.293139934539795,-0.1035492271184921,-0.4426264464855194,-0.0334797762334346,-0.0721968114376068,0.0,0.0,-0.8029171824455261,-0.2017824053764343
-0.0176938064396381,1.2827138900756836,-0.1035596877336502,-0.4634588658809662,-0.0369816906750202,-0.0700443536043167,0.0,0.0,-0.6813919544219971,-0.6082749366760254
-0.0188006404787302,1.2718275785446167,-0.1081615909934043,-0.4838999509811401,-0.039469376206398,-0.0497582405805587,0.0,0.0,0.2145732641220092,-0.7947146892547607
-0.0198691375553607,1.260789155960083,-0.1060946583747863,-0.4906235933303833,-0.0402197055518627,-0.0150081785395741,0.0,0.0,-0.4922983646392822,-0.6381093859672546
-0.0209759715944528,1.2492914199829102,-0.1109583750367164,-0.510998547077179,-0.0399427451193332,0.0055395485833287,0.0,0.0,0.1766132116317749,0.208525538444519
-0.0219705589115619,1.2377190589904783,-0.1002483591437339,-0.5143126249313354,-0.0391606763005256,0.015642711892724,0.0,0.0,-0.3520045280456543,0.3076751232147217
-0.0229651443660259,1.225677728652954,-0.1002600193023681,-0.5351492166519165,-0.0383696295320987,0.0158225074410438,0.0,0.0,-0.3911275863647461,-0.1738151907920837
-0.0239599235355854,1.213167667388916,-0.1002682596445083,-0.5559821724891663,-0.0375896841287612,0.0156001048162579,0.0,0.0,-0.4911704063415527,0.0774294137954711
-0.0249550826847553,1.2001889944076538,-0.1002739518880844,-0.5768158435821533,-0.0368417277932167,0.0149608450010418,0.0,0.0,-0.2754071354866028,-0.6255925893783569
-0.0259993560612201,1.186740756034851,-0.1063642725348472,-0.5976574420928955,-0.0349277220666408,0.0382839851081371,0.0,0.0,-0.5017205476760864,0.2537996768951416
-0.0270442962646484,1.1728236675262451,-0.1063669323921203,-0.6184914708137512,-0.0330877602100372,0.0368027761578559,0.0,0.0,-0.2855077385902405,0.5223619937896729
-0.028044318780303,1.1584298610687256,-0.1005965024232864,-0.6397111415863037,-0.0325015261769294,0.0117257880046963,0.0,0.0,0.1127806901931762,0.3249530792236328
-0.0291269309818744,1.1442219018936155,-0.108291782438755,-0.6314642429351807,-0.0324727371335029,0.0005757453618571,0.0,0.0,0.5712404251098633,0.0340642929077148
-0.0303279869258403,1.1305344104766846,-0.1193535774946212,-0.6083508729934692,-0.0332197472453117,-0.0149402897804975,0.0,0.0,-0.6401081681251526,-0.5304059982299805
-0.03157215192914,1.1163835525512695,-0.1245591789484024,-0.6289198398590088,-0.0330724269151687,0.0029465393163263,0.0,0.0,-0.464974045753479,0.6372494697570801
-0.0327781662344932,1.1017687320709229,-0.1195718422532081,-0.6495669484138489,-0.0340906530618667,-0.020364562049508,0.0,0.0,0.0167896747589111,0.0890781879425048
-0.0340498909354209,1.0874042510986328,-0.1255717277526855,-0.638462483882904,-0.0356732234358787,-0.0316515937447547,0.0,0.0,-0.6567955017089844,-0.7528297901153564
-0.0353852286934852,1.0725716352462769,-0.1332816183567047,-0.6592368483543396,-0.0359176807105541,-0.0048893173225224,0.0,0.0,-0.8324798941612244,-0.4393935203552246
-0.036722470074892,1.0572702884674072,-0.1332505047321319,-0.6800689697265625,-0.0363912507891655,-0.0094713671132922,0.0,0.0,-0.5937830209732056,-0.7319211959838867
-0.0381274223327636,1.0414997339248655,-0.1414272040128708,-0.7008918523788452,-0.0354677215218544,0.0184709150344133,0.0,0.0,-0.6833380460739136,0.4685554504394531
-0.0395346656441688,1.0252605676651,-0.1413893401622772,-0.7217242121696472,-0.0348070748150348,0.0132128419354557,0.0,0.0,0.3460340499877929,0.4672893285751343
-0.0409859642386436,1.0089961290359497,-0.1452718377113342,-0.7228635549545288,-0.0346654839813709,0.0028317032847553,0.0,0.0,-0.5220143795013428,-0.1579951047897339
-0.0424397476017475,0.9922630190849304,-0.1452274024486541,-0.743695855140686,-0.034817848354578,-0.0030472294893115,0.0,0.0,-0.0265029668807983,-0.5748547315597534
-0.0439401641488075,0.975067973136902,-0.1507019102573394,-0.7642083764076233,-0.0341691486537456,0.012974003329873,0.0,0.0,0.656287670135498,-0.3734082579612732
-0.0454540252685546,0.9580899477005004,-0.1515964120626449,-0.7545715570449829,-0.0339642725884914,0.0040975818410515,0.0,0.0,-0.4345623254776001,-0.186186671257019
-0.046970747411251,0.9406434297561646,-0.151542529463768,-0.7754039168357849,-0.0340944603085517,-0.002603658940643,0.0,0.0,0.406512975692749,-0.6862764358520508
-0.0485570915043354,0.9238161444664,-0.1594672948122024,-0.7478659152984619,-0.0332718268036842,0.016452794894576,0.0,0.0,-0.3931454420089721,-0.0124056935310363
-0.0501464828848838,0.906520128250122,-0.1594074219465255,-0.7686984539031982,-0.0328080467879772,0.0092757521197199,0.0,0.0,-0.5227296352386475,-0.1546599864959716
-0.0517390258610248,0.888755738735199,-0.1593446731567382,-0.789530873298645,-0.0327139608561992,0.0018818781245499,0.0,0.0,-0.4118896722793579,-0.3211991786956787
-0.0533347129821777,0.8705227375030518,-0.1592791080474853,-0.810363233089447,-0.0329997241497039,-0.0057153040543198,0.0,0.0,0.8731082677841187,-0.2119904160499572
-0.0548117645084857,0.8523486852645874,-0.1475431621074676,-0.8077355623245239,-0.0331653654575347,-0.003312726970762,0.0,0.0,0.504196286201477,-0.0732204914093017
-0.0561859123408794,0.8344232439994812,-0.1372633278369903,-0.7966902256011963,-0.0333111435174942,-0.0029154629446566,0.0,0.0,0.5843911170959473,0.0272653102874755
-0.0575929656624794,0.8164544105529785,-0.1399612873792648,-0.7986229658126831,-0.0340437889099121,-0.0146532282233238,0.0,0.0,-0.2389262914657592,-0.0988560318946838
-0.0590033531188964,0.7980172634124756,-0.1398850977420807,-0.8194555640220642,-0.0351907275617122,-0.022938635200262,0.0,0.0,0.9626189470291138,0.0794696807861328
-0.0603261962532997,0.7799037098884583,-0.1310339272022247,-0.8050809502601624,-0.0364238917827606,-0.0246635489165782,0.0,0.0,0.5681755542755127,-0.1091406345367431
-0.0617302879691123,0.7625138163566589,-0.1382299363613128,-0.772941529750824,-0.038578737527132,-0.0430970415472984,0.0,0.0,-0.0140752792358398,-0.2931635975837707
-0.0631380081176757,0.7446554899215698,-0.1381465345621109,-0.7937747836112976,-0.0411678738892078,-0.0517830327153205,0.0,0.0,0.873626708984375,-0.529750406742096
-0.0645928382873535,0.7271957993507385,-0.14341501891613,-0.7760417461395264,-0.0432174541056156,-0.0409915149211883,0.0,0.0,0.6413590908050537,0.1196703910827636
-0.065884493291378,0.7101086378097534,-0.1273037493228912,-0.7594801187515259,-0.0450531877577304,-0.0367145165801048,0.0,0.0,0.8206155300140381,-0.0978980660438537
-0.0672065764665603,0.6937740445137024,-0.1295963525772094,-0.7260653972625732,-0.0476327054202556,-0.0515902712941169,0.0,0.0,-0.6346796751022339,0.1049531698226928
-0.0685323700308799,0.6769711375236511,-0.1295042783021927,-0.7468993067741394,-0.0506669767200946,-0.0606856755912303,0.0,0.0,0.2725410461425781,0.1788558959960937
-0.0698282271623611,0.6606200933456421,-0.1260621100664138,-0.7268331050872803,-0.0541488714516162,-0.0696380585432052,0.0,0.0,0.1052287817001342,-0.225047767162323
-0.0710106864571571,0.6442813277244568,-0.1147127971053123,-0.7262976169586182,-0.0576325096189975,-0.0696728006005287,0.0,0.0,-0.1491270065307617,-0.2194859981536865
-0.0721967667341232,0.6274744272232056,-0.1146149411797523,-0.7471323609352112,-0.0615825392305851,-0.0790006071329116,0.0,0.0,0.6544997692108154,-0.5092797875404358
-0.0732771903276443,0.6113934516906738,-0.1048837453126907,-0.7148450016975403,-0.0647103264927864,-0.062555581331253,0.0,0.0,0.2680850028991699,-0.5257124900817871
-0.0742541328072547,0.5956140756607056,-0.0953641682863235,-0.7014082670211792,-0.0670136734843254,-0.0460669919848442,0.0,0.0,0.4410849809646606,-0.2126079797744751
-0.0751216858625412,0.5804347395896912,-0.0842515006661415,-0.6747504472732544,-0.0694910958409309,-0.0495482720434665,0.0,0.0,-0.6119737029075623,-0.3075457811355591
-0.075992964208126,0.5647873282432556,-0.0841467976570129,-0.6955851912498474,-0.0724465772509574,-0.0591095089912414,0.0,0.0,0.2137867212295532,-0.5557641983032227
-0.0768512710928917,0.5490741729736328,-0.0835542827844619,-0.6984736919403076,-0.074697196483612,-0.0450122579932212,0.0,0.0,0.7878803014755249,-0.3684743642807007
-0.0777647942304611,0.5340403914451599,-0.0880935043096542,-0.6683310866355896,-0.0779324620962143,-0.0647049695253372,0.0,0.0,-0.0602388381958007,0.0899930000305175
-0.0786822289228439,0.5185386538505554,-0.0879844576120376,-0.6891664862632751,-0.0816522911190986,-0.0743966177105903,0.0,0.0,0.6223330497741699,-0.1772923469543457
-0.0795312896370887,0.5034659504890442,-0.0807647034525871,-0.6701300740242004,-0.0857515186071395,-0.0819846913218498,0.0,0.0,0.545842170715332,0.1654400825500488
-0.0803446769714355,0.4884849190711975,-0.0767446532845497,-0.6660940051078796,-0.0903050154447555,-0.0910698324441909,0.0,0.0,0.6180273294448853,-0.5867882370948792
-0.081286147236824,0.4739250242710113,-0.089912474155426,-0.6473683714866638,-0.0944991782307624,-0.0838832706212997,0.0,0.0,0.1388572454452514,-0.5384538173675537
-0.0822013840079307,0.4597881436347961,-0.0879197865724563,-0.6285388469696045,-0.0980788916349411,-0.0715943723917007,0.0,0.0,0.7561898231506348,0.0239200592041015
-0.0830032378435134,0.4456346035003662,-0.0764830857515335,-0.6292937397956848,-0.1017473116517067,-0.0733682438731193,0.0,0.0,0.4867643117904663,-0.7216158509254456
-0.0837601646780967,0.4321724772453308,-0.0730072632431984,-0.598504364490509,-0.1044194400310516,-0.0534427352249622,0.0,0.0,-0.503508448600769,-0.3737311363220215
-0.084521010518074,0.4182423651218414,-0.072890356183052,-0.619340717792511,-0.1075861081480979,-0.0633331388235092,0.0,0.0,0.880742073059082,0.3855624198913574
-0.0853066444396972,0.405010849237442,-0.0743991434574127,-0.5883738398551941,-0.1117318570613861,-0.0829149782657623,0.0,0.0,0.90100359916687,-0.4532833099365234
-0.0859811753034591,0.3923731446266174,-0.062941126525402,-0.5620198845863342,-0.1162102222442627,-0.0895674973726272,0.0,0.0,-0.4646681547164917,-0.6427690982818604
-0.0867201834917068,0.379285603761673,-0.070462666451931,-0.5819414258003235,-0.1196256428956985,-0.0683088079094886,0.0,0.0,0.8676815032958984,-0.3282088041305542
-0.0873025879263877,0.3666876554489136,-0.0546893775463104,-0.5601990222930908,-0.1231546700000763,-0.0705806463956832,0.0,0.0,0.7104921340942383,-0.8984118700027466
-0.0879487991333007,0.3542379140853882,-0.0623024776577949,-0.5535131096839905,-0.1254526823759079,-0.0459601879119873,0.0,0.0,0.3965315818786621,0.0542162656784057
-0.0885072723031044,0.3417185246944427,-0.0533068254590034,-0.556632936000824,-0.1279837638139724,-0.0506215691566467,0.0,0.0,0.2932614088058471,-0.5576642155647278
-0.0891068428754806,0.3291347324848175,-0.0579595565795898,-0.5594506859779358,-0.1299591064453125,-0.0395069159567356,0.0,0.0,0.8631863594055176,-0.427938163280487
-0.0896034240722656,0.3174154758453369,-0.0471343845129013,-0.5210786461830139,-0.1324779838323593,-0.0503777563571929,0.0,0.0,0.2258062362670898,-0.9617446064949036
-0.0900295227766037,0.306139200925827,-0.0415290556848049,-0.5012649893760681,-0.1335519552230835,-0.0214794743806123,0.0,0.0,-0.4604291915893554,-0.5453181862831116
-0.0905095115303993,0.2944107055664062,-0.047725535929203,-0.5212904214859009,-0.1338312476873397,-0.0055859936401247,0.0,0.0,0.5016570091247559,-0.4415894746780395
-0.091069795191288,0.2826855182647705,-0.0546940565109252,-0.5212393403053284,-0.1351551562547683,-0.0264780428260564,0.0,0.0,0.3674492835998535,-0.8389989733695984
-0.0915731415152549,0.2714781761169433,-0.0502354577183723,-0.4981134831905365,-0.135257750749588,-0.0020517546217888,0.0,0.0,-0.3346140384674072,-0.737136721611023
-0.0921478271484375,0.2598167359828949,-0.0585872009396553,-0.5181844830513,-0.1341405063867569,0.0223450921475887,0.0,0.0,-0.0350494384765625,0.064123511314392
-0.0927262306213378,0.2476874887943267,-0.0584648475050926,-0.5390216708183289,-0.1335240304470062,0.0123295281082391,0.0,0.0,0.8616030216217041,-0.3907462954521179
-0.0932168960571289,0.2362644225358963,-0.0491237603127956,-0.5076839923858643,-0.1334706991910934,0.0010666118469089,0.0,0.0,0.3228678703308105,-0.4865585565567016
-0.0935801491141319,0.2250522971153259,-0.0362052805721759,-0.4983310997486114,-0.1335950344800949,-0.0024866943713277,0.0,0.0,0.5276750326156616,-0.9260783195495604
-0.0939539894461631,0.2138433754444122,-0.0386324748396873,-0.4980582296848297,-0.1323454827070236,0.0249911341816186,0.0,0.0,0.5339980125427246,-0.1402711272239685
-0.0941967964172363,0.2027055621147155,-0.0254387203603982,-0.4949120283126831,-0.1311977058649063,0.0229557901620864,0.0,0.0,0.374875545501709,-0.1727164983749389
-0.0942599326372146,0.1917826682329177,-0.0075299022719264,-0.4853582680225372,-0.129983440041542,0.0242850910872221,0.0,0.0,0.7553830146789551,-0.7958469986915588
-0.0941741019487381,0.1809896826744079,0.0059467004612088,-0.4794593751430511,-0.1273648291826248,0.0523725561797618,0.0,0.0,0.737652063369751,-0.0978963971138
-0.0939976722002029,0.1709057241678238,0.0155416149646043,-0.4479987025260925,-0.1252728700637817,0.0418396219611167,0.0,0.0,0.4548153877258301,-0.2729480266571045
-0.0937144309282302,0.1613428890705108,0.026584917679429,-0.4248709082603454,-0.1235534027218818,0.0343892909586429,0.0,0.0,0.525945782661438,-0.9323300123214722
-0.0933028236031532,0.1522223800420761,0.037919171154499,-0.4050895571708679,-0.1203218102455139,0.0646321177482605,0.0,0.0,0.3124034404754638,-0.8874148726463318
-0.0928430557250976,0.1430072337388992,0.0413728132843971,-0.4092004895210266,-0.1157461404800415,0.0915131047368049,0.0,0.0,0.5369793176651001,-0.5402742028236389
-0.0924272537231445,0.1340452283620834,0.0365271493792533,-0.3979274034500122,-0.1107214838266372,0.1004929393529892,0.0,0.0,0.3552089929580688,-0.4047639369964599
-0.09186802059412,0.1256591379642486,0.0510407499969005,-0.3723606467247009,-0.1058712899684906,0.0970039963722229,0.0,0.0,-0.1829911470413208,-0.4475891590118408
-0.0913125053048133,0.1168052777647972,0.051154039800167,-0.3931984007358551,-0.1015156283974647,0.0871134474873542,0.0,0.0,0.5926759243011475,-0.7470225095748901
-0.0908729583024978,0.1086640208959579,0.0388064868748188,-0.3614948391914367,-0.0964086353778839,0.102139726281166,0.0,0.0,0.5289521217346191,-0.5780727863311768
-0.0903336554765701,0.1010162234306335,0.0479087308049202,-0.3395266532897949,-0.0904345363378524,0.1194820404052734,0.0,0.0,0.4264547824859619,-0.1116939187049865
-0.0897855758666992,0.0938746035099029,0.0494822524487972,-0.3170904517173767,-0.0851652100682258,0.1053866744041442,0.0,0.0,-0.130342423915863,-0.0097687244415283
-0.0892414078116417,0.0862652137875557,0.0495895370841026,-0.3379276990890503,-0.0803852677345275,0.0955988243222236,0.0,0.0,0.3857679367065429,-0.014774203300476
-0.0886883735656738,0.0788149684667587,0.0510682761669158,-0.3309020400047302,-0.0761896595358848,0.0839125514030456,0.0,0.0,0.4889380931854248,0.0333949327468872
-0.0882026702165603,0.0717192739248275,0.045306958258152,-0.3152013123035431,-0.0729664266109466,0.0644649714231491,0.0,0.0,0.6937575340270996,0.3907045125961303
-0.0878356918692588,0.0649755597114563,0.0346598736941814,-0.2996207773685455,-0.0709408000111579,0.040512278676033,0.0,0.0,0.4321577548980713,0.6617136001586914
-0.0872751250863075,0.0586833097040653,0.0556325614452362,-0.2796362638473511,-0.0705207213759422,0.0084015391767025,0.0,0.0,0.3014602661132812,-0.1483786702156067
-0.0866497978568077,0.0523525103926658,0.0623735859990119,-0.281357854604721,-0.0703565403819084,0.0032831248827278,0.0,0.0,0.3380336761474609,-0.633665144443512
-0.0859053581953048,0.0464745387434959,0.0732418969273567,-0.2611850202083587,-0.069166861474514,0.0237937159836292,0.0,0.0,0.0175516605377197,-0.1711804866790771
-0.0851457566022872,0.0408450476825237,0.0752990469336509,-0.2501701116561889,-0.0685163810849189,0.0130094485357403,0.0,0.0,0.3678672313690185,-0.1870501637458801
-0.0842237472534179,0.035793837159872,0.0914682000875473,-0.2244638949632644,-0.0677903294563293,0.0145210204645991,0.0,0.0,0.368168830871582,0.2418564558029174
-0.0832099914550781,0.0309863183647394,0.1008158698678016,-0.2136442810297012,-0.0672394782304763,0.0110169658437371,0.0,0.0,0.1938873529434204,-0.3879268169403076
-0.0821657180786132,0.0265940055251121,0.1043700724840164,-0.1952109485864639,-0.0671764090657234,0.0012612596619874,0.0,0.0,-0.0056963562965393,0.4363926649093628
-0.081125259399414,0.0217333417385816,0.1044504418969154,-0.2160449475049972,-0.0675728693604469,-0.0079295616596937,0.0,0.0,0.1472735404968261,-0.2388457059860229
-0.0800112709403038,0.0168752521276474,0.1119991913437843,-0.2159422934055328,-0.068165585398674,-0.0118543254211544,0.0,0.0,0.5343568325042725,-0.1355928778648376
-0.0789752975106239,0.0124198533594608,0.1051837429404258,-0.1980916559696197,-0.0697339549660682,-0.0313674472272396,0.0,0.0,0.7952665090560913,-0.0633912682533264
-0.0780431777238845,0.0083477590233087,0.0958902314305305,-0.1811084747314453,-0.0723923370242118,-0.0531674996018409,0.0,0.0,0.740286111831665,-0.0183751583099365
-0.0770041495561599,0.0054357387125492,0.0880205482244491,-0.1287272721529007,-0.0567005388438701,0.3138112723827362,1.0,0.0,0.280327558517456,-0.6051135063171387
-0.0758688896894455,0.0032446598634123,0.0808392092585563,-0.0964671894907951,-0.0243872459977865,0.6462962031364441,1.0,0.0,0.1457111835479736,-0.0547723174095153
-0.0746534317731857,0.000944004044868,0.0893744081258773,-0.1020333468914032,0.0073668998666107,0.6350833177566528,1.0,0.0,0.6275515556335449,-0.2250909209251403
-0.0733470916748046,-0.0008002543472684,0.0980301424860954,-0.0779992043972015,0.0395636595785617,0.6439355611801147,0.0,1.0,0.4121077060699463,0.9724090099334716
-0.0721144676208496,-0.0015367531450465,0.105971559882164,-0.0334858335554599,0.0553390383720397,0.3138325214385986,0.0,1.0,-0.9651768207550048,0.9030282497406006
