x_pos,y_pos,x_vel,y_vel,angle,ang_vel,leg_1,leg_2,main_booster,lat_booster
-0.0015209198463708,1.4031034708023071,-0.1546335816383361,-0.3474054336547851,0.0022737863473594,0.0448904149234294,0.0,0.0,-0.9217199255674622,0.6821823521206958
-0.0029809952247887,1.3947858810424805,-0.1472630798816681,-0.3696700036525726,0.0035252007655799,0.0250314958393573,0.0,0.0,0.8472177173792168,-0.9877189600716856
-0.0043504713103175,1.38661789894104,-0.1409844607114792,-0.3630392849445343,0.0075104259885847,0.0797118991613388,0.0,0.0,0.3318892792435894,-0.8834064280182395
-0.0058990479446947,1.378528356552124,-0.1610309183597564,-0.3595789074897766,0.0136171644553542,0.122146151959896,0.0,0.0,-0.96008672367247,0.6284549927591819
-0.0073842047713696,1.3699214458465576,-0.1536671072244644,-0.3825834989547729,0.0187024436891078,0.101715087890625,0.0,0.0,-0.7707803586387401,-0.823996817380477
-0.0089159961789846,1.3607916831970217,-0.1600866019725799,-0.4058696329593658,0.0255330074578523,0.1366241425275802,0.0,0.0,0.9882975982504348,-0.7367312399678696
-0.0105492593720555,1.3521808385849,-0.1721148639917373,-0.3828840255737304,0.0342257469892501,0.1738709807395935,0.0,0.0,-0.5919644263748354,-0.702176403258487
-0.0122205736115574,1.3430500030517578,-0.1774486452341079,-0.4060825407505035,0.0444393567740917,0.2042909562587738,0.0,0.0,0.783330840282102,0.8477358062548624
-0.0138761522248387,1.334765911102295,-0.1746297627687454,-0.3684682250022888,0.05341262742877,0.179482102394104,0.0,0.0,-0.8521966367326519,0.9173274567414718
-0.0154560087248682,1.3259737491607666,-0.1656925231218338,-0.3910663425922394,0.0610341839492321,0.1524450480937957,0.0,0.0,-0.8387801060619562,-0.7551973795384775
-0.0170830730348825,1.316657543182373,-0.1721483170986175,-0.4144595563411712,0.0703989565372467,0.1873126775026321,0.0,0.0,-0.929874458617205,-0.9123500670431672
-0.018769359216094,1.3068137168884275,-0.180142730474472,-0.4380813241004944,0.0818141400814056,0.2283245325088501,0.0,0.0,0.1796766862558914,-0.9145894504773352
-0.0204565040767192,1.2972073554992676,-0.1825396716594696,-0.4277612566947937,0.095536395907402,0.2744701504707336,0.0,0.0,0.9900225618556762,0.7685181100880145
-0.0220301635563373,1.287735939025879,-0.1702994555234909,-0.4218266904354095,0.1083876565098762,0.2570486664772033,0.0,0.0,-0.9017634966682252,0.8158950147192536
-0.0235217101871967,1.277767300605774,-0.1604882329702377,-0.4439102709293365,0.1196626722812652,0.2255208939313888,0.0,0.0,-0.5825927971556448,0.7056437438068224
-0.024943446740508,1.26728355884552,-0.1522471457719802,-0.4667874276638031,0.1297018975019455,0.2008026391267776,0.0,0.0,0.3409888104786989,0.6948763088906853
-0.0262740142643451,1.25735604763031,-0.1423572748899459,-0.4420512616634369,0.1389723122119903,0.1854253113269806,0.0,0.0,-0.2564399994528168,-0.7873049715888196
-0.0276472084224224,1.246893048286438,-0.1481962203979492,-0.4660729765892029,0.1498465090990066,0.2175030261278152,0.0,0.0,-0.8102448274697733,0.8291697936266763
-0.028942298144102,1.2359360456466677,-0.1388412714004516,-0.4879471957683563,0.1591823399066925,0.1867334097623825,0.0,0.0,0.4030709982896405,-0.8760147013030073
-0.0304548256099224,1.225136637687683,-0.1626128256320953,-0.4812266230583191,0.1705622375011444,0.2276184558868408,0.0,0.0,0.7964038538770508,0.6780822604047378
-0.0319026932120323,1.2150837182998655,-0.1554803699254989,-0.4480591416358948,0.1813044399023056,0.2148634642362594,0.0,0.0,0.5488221397691047,0.8218618329685299
-0.0333453193306922,1.2051401138305664,-0.153687298297882,-0.4431174695491791,0.1907717287540435,0.189362496137619,0.0,0.0,0.7659787483442317,-0.6584517573167148
-0.0347989089787006,1.1955618858337402,-0.1567452847957611,-0.4272089302539825,0.2022562772035598,0.2297114133834839,0.0,0.0,0.7584257801797019,0.9623932774145184
-0.0361587516963481,1.1859904527664185,-0.1458810120820999,-0.4267797470092773,0.2122523039579391,0.199938490986824,0.0,0.0,-0.1266560893001369,0.8198995647474318
-0.0374675765633583,1.175917625427246,-0.1398191452026367,-0.4489806592464447,0.2212878167629242,0.1807264387607574,0.0,0.0,-0.4310867716985964,-0.8782752646875716
-0.0388552658259868,1.1652812957763672,-0.1501321792602539,-0.4744637608528137,0.2327993363142013,0.2302305251359939,0.0,0.0,0.8611254017077299,0.9282339457592932
-0.040354061871767,1.155353546142578,-0.1596362888813018,-0.442807137966156,0.2427056580781936,0.1981264650821685,0.0,0.0,0.611705249100907,0.6189728203785767
-0.042131520807743,1.1460530757904053,-0.1861778646707534,-0.4147711396217346,0.251280814409256,0.1715033799409866,0.0,0.0,-0.7402395645570938,0.9954795021418882
-0.0438486114144325,1.1362639665603638,-0.1787879914045334,-0.4362969994544983,0.2584933638572693,0.1442511677742004,0.0,0.0,0.834922987298534,-0.9896030846119378
-0.0458023063838481,1.1266974210739136,-0.2045356333255767,-0.4268293678760528,0.2678704559803009,0.1875419914722442,0.0,0.0,0.3593981368341126,-0.867017374526813
-0.0479895584285259,1.117608666419983,-0.22976715862751,-0.4060026109218597,0.2791844308376312,0.22627954185009,0.0,0.0,-0.4601875968001365,0.8143092687050969
-0.0501212105154991,1.1080197095870972,-0.2229077816009521,-0.428078681230545,0.2892128825187683,0.2005689889192581,0.0,0.0,-0.8419715709967066,0.999851633241904
-0.0521886833012104,1.0979491472244265,-0.2148799449205398,-0.4492130577564239,0.297601968050003,0.1677814722061157,0.0,0.0,0.9207391412195411,-0.9835134373968124
-0.054529570043087,1.0878818035125732,-0.2441073656082153,-0.4495221078395843,0.3079653084278106,0.2072666585445404,0.0,0.0,0.9857918037693408,0.8963995802914502
-0.0570115074515342,1.0784162282943726,-0.2565364837646484,-0.4224862158298492,0.3166108131408691,0.1729100048542022,0.0,0.0,-0.1881624735581062,0.6863315288822243
-0.0594420433044433,1.0684614181518557,-0.2500157952308655,-0.4439710676670074,0.3238502442836761,0.1447888314723968,0.0,0.0,-0.0137091643767415,0.7891552708000191
-0.0618160255253315,1.058010816574097,-0.2428863048553466,-0.465708315372467,0.3295668661594391,0.1143324524164199,0.0,0.0,-0.3033830615781299,0.729944508072659
-0.0641345977783203,1.0470744371414185,-0.2357926070690155,-0.4869636297225952,0.3336772620677948,0.0822080448269844,0.0,0.0,-0.133051929052818,0.9390083943777268
-0.0663917511701583,1.0356608629226685,-0.227879598736763,-0.5077745914459229,0.3359395265579223,0.0452455580234527,0.0,0.0,0.8871493181564085,-0.637259406317753
-0.0688944831490516,1.0247024297714231,-0.2536973357200622,-0.487840324640274,0.3395235240459442,0.0716801732778549,0.0,0.0,-0.2432254888294243,-0.9554508948134048
-0.0714847594499588,1.0131863355636597,-0.2645537257194519,-0.513136088848114,0.3453046977519989,0.1156238093972206,0.0,0.0,-0.813220739364624,0.9712191820144652
-0.0739909186959266,1.001193642616272,-0.2537214756011963,-0.5337563157081604,0.3485682308673858,0.0652698501944542,0.0,0.0,-0.9378340244293212,0.9992867708206176
-0.0764120072126388,0.988715887069702,-0.2428157031536102,-0.5547422766685486,0.349317342042923,0.0149823781102895,0.0,0.0,-0.8616711497306824,0.9804996252059937
-0.0787519440054893,0.9757606387138368,-0.2323123216629028,-0.5753849148750305,0.347553938627243,-0.035268060863018,0.0,0.0,-0.9509543776512146,0.988800048828125
-0.0810251235961914,0.9623096585273744,-0.2236638367176056,-0.5969427227973938,0.343717098236084,-0.0767370089888572,0.0,0.0,-0.9621912837028505,0.9720009565353394
-0.0832233428955078,0.9483694434165956,-0.2139108479022979,-0.6181705594062805,0.3375286161899566,-0.1237699165940284,0.0,0.0,-0.9413343667984008,0.991535782814026
-0.0853445082902908,0.9339454770088196,-0.2038345038890838,-0.6391523480415344,0.3288696706295013,-0.173178881406784,0.0,0.0,-0.9657588601112366,0.9976145029067992
-0.0874136909842491,0.9190415740013124,-0.1967401206493377,-0.6601173877716064,0.3182778358459472,-0.2118367701768875,0.0,0.0,-0.7829066514968872,0.9964991807937622
-0.0894330963492393,0.9036540985107422,-0.1899240016937255,-0.6812900304794312,0.305808961391449,-0.2493781298398971,0.0,0.0,-0.8352673649787903,0.9969799518585204
-0.0913867950439453,0.8877784609794617,-0.1811138689517974,-0.7026519179344177,0.2910833656787872,-0.2945116758346557,0.0,0.0,-0.9378768801689148,0.9977803230285645
-0.0932549461722374,0.8714258074760437,-0.1697397828102111,-0.7234779596328735,0.2735296189785003,-0.3510752320289612,0.0,0.0,-0.9670115113258362,0.9981870651245116
-0.0950641632080078,0.8545905947685242,-0.1616405099630355,-0.7447482347488403,0.253805547952652,-0.39448082447052,0.0,0.0,-0.9890484809875488,0.9852744340896606
-0.0967926010489463,0.8372682332992554,-0.1508010774850845,-0.766226053237915,0.2313837707042694,-0.4484359622001648,0.0,0.0,-0.9770262241363524,0.8969302177429199
-0.098462775349617,0.8194636702537537,-0.1426834613084793,-0.787685751914978,0.2067744880914688,-0.4921855330467224,0.0,0.0,-0.950674831867218,-0.0495365262031555
-0.1001429557800293,0.8011449575424194,-0.1431889832019806,-0.8108822107315063,0.1817898601293563,-0.4996928572654724,0.0,0.0,-0.8491857051849365,-0.6621761918067932
-0.101892665028572,0.7822929620742798,-0.151187390089035,-0.8351284861564636,0.1579587310552597,-0.4766224920749664,0.0,0.0,-0.6242653727531433,-0.570595920085907
-0.1036911010742187,0.7629227042198181,-0.1565395593643188,-0.8585945963859558,0.1346900165081024,-0.4653744101524353,0.0,0.0,0.5019533634185791,-0.6265496015548706
-0.1054967865347862,0.7439688444137573,-0.1583066880702972,-0.8405293822288513,0.1125567033886909,-0.4426662921905517,0.0,0.0,-0.8837064504623413,-0.514532744884491
-0.1073493957519531,0.724498987197876,-0.1634393334388733,-0.8638207316398621,0.090902492403984,-0.433084487915039,0.0,0.0,0.6072556972503662,0.2484489679336547
-0.1093566864728927,0.7056461572647095,-0.1780904233455658,-0.8366846442222595,0.0684789568185806,-0.4484708309173584,0.0,0.0,0.1199345588684082,-0.0541722774505615
-0.1113583594560623,0.6866578459739685,-0.1772231012582779,-0.8430309891700745,0.0457817092537879,-0.4539449214935303,0.0,0.0,-0.0452502965927124,0.402828574180603
-0.1133724227547645,0.6671552062034607,-0.1779736131429672,-0.8662258386611938,0.0226432103663682,-0.4627700746059418,0.0,0.0,0.8896780014038086,0.4713646173477173
-0.1152709946036338,0.648030698299408,-0.1666347682476043,-0.8497945070266724,-0.0002896838705055,-0.4586581289768219,0.0,0.0,0.8762898445129395,-0.8371819853782654
-0.1172191649675369,0.6294370889663696,-0.1728687584400177,-0.8265284895896912,-0.0219530072063207,-0.4332662224769592,0.0,0.0,0.9115772247314452,-0.8310282230377197
-0.1192261725664138,0.6110197901725769,-0.1799927353858947,-0.8189764022827148,-0.0424029380083084,-0.4089990258216858,0.0,0.0,0.8101863861083984,-0.5335529446601868
-0.1214054077863693,0.5930699110031128,-0.1974304914474487,-0.7984753251075745,-0.0626648291945457,-0.405238002538681,0.0,0.0,0.2310726642608642,0.7536981105804443
-0.1234804168343544,0.5755616426467896,-0.1850621253252029,-0.7792333364486694,-0.0848734602332115,-0.4441724717617035,0.0,0.0,0.6755468845367432,-0.9747685790061952
-0.125528335571289,0.5579686760902405,-0.1839913129806518,-0.7832216620445251,-0.1054959446191787,-0.4124500751495361,0.0,0.0,0.6142792701721191,-0.8182532787322998
-0.1275372505187988,0.5411198735237122,-0.1813403517007827,-0.7503294348716736,-0.1249107718467712,-0.388296514749527,0.0,0.0,-0.7630777955055237,-0.959626317024231
-0.1296480149030685,0.5237677693367004,-0.193326249718666,-0.7727888822555542,-0.1425919532775879,-0.353623479604721,0.0,0.0,0.4853080511093139,-0.9285948872566224
-0.131852239370346,0.5068426728248596,-0.2039940059185028,-0.7538801431655884,-0.1589968055486679,-0.3280971348285675,0.0,0.0,-0.343275785446167,-0.9542278051376344
-0.134142205119133,0.4894196987152099,-0.213931992650032,-0.7760344743728638,-0.1740742176771164,-0.3015481233596802,0.0,0.0,0.9374072551727296,-0.9284836649894714
-0.1365114152431488,0.4730153083801269,-0.2229687422513961,-0.7307784557342529,-0.1880736798048019,-0.2799890041351318,0.0,0.0,0.3625786304473877,-0.9134210348129272
-0.138810247182846,0.4567961692810058,-0.2173471748828888,-0.7224921584129333,-0.2006744593381881,-0.252016007900238,0.0,0.0,0.3296716213226318,-0.5147756934165955
-0.1411315947771072,0.4405390322208404,-0.2201114892959594,-0.7242183089256287,-0.2128045260906219,-0.242600992321968,0.0,0.0,0.4233889579772949,-0.4408243894577026
-0.14335298538208,0.4241563081741333,-0.2099251002073288,-0.7299295663833618,-0.2251587212085724,-0.2470840215682983,0.0,0.0,0.8949384689331055,-0.9209138751029968
-0.1456154882907867,0.4078539311885834,-0.2153332978487014,-0.7262569665908813,-0.2362318783998489,-0.2214627265930175,0.0,0.0,0.9472324848175048,-0.2562474012374878
-0.1476857215166092,0.3924006819725036,-0.1956025063991546,-0.688690185546875,-0.2478491812944412,-0.2323460131883621,0.0,0.0,0.863399863243103,-0.6418164968490601
-0.1495014131069183,0.3777566850185394,-0.171204075217247,-0.6526275277137756,-0.2584191262722015,-0.211399033665657,0.0,0.0,0.9185218811035156,-0.9849229454994202
-0.1513053923845291,0.3640658855438232,-0.1712938249111175,-0.6101086735725403,-0.2677205204963684,-0.1860272586345672,0.0,0.0,0.4286761283874511,-0.9797418117523192
-0.1532515585422516,0.3503430783748626,-0.1868877410888672,-0.6113331913948059,-0.2756403088569641,-0.1583955883979797,0.0,0.0,0.7902445793151855,-0.9286989569664
-0.1550046950578689,0.3373562395572662,-0.1690242141485214,-0.5783936977386475,-0.2820967137813568,-0.1291276216506958,0.0,0.0,0.7332669496536255,-0.9428210854530334
-0.1567935049533844,0.3248011469841003,-0.1738061904907226,-0.5589945316314697,-0.2873139381408691,-0.1043444275856018,0.0,0.0,0.2647756338119507,-0.8195252418518066
-0.1585608422756195,0.3125247955322265,-0.1727572679519653,-0.5464067459106445,-0.2914112210273742,-0.0819454565644264,0.0,0.0,0.6065651178359985,0.2624160051345825
-0.1601626425981521,0.3007115423679352,-0.1556661874055862,-0.5259409546852112,-0.2960681319236755,-0.0931383967399597,0.0,0.0,0.9370558261871338,-0.8790056109428406
-0.1615430861711502,0.289339542388916,-0.1349851787090301,-0.506047785282135,-0.2992300689220428,-0.0632381215691566,0.0,0.0,0.9100024700164796,-0.9286504983901978
-0.1628688871860504,0.278026133775711,-0.130890890955925,-0.5031654834747314,-0.3009667694568634,-0.034734196960926,0.0,0.0,0.9936540126800536,-0.8376001119613647
-0.1640173941850662,0.2668590545654297,-0.1145756095647811,-0.4963743388652801,-0.3012577295303345,-0.005819340236485,0.0,0.0,0.9981756210327148,-0.0850400924682617
-0.1648105680942535,0.2560831010341644,-0.0793346241116523,-0.4789260029792785,-0.3012335896492004,0.0004827361553907,0.0,0.0,0.988271713256836,-0.8176854252815247
-0.1653707474470138,0.2454095482826233,-0.0575314834713935,-0.4740694761276245,-0.299669474363327,0.0312828049063682,0.0,0.0,0.9928973913192748,-0.953898787498474
-0.1657606065273285,0.2355589717626571,-0.0418824292719364,-0.4372082650661468,-0.2966795265674591,0.0597988963127136,0.0,0.0,0.8641196489334106,-0.9378814101219176
-0.1659522056579589,0.2264395356178283,-0.0234830565750598,-0.404432862997055,-0.2922204434871673,0.089182399213314,0.0,0.0,0.7703535556793213,-0.8439682126045227
-0.1658798158168792,0.2177963852882385,0.0014794921735301,-0.3829981982707977,-0.2862893044948578,0.1186227053403854,0.0,0.0,0.1163567304611206,-0.8726130723953247
-0.165756419301033,0.2089387327432632,0.0053293867968022,-0.3923159539699554,-0.279085636138916,0.1440736353397369,0.0,0.0,-0.0198281407356262,-0.8738359808921814
-0.1657256186008453,0.199591264128685,-0.0053157648071646,-0.4138588011264801,-0.2704658508300781,0.1723959147930145,0.0,0.0,0.6378285884857178,-0.1180276870727539
-0.1654054671525955,0.1909282952547073,0.0237096939235925,-0.3835066854953766,-0.2619667947292328,0.1699811518192291,0.0,0.0,0.202929139137268,-0.6931166052818298
-0.1650694906711578,0.1823759227991104,0.0244234818965196,-0.3784900605678558,-0.2525979876518249,0.1873758882284164,0.0,0.0,0.4647773504257202,-0.2542541027069092
-0.164684385061264,0.174371063709259,0.0303180012851953,-0.3543820977210998,-0.2442479282617569,0.1670011579990387,0.0,0.0,-0.2466570138931274,-0.6584264636039734
-0.1643622368574142,0.1658671647310257,0.0233834367245435,-0.3765062987804413,-0.2352657616138458,0.1796433478593826,0.0,0.0,0.1430548429489135,-0.372583270072937
-0.1639754325151443,0.1576149761676788,0.0304867085069417,-0.365475445985794,-0.2269627749919891,0.1660597175359726,0.0,0.0,0.6742396354675293,-0.3763623237609863
-0.1635202467441558,0.1499815583229065,0.0382077693939209,-0.3381555676460266,-0.2195550501346588,0.1481540650129318,0.0,0.0,0.4852080345153808,-0.4505242705345154
-0.1630099266767501,0.1424919664859771,0.0443044453859329,-0.33188596367836,-0.2127578407526016,0.1359444111585617,0.0,0.0,0.5553735494613647,-0.4153406620025635
-0.1625081002712249,0.1353482753038406,0.0444510430097579,-0.3166845142841339,-0.2069751918315887,0.115652896463871,0.0,0.0,0.703040361404419,-0.7783151865005493
-0.1621432304382324,0.1285478472709655,0.0300177000463008,-0.3013522326946258,-0.200461208820343,0.130279541015625,0.0,0.0,0.8111424446105957,-0.8076552152633667
-0.1615794152021408,0.1223721802234649,0.04855402931571,-0.2734348475933075,-0.1925748586654663,0.1577265709638595,0.0,0.0,0.4054915904998779,-0.3639852404594421
-0.1609249114990234,0.1161247789859771,0.0578592903912067,-0.2766970694065094,-0.1849518865346908,0.1524594128131866,0.0,0.0,0.2999911308288574,-0.7640076875686646
-0.1601129472255706,0.1102305725216865,0.0724181905388832,-0.2608934640884399,-0.1761375665664672,0.176286369562149,0.0,0.0,0.1881234645843505,-0.0886756181716919
-0.1592400521039962,0.1046459302306175,0.0790682882070541,-0.2472485452890396,-0.1679024994373321,0.164701372385025,0.0,0.0,0.0311610698699951,-0.6178348064422607
-0.1582469046115875,0.0993253588676452,0.0902292355895042,-0.2354694306850433,-0.158809095621109,0.1818679869174957,0.0,0.0,0.0147780179977417,-0.4353300333023071
-0.1571720093488693,0.0940020680427551,0.0986862108111381,-0.235672041773796,-0.1500000953674316,0.1761796474456787,0.0,0.0,-0.0531374812126159,-0.6468845009803772
-0.1561680734157562,0.0881779491901397,0.0907402783632278,-0.2579058706760406,-0.1403781771659851,0.1924381405115127,0.0,0.0,0.5550456047058105,0.0668915510177612
-0.1550246179103851,0.0829240381717681,0.1049245372414588,-0.2326476722955703,-0.1309910416603088,0.1877430379390716,0.0,0.0,0.5939288139343262,-0.2980582118034363
-0.1537670195102691,0.0777937248349189,0.1164745241403579,-0.2272232174873352,-0.1217418015003204,0.1849846243858337,0.0,0.0,0.1628569364547729,-0.5583997368812561
-0.1526150703430175,0.0728187635540962,0.1054317504167556,-0.2203440070152282,-0.1120451763272285,0.1939327120780944,0.0,0.0,0.4364780187606811,0.039589524269104
-0.1515446603298187,0.0680104568600654,0.0983022004365921,-0.2130662053823471,-0.1033590883016586,0.1737217754125595,0.0,0.0,0.6442887783050537,-0.3734674453735351
-0.1504580527544021,0.0635233744978904,0.1005035489797592,-0.1988862156867981,-0.095264732837677,0.1618871837854385,0.0,0.0,0.4751690626144409,0.2429718971252441
-0.1493233740329742,0.0592246167361736,0.1056864708662033,-0.1905793845653534,-0.0875538438558578,0.1542179584503173,0.0,0.0,0.3672926425933838,-0.1416088938713073
-0.1480751931667328,0.054836805909872,0.1170113682746887,-0.1945780366659164,-0.0798316523432731,0.1544437706470489,0.0,0.0,0.1869460344314575,-0.3709017038345337
-0.1467383354902267,0.0506554953753948,0.1260527670383453,-0.1854492276906967,-0.0722719505429267,0.1511944085359573,0.0,0.0,0.6214252710342407,-0.030788779258728
-0.1453397721052169,0.0471360795199871,0.1325899213552475,-0.1560849547386169,-0.0650824233889579,0.1437903344631195,0.0,0.0,0.013925552368164,0.137463092803955
-0.1439096480607986,0.0433795563876628,0.1360441446304321,-0.1666700392961502,-0.058193352073431,0.1377815157175064,0.0,0.0,0.1368803977966308,-0.025655448436737
