x_pos,y_pos,x_vel,y_vel,angle,ang_vel,leg_1,leg_2,main_booster,lat_booster
-0.0015195846790447,1.403098464012146,-0.1539309173822403,-0.3476356267929077,0.0017687489744275,0.0348901823163032,0.0,0.0,-0.4672693014144897,0.9057226181030272
-0.0029578208923339,1.3947694301605225,-0.1435980349779129,-0.3701778352260589,0.001547557185404,-0.0044233025982975,0.0,0.0,-0.3920561075210571,0.6514756679534912
-0.0043291090987622,1.385909080505371,-0.1353171020746231,-0.3937887251377105,-0.0002465220168232,-0.0358848944306373,0.0,0.0,0.011553406715393,0.3399820327758789
-0.0057688714005053,1.3769816160202026,-0.1418036222457885,-0.3967823088169098,-0.0023894852492958,-0.0428632274270057,0.0,0.0,0.3804013729095459,0.2148784399032592
-0.0070949555374681,1.368344783782959,-0.1309617459774017,-0.383864551782608,-0.0040153539739549,-0.0325203463435173,0.0,0.0,-0.1161356568336486,0.5475298166275024
-0.0083634378388524,1.3591804504394531,-0.1238697320222854,-0.4073075652122497,-0.0069700614549219,-0.0590996630489826,0.0,0.0,0.0003798007965087,0.3353787660598755
-0.0096385003998875,1.3500150442123413,-0.1244571059942245,-0.4073732197284698,-0.0099870124831795,-0.0603443495929241,0.0,0.0,0.6151317358016968,0.8128911256790161
-0.0106764789670705,1.341271162033081,-0.0994284078478813,-0.3886542618274688,-0.0143133495002985,-0.0865344852209091,0.0,0.0,-0.1360461711883545,0.5818735361099243
-0.0116646764799952,1.3320064544677734,-0.0933061838150024,-0.4118194878101349,-0.0197649877518415,-0.1090427041053772,0.0,0.0,-0.539685845375061,0.0539623498916626
-0.01264791470021,1.3222161531448364,-0.092815525829792,-0.4352030158042907,-0.0252120904624462,-0.1089520007371902,0.0,0.0,-0.3133911490440368,-0.5057058930397034
-0.0136603359133005,1.3119019269943235,-0.0966044217348098,-0.4585028886795044,-0.029795641079545,-0.091679461300373,0.0,0.0,-0.8071689605712891,-0.5831510424613953
-0.0147082330659031,1.3010622262954712,-0.101200483739376,-0.4818426072597503,-0.0333540067076683,-0.0711741372942924,0.0,0.0,-0.6851924061775208,0.0674057006835937
-0.0157512668520212,1.2896963357925415,-0.1007071733474731,-0.5052290558815002,-0.0369071401655674,-0.0710689797997474,0.0,0.0,-0.6066291928291321,-0.327101469039917
-0.016789149492979,1.277804613113403,-0.1002118736505508,-0.5286157131195068,-0.0404539555311203,-0.0709426179528236,0.0,0.0,0.6893625259399414,-0.0598726868629455
-0.017643928527832,1.26664137840271,-0.0825762748718261,-0.4962208867073059,-0.0433146245777606,-0.0572184510529041,0.0,0.0,-0.8487112522125244,-0.7479334473609924
-0.0185420997440814,1.254946231842041,-0.088159866631031,-0.51983243227005,-0.0449554733932018,-0.0328201837837696,0.0,0.0,-0.6419453024864197,-0.6100841164588928
-0.0194722171872854,1.242734670639038,-0.0923028737306594,-0.5427582859992981,-0.0456535890698432,-0.0139636946842074,0.0,0.0,-0.0654471516609191,-0.650336742401123
-0.0204367637634277,1.2299940586090088,-0.0967461913824081,-0.5662416219711304,-0.0453585609793663,0.0059008598327636,0.0,0.0,-0.298860490322113,-0.2438009977340698
-0.0213963501155376,1.216727375984192,-0.0962622091174125,-0.589627206325531,-0.0450555272400379,0.0060612889938056,0.0,0.0,-0.4054347276687622,-0.719685971736908
-0.0224153511226177,1.2029383182525637,-0.1038606390357017,-0.6127853989601135,-0.0431222058832645,0.0386696197092533,0.0,0.0,0.4404550790786743,-0.2321289777755737
-0.0232901573181152,1.189598560333252,-0.0899689346551895,-0.5928128957748413,-0.0406615398824214,0.049217764288187,0.0,0.0,-0.4412089586257934,-0.2309743762016296
-0.0241601951420307,1.1757323741912842,-0.08949925750494,-0.6162069439888,-0.0381914116442203,0.0494070537388324,0.0,0.0,-0.2011963725090026,0.2249480485916137
-0.025025462731719,1.1613401174545288,-0.0890325009822845,-0.6395907998085022,-0.0357109531760215,0.0496137216687202,0.0,0.0,-0.5628787875175476,0.3578481674194336
-0.0258858688175678,1.1464219093322754,-0.0885706394910812,-0.6629756093025208,-0.0332198552787303,0.0498265884816646,0.0,0.0,-0.3688682317733764,0.303457498550415
-0.0267416946589946,1.1309776306152344,-0.0881140306591987,-0.6863618493080139,-0.0307175908237695,0.0500500686466693,0.0,0.0,-0.2704362869262695,-0.3432449698448181
-0.0275933258235454,1.114985704421997,-0.0877067893743515,-0.7107012271881104,-0.02820336073637,0.050284557044506,0.0,0.0,0.196043848991394,-0.1651786565780639
-0.0284226424992084,1.0992562770843506,-0.0855075493454933,-0.6990439295768738,-0.0256637595593929,0.0507918484508991,0.0,0.0,0.1797360181808471,0.5246617794036865
-0.0292929653078317,1.083891987800598,-0.0883537083864212,-0.6828290820121765,-0.0243592858314514,0.0260894503444433,0.0,0.0,0.3320565223693847,-0.5863713622093201
-0.0303050987422466,1.0689491033554075,-0.1034942865371704,-0.664097011089325,-0.0221085548400878,0.0450145080685615,0.0,0.0,-0.6121773719787598,0.6655104160308838
-0.0312621109187603,1.0534757375717163,-0.0966949015855789,-0.687686562538147,-0.0211212635040283,0.0197459775954484,0.0,0.0,-0.4663954973220825,-0.4659483432769775
-0.0322146415710449,1.0374763011932373,-0.0962778776884079,-0.7110702991485596,-0.0201192367821931,0.0200404915958642,0.0,0.0,0.6174042224884033,-0.2955054044723511
-0.0332304947078228,1.0215964317321775,-0.1022646576166153,-0.7057608962059021,-0.0194543283432722,0.0132981613278388,0.0,0.0,-0.4674155116081238,-0.690535843372345
-0.0343043319880962,1.0051988363265991,-0.1096561104059219,-0.7287552356719971,-0.0172117408365011,0.0448516421020031,0.0,0.0,-0.2822880744934082,-0.0539894700050354
-0.0353741645812988,0.9882752895355223,-0.1092730537056922,-0.7521392703056335,-0.0149529734626412,0.0451751910150051,0.0,0.0,0.4714105129241943,0.0457043647766113
-0.0364173874258995,0.971662938594818,-0.1066852957010269,-0.7383004426956177,-0.0126105658710002,0.0468481332063674,0.0,0.0,-0.3272616863250732,-0.4252427220344543
-0.0374567024409771,0.9545245170593262,-0.106329008936882,-0.7616845369338989,-0.0102510806173086,0.0471898093819618,0.0,0.0,0.1159713268280029,0.2478836774826049
-0.0385070815682411,0.9373217821121216,-0.1073606237769126,-0.7645551562309265,-0.0079560736194252,0.0458999387919902,0.0,0.0,-0.4044827222824096,0.0448306798934936
-0.0395539291203022,0.9195928573608398,-0.1070345789194107,-0.787939190864563,-0.0056431596167385,0.0462584421038627,0.0,0.0,0.7380342483520508,-0.1341326236724853
-0.0406339652836322,0.9026679396629332,-0.1101675406098365,-0.7522153854370117,-0.0035034262109547,0.0427948273718357,0.0,0.0,-0.43109792470932,-0.6394427418708801
-0.0417591109871864,0.88521808385849,-0.1159261316061019,-0.7755491137504578,-0.0001331186358584,0.0674060508608818,0.0,0.0,-0.6786277890205383,0.6764922142028809
-0.0428372398018837,0.8672477602958679,-0.1101254671812057,-0.7986806631088257,0.0021495046094059,0.0456524714827537,0.0,0.0,0.418876051902771,0.8133137226104736
-0.0437299720942974,0.849424421787262,-0.0901312604546547,-0.7921456694602966,0.0029930653981864,0.0168711431324481,0.0,0.0,0.2527546882629394,0.0951983928680419
-0.0445471778512001,0.8314321637153625,-0.0829447284340858,-0.7996619343757629,0.0041971737518906,0.0240822788327932,0.0,0.0,0.862808108329773,0.4273755550384521
-0.0452526099979877,0.8138085603713989,-0.0723085850477218,-0.7832807898521423,0.0059391907416284,0.0348404720425605,0.0,0.0,0.833611249923706,-0.0064976215362548
-0.0460029616951942,0.7961485981941223,-0.0766086056828498,-0.784892737865448,0.0074929129332304,0.0310744903981685,0.0,0.0,0.8287538290023804,0.6905381679534912
-0.0466444976627826,0.7785115242004395,-0.0644845515489578,-0.7838708758354187,0.0078247627243399,0.0066370228305459,0.0,0.0,0.640608549118042,0.1771941184997558
-0.0472271926701068,0.7610148191452026,-0.0589099638164043,-0.7776405811309814,0.0084577500820159,0.0126598374918103,0.0,0.0,-0.2084960341453552,0.224429965019226
-0.0478083603084087,0.7429918050765991,-0.0587876066565513,-0.8010242581367493,0.009111906401813,0.0130832642316818,0.0,0.0,0.4207150936126709,0.5049629211425781
-0.0484775528311729,0.7254627346992493,-0.0662727430462837,-0.7790708541870117,0.00847655441612,-0.0127069149166345,0.0,0.0,-0.3029941320419311,-0.2865059971809387
-0.049145795404911,0.7074074149131775,-0.0662011504173278,-0.8024546504020691,0.0078628147020936,-0.0122750233858823,0.0,0.0,0.7657889127731323,-0.2736415863037109
-0.0496647842228412,0.6897432804107666,-0.0520214959979057,-0.7850741147994995,0.007980010472238,0.0023438283242285,0.0,0.0,0.6917597055435181,0.763878583908081
-0.0501936897635459,0.6726896166801453,-0.0513654649257659,-0.7579351663589478,0.0064723961986601,-0.0301522649824619,0.0,0.0,0.3468225002288818,-0.0945790410041809
-0.0506357178092002,0.6556541919708252,-0.0431145280599594,-0.7571219205856323,0.0053990860469639,-0.0214661974459886,0.0,0.0,0.1184978485107421,0.4456819295883178
-0.0510786995291709,0.6389029026031494,-0.0432362183928489,-0.7445030212402344,0.0043579544872045,-0.0208228603005409,0.0,0.0,-0.0730779767036438,0.4916911125183105
-0.0515220649540424,0.6216253638267517,-0.0433032438158988,-0.767886757850647,0.0033390636090189,-0.0203777570277452,0.0,0.0,0.602454662322998,-0.1065040826797485
-0.0520604141056537,0.6045068502426147,-0.0523842759430408,-0.7608216404914856,0.0019137726631015,-0.0285060293972492,0.0,0.0,0.6266069412231445,0.5167229175567627
-0.0524612441658973,0.588044285774231,-0.0379037261009216,-0.731663703918457,-0.0002490734623279,-0.0432567931711673,0.0,0.0,0.5198286771774292,0.1922684907913208
-0.0527363792061805,0.5719863772392273,-0.0259417053312063,-0.7136875987052917,-0.0018023019656538,-0.0310642570257186,0.0,0.0,0.0633862018585205,0.5310025215148926
-0.052916906774044,0.5562024116516113,-0.0155191514641046,-0.7015120387077332,-0.0042976695112884,-0.0499071851372718,0.0,0.0,0.3729786872863769,0.5573545694351196
-0.0531211867928504,0.5408770442008972,-0.0166498608887195,-0.6811425089836121,-0.0080317007377743,-0.0746805667877197,0.0,0.0,-0.4673408269882202,0.7926203012466431
-0.053259752690792,0.5250181555747986,-0.0083615239709615,-0.7048788666725159,-0.0134539203718304,-0.1084445938467979,0.0,0.0,0.1258101463317871,-0.8634427785873413
-0.053542423993349,0.5093578100204468,-0.0245028659701347,-0.6960555911064148,-0.0171670466661453,-0.0742623955011367,0.0,0.0,-0.4194214940071106,0.0555942058563232
-0.0538279525935649,0.4931714832782745,-0.0248110610991716,-0.7194404006004333,-0.0208582412451505,-0.0738239139318466,0.0,0.0,0.9439401626586914,0.1222133636474609
-0.0540738105773925,0.4775398671627044,-0.0210006032139062,-0.6947919726371765,-0.0243994686752557,-0.0708247870206832,0.0,0.0,0.6164624691009521,-0.0412682890892028
-0.0543059334158897,0.4619700908660888,-0.0196817647665739,-0.6920498609542847,-0.027883805334568,-0.0696868225932121,0.0,0.0,0.6853127479553223,-0.8305124640464783
-0.0547304153442382,0.4467873573303222,-0.0403654240071773,-0.6748281121253967,-0.0299396868795156,-0.041117638349533,0.0,0.0,0.900275707244873,0.6607024669647217
-0.0550504699349403,0.4325586557388305,-0.0286836829036474,-0.6324589252471924,-0.0332206487655639,-0.0656192377209663,0.0,0.0,0.4656785726547241,0.3803567886352539
-0.0552935600280761,0.4181891679763794,-0.0213404335081577,-0.638710618019104,-0.0361441299319267,-0.0584698803722858,0.0,0.0,0.6195168495178223,0.5252879858016968
-0.0554409027099609,0.4045505225658417,-0.0108132977038621,-0.6062648892402649,-0.0400159396231174,-0.0774361416697502,0.0,0.0,-0.548867404460907,-0.0436619520187377
-0.0555932037532329,0.3903858065605163,-0.0113258343189954,-0.6296497583389282,-0.0438679158687591,-0.077039748430252,0.0,0.0,0.8332459926605225,-0.8328647017478943
-0.0558952316641807,0.376836210489273,-0.0277821086347103,-0.6022759675979614,-0.0462617650628089,-0.0478770211338996,0.0,0.0,0.8085650205612183,-0.0995835661888122
-999.0,0.3637790083885193,-0.0219889394938945,-0.5803889632225037,-0.0484810285270214,-0.0443851873278617,0.0,0.0,0.922682762145996,-0.3880690336227417
-0.056487750262022,0.3516792356967926,-0.0320867821574211,-0.537866473197937,-0.0513755120337009,-0.0578898675739765,0.0,0.0,-0.6785343289375305,0.1932229995727539
-0.0568438544869422,0.3390533924102783,-0.0327034033834934,-0.561250627040863,-0.0542523004114627,-0.0575357861816883,0.0,0.0,-0.0451478362083435,-0.6092410087585449
-0.0572572723031044,0.3259008526802063,-0.039739940315485,-0.5846150517463684,-0.0558326765894889,-0.0316074043512344,0.0,0.0,0.9886062145233154,-0.123311161994934
-0.0575736053287982,0.3128013610839844,-0.0304297171533107,-0.5822452306747437,-0.0570180416107177,-0.0237074792385101,0.0,0.0,0.947189450263977,0.1233443021774292
-0.0579109191894531,0.2997779846191406,-0.0323790162801742,-0.5788676738739014,-0.0583600662648677,-0.0268405228853225,0.0,0.0,0.9837144613265992,-0.0109609365463256
-0.0582097060978412,0.2876555621623993,-0.0284847673028707,-0.5388299822807312,-0.0597337521612644,-0.0274737626314163,0.0,0.0,0.4928621053695678,-0.4837526082992553
-0.0583992972970008,0.2761042416095733,-0.0179291069507598,-0.5134339928627014,-0.0607588663697242,-0.0205022394657135,0.0,0.0,0.6215165853500366,0.2518876791000366
-0.0586575493216514,0.2652378678321838,-0.0242821499705314,-0.4830124676227569,-0.0622802972793579,-0.0304284747689962,0.0,0.0,0.1471693515777588,0.5107910633087158
-0.058967113494873,0.2541899681091308,-0.0282107256352901,-0.4911371767520904,-0.0650045573711395,-0.0544851720333099,0.0,0.0,0.3358080387115478,-0.5944998860359192
-0.0592539794743061,0.2435789853334427,-0.0272127743810415,-0.4716626405715942,-0.0664611980319023,-0.0291328076273202,0.0,0.0,0.3907685279846191,0.5644873380661011
-0.0595645904541015,0.2331718057394027,-0.028256494551897,-0.4626688063144684,-0.0692368522286415,-0.0555131733417511,0.0,0.0,0.4148584604263305,-0.6391624808311462
-0.0599449165165424,0.2231204658746719,-0.0364167615771293,-0.4468029737472534,-0.0708313360810279,-0.0318896435201168,0.0,0.0,-0.7476032376289368,-0.6028957962989807
-0.0603817924857139,0.2125512659549713,-0.0433265157043933,-0.4697623550891876,-0.0711925402283668,-0.0072240657173097,0.0,0.0,0.4043066501617431,0.2074871063232422
-0.0607179626822471,0.2021878510713577,-0.0336093083024024,-0.460595965385437,-0.071203775703907,-0.0002244424249511,0.0,0.0,-0.0853586196899414,0.633317232131958
-0.0610111244022846,0.1912865787744522,-0.0279815942049026,-0.4845662713050842,-0.0725213289260864,-0.0263510458171367,0.0,0.0,0.8620644807815552,-0.030226707458496
-0.0611758232116699,0.1805266886949539,-0.0156283974647521,-0.478257268667221,-0.0733504295349121,-0.0165819730609655,0.0,0.0,0.7527955770492554,-0.53190678358078
-0.0611809715628623,0.1701331734657287,-0.0012180474586784,-0.4618986546993255,-0.072653517127037,0.0139382053166627,0.0,0.0,0.7442831993103027,-0.338233470916748
-0.0610180869698524,0.1598204672336578,0.0148971900343894,-0.4582752883434295,-0.0712734013795852,0.0276022516191005,0.0,0.0,0.6510848999023438,-0.1552038788795471
-0.0608163848519325,0.1501055806875229,0.0187968667596578,-0.4317082166671753,-0.0699183940887451,0.0271002110093832,0.0,0.0,0.5124406814575195,-0.6863194108009338
-0.0605982765555381,0.1409112513065338,0.0189978629350662,-0.4085049331188202,-0.0671349242329597,0.0556693859398365,0.0,0.0,0.1040036678314209,-0.088215947151184
-0.0602766051888465,0.1318497508764267,0.0289731137454509,-0.4025940895080566,-0.0639678761363029,0.0633406043052673,0.0,0.0,0.488722562789917,-0.2810972929000854
-0.059854794293642,0.1226939037442207,0.0385588109493255,-0.4067779779434204,-0.0603831484913826,0.0716945379972457,0.0,0.0,0.7956140041351318,-0.6604230999946594
-0.0595228187739849,0.1138491928577423,0.028394291177392,-0.3929105699062347,-0.0556378290057182,0.0949061214923858,0.0,0.0,0.440842866897583,-0.1328696608543396
-0.0590848922729492,0.105599507689476,0.0386491045355796,-0.3664719462394714,-0.0505564026534557,0.1016287803649902,0.0,0.0,0.3779332637786865,0.5013155937194824
-0.0586140640079975,0.0975334271788597,0.0430129617452621,-0.3583597540855407,-0.0465305037796497,0.0805177167057991,0.0,0.0,0.438608169555664,-0.5424769520759583
-0.0582805648446083,0.0899955630302429,0.0284726526588201,-0.3348734974861145,-0.0417106263339519,0.09639772772789,0.0,0.0,0.2673758268356323,0.0649724006652832
-0.0578678138554096,0.0827300623059272,0.0360880456864833,-0.3227786123752594,-0.0365910902619361,0.1023905649781227,0.0,0.0,0.2925877571105957,0.9068824052810668
-0.0574199669063091,0.0758236944675445,0.0414797440171241,-0.3068690299987793,-0.0333186239004135,0.0654491782188415,0.0,0.0,-0.182966411113739,0.5598640441894531
-0.0569437034428119,0.068393550813198,0.0452928952872753,-0.3301816284656524,-0.0310180950909852,0.0460103973746299,0.0,0.0,0.7537209987640381,0.3568184375762939
-0.0564876571297645,0.0612309798598289,0.0434246584773063,-0.3182912766933441,-0.0288526974618434,0.0433077588677406,0.0,0.0,0.7064528465270996,0.2190780639648437
-0.0561440475285053,0.054478894919157,0.032739482820034,-0.3000601232051849,-0.0272589642554521,0.0318747088313102,0.0,0.0,0.6623790264129639,0.4791150093078613
-0.0559476837515831,0.0479971729218959,0.0187481138855218,-0.2880615890026092,-0.0263810530304908,0.0175581984221935,0.0,0.0,0.7496204376220703,0.964728832244873
-0.0555394180119037,0.0421281419694423,0.0417098328471183,-0.2608611285686493,-0.0272566564381122,-0.0175121016800403,0.0,0.0,0.2388608455657959,0.7519968748092651
-0.0550224296748638,0.0361368022859096,0.0540497601032257,-0.2663275897502899,-0.0295859444886446,-0.0465855561196804,0.0,0.0,0.5171303749084473,0.4809670448303222
-0.0543620102107524,0.0306639522314071,0.0678004696965217,-0.2432773560285568,-0.0313179306685924,-0.0346397943794727,0.0,0.0,0.188137412071228,-0.6660684943199158
-0.0537653937935829,0.0255104638636112,0.0601149909198284,-0.2290521562099456,-0.0317702628672122,-0.0090466802939772,0.0,0.0,0.4203705787658691,-0.0898830294609069
-0.0530332550406456,0.0209263898432254,0.0731171220541,-0.2037328332662582,-0.0316761806607246,0.001881429227069,0.0,0.0,0.0232195854187011,0.2182974815368652
-0.05225295946002,0.0163521859794855,0.0777337402105331,-0.2032922059297561,-0.0313855931162834,0.0058117536827921,0.0,0.0,-0.0515321493148803,0.3604182004928589
-0.0514832511544227,0.0112518407404422,0.076708547770977,-0.2266759574413299,-0.0311180297285318,0.0053512528538703,0.0,0.0,0.7389538288116455,-0.6422358751296997
-0.0506798736751079,0.0068730805069208,0.0786264315247535,-0.1945788562297821,-0.0294297616928815,0.0337654128670692,0.0,0.0,0.5868086814880371,-0.3205416798591614
-0.0497966781258583,0.0026249981019645,0.0862676799297332,-0.1887633800506591,-0.0274084024131298,0.0404272601008415,0.0,0.0,0.4733220338821411,-0.0649720430374145
-0.0489204414188861,-0.0006074213888496,0.0668855533003807,-0.1434060484170913,-0.0069336621090769,0.4094765186309814,1.0,0.0,0.5753153562545776,-0.5120464563369751
-0.0481178276240825,-0.0031010175589472,0.0440785959362983,-0.1110559627413749,0.0288052018731832,0.7148179411888123,1.0,1.0,0.8498092889785767,0.7694535255432129
-0.0474612228572368,-0.0046420358121395,0.0484528802335262,-0.0691883414983749,0.0441496148705482,0.3047647476196289,1.0,1.0,0.6659181118011475,0.3456101417541504
-0.0470543876290321,-0.0053600454702973,0.0449909083545208,-0.0317957885563373,0.0398574545979499,-0.0858841985464096,0.0,1.0,-0.3116028904914856,-0.1591145992279052
-0.0467656143009662,-0.0054560326971113,0.0337363816797733,-0.0041568372398614,0.0350532606244087,-0.096088133752346,1.0,1.0,-0.1096307039260864,0.0597544908523559
-0.0465584769845008,-0.0049774553626775,0.0249150209128856,0.0213526431471109,0.0309010595083236,-0.0830488055944442,1.0,1.0,-0.5301448702812195,-0.316766083240509
-0.0463694557547569,-0.0042216801084578,0.0245941374450922,0.0336895659565925,0.0252778436988592,-0.1124660819768905,1.0,1.0,-0.7029680609703064,-0.3354848623275757
