x_pos,y_pos,x_vel,y_vel,angle,ang_vel,leg_1,leg_2,main_booster,lat_booster
-0.001466178917326,1.4035061597824097,-0.1484466791152954,-0.3295155465602875,0.0016395894344896,0.0323331840336322,0.0,0.0,-0.0001291520296633,-0.8897543933924923
-0.0029390335548669,1.3959922790527344,-0.1504313200712204,-0.3339548110961914,0.0047500049695372,0.0622147917747497,0.0,0.0,-0.0474759079751658,0.3190383414984085
-0.0043551446869969,1.388359546661377,-0.1446516811847686,-0.3392437100410461,0.0077624153345823,0.0602536275982856,0.0,0.0,0.1816887876501525,0.9176731927792108
-0.0057449340820312,1.3811410665512085,-0.140042245388031,-0.3208270967006683,0.0088117299601435,0.0209885407239198,0.0,0.0,0.0711569685911412,0.4729214399998682
-0.0069990158081054,1.3744392395019531,-0.1267778426408767,-0.2978650033473968,0.0101641826331615,0.027051443234086,0.0,0.0,-0.6527939865757051,0.1366307601821481
-0.0081979753449559,1.3676190376281738,-0.1211598888039588,-0.3031331598758697,0.0114167323336005,0.0250530056655406,0.0,0.0,0.0256570778301674,-0.5817390637103758
-0.009407902136445,1.361217021942139,-0.1233045682311058,-0.2845525741577148,0.0136972656473517,0.0456151701509952,0.0,0.0,-0.968352448603609,-0.687718975390341
-0.0106048583984375,1.354697823524475,-0.122928999364376,-0.2897802591323852,0.0169011838734149,0.0640841051936149,0.0,0.0,-0.6268326247219409,-0.3468962731848698
-0.011748599819839,1.3480602502822876,-0.1175131574273109,-0.2950439155101776,0.020003318786621,0.0620484352111816,0.0,0.0,0.801779505117657,-0.5464168796980844
-0.0128998756408691,1.3424944877624512,-0.1192442774772644,-0.2474298328161239,0.0240831468254327,0.0816037952899932,0.0,0.0,0.4652811842565425,-0.9912123962241792
-0.0140026090666651,1.3376020193099976,-0.1163660064339637,-0.2175539135932922,0.0301059205085039,0.120466411113739,0.0,0.0,0.7723227717764878,0.5471872019223519
-0.0149477003142237,1.333445429801941,-0.0996242985129356,-0.1848459392786026,0.0351716801524162,0.1013246178627014,0.0,0.0,-0.4430058470394293,-0.6192633927756744
-0.015881061553955,1.329171895980835,-0.0993287116289138,-0.1900888085365295,0.041096843779087,0.1185141205787658,0.0,0.0,0.6693910656080009,0.3308047215531842
-0.0167103763669729,1.325322508811951,-0.0891497358679771,-0.1712678372859954,0.0472465716302394,0.1230057477951049,0.0,0.0,0.1598826964750701,0.0288214940889008
-0.0174199100583791,1.3222291469573977,-0.0775356739759445,-0.1377020329236984,0.0537583976984024,0.130248486995697,0.0,0.0,0.8792399211005715,0.3160521351164927
-0.017975902184844,1.319534420967102,-0.0626614093780517,-0.1200410947203636,0.0607518479228019,0.1398817896842956,0.0,0.0,-0.260443627687082,-0.7758309566814882
-0.0185331348329782,1.3167263269424438,-0.0638808608055114,-0.1251502633094787,0.0688270255923271,0.1615184545516967,0.0,0.0,-0.3411340423869866,-0.4183331110172039
-0.0190452579408884,1.313800573348999,-0.0592503733932971,-0.1304193139076233,0.076797030866146,0.1594143509864807,0.0,0.0,0.0764094290219425,-0.0915461207380898
-0.0194901470094919,1.3115465641021729,-0.0527213215827941,-0.1006173864006996,0.0849585831165313,0.1632459461688995,0.0,0.0,-0.7879846660853871,-0.9465695733499964
-0.0199765209108591,1.3091635704040527,-0.0588948130607605,-0.1065170913934707,0.0951506793498992,0.2038599997758865,0.0,0.0,-0.8564310818447616,0.8957208219617498
-0.0203358642756938,1.3066821098327637,-0.0439140684902668,-0.1108176931738853,0.1030737236142158,0.158475250005722,0.0,0.0,0.9370651295202586,0.4467427719442296
-0.0206939689815044,1.3048588037490845,-0.043743398040533,-0.0815974101424217,0.1109578385949134,0.1576965153217315,0.0,0.0,-0.0843861271510881,0.7875445182021359
-0.0209370609372854,0.0,-0.0302053727209568,-0.0862219035625457,0.1168294697999954,0.1174433603882789,0.0,0.0,0.5199978081147123,0.0239470967886255
-0.0211110115051269,1.30131995677948,-0.0234889853745698,-0.0719955936074256,0.1228971779346466,0.1213649362325668,0.0,0.0,0.6118631028987684,0.5764462813423639
-0.0214275363832712,1.300510048866272,-0.0361064672470092,-0.0363749414682388,0.1273391097784042,0.0888462662696838,0.0,0.0,0.5549368132384329,-0.4114370078511187
-0.021925926208496,1.3005200624465942,-0.0535642616450786,0.0001227774191647,0.1310455352067947,0.0741285681724548,0.0,0.0,-0.9052315877230956,-0.7536135248624527
-0.0224481578916311,1.3004047870635986,-0.0573465749621391,-0.0055813565850257,0.1361451148986816,0.1019917279481887,0.0,0.0,-0.3682928068871536,-0.5588855449406449
-0.0229902267456054,1.3001660108566284,-0.0605852492153644,-0.0112015595659613,0.1425014734268188,0.1271272748708725,0.0,0.0,-0.6960155039497553,-0.0758571401808437
-0.0234996788203716,1.2998093366622925,-0.0572070963680744,-0.0164673142135143,0.1487593501806259,0.125157281756401,0.0,0.0,-0.913519757060546,0.5565712282314597
-0.0239354129880666,1.2993416786193848,-0.0486614592373371,-0.0212979800999164,0.1538464576005935,0.1017420142889022,0.0,0.0,0.5520920814056014,-0.3991660985469154
-0.0244453437626361,1.2999389171600342,-0.0560725443065166,0.0260071419179439,0.158918410539627,0.1014391630887985,0.0,0.0,-0.9391677975654602,0.9188125133514404
-0.0248634330928325,1.3004274368286133,-0.0451821461319923,0.0213457476347684,0.1622964590787887,0.0675606355071067,0.0,0.0,-0.8072034120559692,0.8952145576477051
-0.0251946449279785,1.3008205890655518,-0.0348448678851127,0.0172778330743312,0.1640286743640899,0.0346443280577659,0.0,0.0,-0.8690081238746643,0.7900524139404297
-0.0254435539245605,1.301101565361023,-0.0251218266785144,0.0124642830342054,0.1642573922872543,0.0045744739472866,0.0,0.0,-0.7045284509658813,0.4208288192749023
-0.025667380541563,1.3012639284133911,-0.0225304067134857,0.007201962172985,0.1643943339586258,0.0027387314476072,0.0,0.0,-0.5392616987228394,0.508163571357727
-0.0258272178471088,1.3013217449188232,-0.0149832619354128,0.0026739290915429,0.1633900851011276,-0.0200850889086723,0.0,0.0,-0.5735596418380737,0.5783412456512451
-0.0259212497621774,1.301268458366394,-0.007203618530184,-0.0021226310636848,0.1611906290054321,-0.0439886860549449,0.0,0.0,-0.6352131366729736,0.2726309299468994
-0.0259942058473825,1.3010966777801514,-0.0050072721205651,-0.0073854234069585,0.1589032858610153,-0.0457467399537563,0.0,0.0,-0.7944645285606384,-0.0665199160575866
-0.0260473247617483,1.3008064031600952,-0.002941130194813,-0.0126482835039496,0.156529426574707,-0.0474772676825523,0.0,0.0,-0.5634616613388062,-0.1736875772476196
-0.0260819438844919,1.3003977537155151,-0.0010039774933829,-0.0179112143814563,0.1540704518556594,-0.0491793677210807,0.0,0.0,-0.5783438086509705,0.1998183727264404
-0.026099395006895,1.299870491027832,0.000805671152193,-0.0231742151081562,0.151527851819992,-0.0508521981537342,0.0,0.0,-0.542595386505127,0.1295533180236816
-0.0261008255183696,1.299224615097046,0.0024895654059946,-0.0284372828900814,0.1489031016826629,-0.0524948649108409,0.0,0.0,-0.6764418482780457,0.4069876670837402
-0.0260873790830373,1.2984602451324463,0.0040497123263776,-0.0337004289031028,0.1461977660655975,-0.0541064068675041,0.0,0.0,-0.2664568424224853,-0.4491279125213623
-0.0260604862123727,1.2975775003433228,0.0054883696138858,-0.0389636494219303,0.1434134691953659,-0.0556859262287616,0.0,0.0,-0.7110198140144348,0.2238725423812866
-0.0260210987180471,1.2965762615203855,0.0068080350756645,-0.0442269444465637,0.1405518501996994,-0.0572324022650718,0.0,0.0,-0.5816688537597656,0.3593052625656128
-0.025970458984375,1.2954566478729248,0.0080114360898733,-0.0494903139770031,0.1376146078109741,-0.0587448552250862,0.0,0.0,-0.378775417804718,-0.0292178988456726
-0.0259096138179302,1.2942185401916504,0.0091015165671706,-0.0547537617385387,0.1346035003662109,-0.0602222084999084,0.0,0.0,-0.5824896693229675,-0.4495656490325928
-0.0258398056030273,1.292861819267273,0.0100814318284392,-0.0600172765552997,0.1315203458070755,-0.0616633482277393,0.0,0.0,-0.6993938088417053,-0.368154764175415
-0.025761891156435,1.2913868427276611,0.0109545271843671,-0.065280869603157,0.1283669918775558,-0.063067153096199,0.0,0.0,-0.6461991667747498,-0.3583239316940307
-0.0256771091371774,1.2897932529449463,0.0117243351414799,-0.0705445557832717,0.1251453757286071,-0.0644324421882629,0.0,0.0,-0.6759322285652161,0.274186372756958
-0.0255861282348632,1.2880812883377075,0.0123945511877536,-0.0758083015680313,0.121857464313507,-0.0657579004764556,0.0,0.0,-0.6624982953071594,-0.5027185082435608
-0.0255336761474609,1.2862465381622314,0.0075132520869374,-0.081367403268814,0.1196033731102943,-0.0450817607343196,0.0,0.0,-0.3370605111122131,0.3398281335830688
-0.0254770275205373,1.2842931747436523,0.0079959006980061,-0.0866307914257049,0.1172871962189674,-0.0463236086070537,0.0,0.0,-0.6999683380126953,0.7451386451721191
-0.025358771905303,1.282238483428955,0.0157256852835416,-0.0910103321075439,0.1134131625294685,-0.077480673789978,0.0,0.0,-0.7325134873390198,-0.1858393549919128
-0.0252379421144723,1.2800657749176023,0.0160375013947486,-0.0962746143341064,0.109481506049633,-0.0786329954862594,0.0,0.0,-0.8558446764945984,-0.508948028087616
-0.0251616481691598,1.2777645587921145,0.0104659851640462,-0.102065697312355,0.106671817600727,-0.0561939775943756,0.0,0.0,-0.7825933694839478,0.0649777650833129
-0.0250842086970806,1.2753452062606812,0.0106241190806031,-0.1073294579982757,0.1038092896342277,-0.0572505518794059,0.0,0.0,-0.7995229959487915,0.5939012765884399
-0.0249491687864065,1.2728185653686523,0.0179059542715549,-0.1119857728481292,0.0994397327303886,-0.0873909369111061,0.0,0.0,-0.8736034035682678,-0.0757431983947753
-0.0248144157230854,1.2701740264892578,0.0179287567734718,-0.1172505393624305,0.0950224921107292,-0.0883448719978332,0.0,0.0,-0.6999245285987854,-0.7404012680053711
-0.0247466079890728,1.2674081325531006,0.0096057765185832,-0.12275330722332,0.0922204330563545,-0.0560411624610424,0.0,0.0,-0.8438184857368469,-0.1808874607086181
-0.0246802326291799,1.264523983001709,0.0095116002485156,-0.1280172318220138,0.0893761813640594,-0.0568854138255119,0.0,0.0,-0.9052876830101012,0.6660819053649902
-0.0245721824467182,1.2615306377410889,0.0148367853835225,-0.1327999532222747,0.0853850916028022,-0.0798213630914688,0.0,0.0,-0.902665376663208,-0.4541031718254089
-0.0244663245975971,1.2584189176559448,0.0146448779851198,-0.1380646079778671,0.0813576653599739,-0.0805483907461166,0.0,0.0,-0.9481989145278932,0.6964734792709351
-0.0243062023073434,1.255197286605835,0.0215687379240989,-0.1428940743207931,0.0758549273014068,-0.110054574906826,0.0,0.0,-0.9694607257843018,-0.7616300582885742
-0.0242080688476562,1.251845121383667,0.0138836530968546,-0.1487869918346405,0.0718207135796547,-0.0806842148303985,0.0,0.0,-0.9065927267074584,0.2044113874435424
-0.024113368242979,1.248374581336975,0.0135811287909746,-0.1540517807006836,0.06775963306427,-0.0812217518687248,0.0,0.0,-0.941262423992157,-0.7597090601921082
-0.0240803714841604,1.2447888851165771,0.0059539275243878,-0.1592521071434021,0.0651313811540603,-0.052565187215805,0.0,0.0,-0.9350256323814392,0.178907036781311
-0.0240511894226074,1.2410846948623655,0.0056017879396677,-0.1645161807537078,0.0624829977750778,-0.052967894822359,0.0,0.0,-0.9084793329238892,0.4647022485733032
-0.0240257270634174,1.23726224899292,0.0052321357652544,-0.1697802692651748,0.0598179399967193,-0.0533009059727191,0.0,0.0,-0.6741603016853333,0.8846702575683594
-0.0239452365785837,1.2333227396011353,0.0122638000175356,-0.1749202311038971,0.0556548945605754,-0.0832608193159103,0.0,0.0,-0.9182552099227904,0.5142643451690674
-0.0238344185054302,1.2292704582214355,0.016187036409974,-0.1799294352531433,0.0506145022809505,-0.100808061659336,0.0,0.0,-0.982749879360199,-0.4414599537849426
-0.0237275119870901,1.225099802017212,0.0157937668263912,-0.185195118188858,0.0455682575702667,-0.1009246259927749,0.0,0.0,-0.973654568195343,-0.1497039794921875
-0.0236246101558208,1.220811128616333,0.0154020814225077,-0.1904608309268951,0.040519893169403,-0.1009673625230789,0.0,0.0,-0.9899925589561462,0.3989654779434204
-0.0235255248844623,1.2164044380187988,0.0150166768580675,-0.1957265436649322,0.0354730933904647,-0.1009358167648315,0.0,0.0,-0.9517550468444824,-0.0943650007247924
-0.0234301574528217,1.2118794918060305,0.014642204158008,-0.2009922713041305,0.0304316170513629,-0.1008298248052597,0.0,0.0,-0.9671251773834229,0.3216054439544678
-0.0233382228761911,1.2072365283966064,0.0142832649871706,-0.2062579989433288,0.0253991391509771,-0.1006494536995887,0.0,0.0,-0.9649817943572998,-0.0223277807235717
-0.0232496261596679,1.2024755477905271,0.0139444097876548,-0.2115237265825271,0.0203793980181217,-0.1003950461745262,0.0,0.0,-0.9878780245780944,-0.2628185749053955
-0.0231640823185443,1.197596311569214,0.0136301247403025,-0.2167894542217254,0.0153760248795151,-0.1000673621892929,0.0,0.0,-0.9870567321777344,-0.3585864305496216
-0.023081112653017,1.1925990581512451,0.0133448336273431,-0.2220551669597625,0.0103926667943596,-0.099667377769947,0.0,0.0,-0.9941638708114624,0.5574270486831665
-0.0229645725339651,1.1874902248382568,0.0175926052033901,-0.227040633559227,0.0045306524261832,-0.1172401458024978,0.0,0.0,-0.9953917860984802,-0.7195138931274414
-0.0229190830141305,1.1822550296783447,0.0087012853473424,-0.2326633781194687,0.0004339870938565,-0.0819336324930191,0.0,0.0,-0.98869788646698,0.0909299850463867
-0.0228750221431255,1.1769016981124878,0.0085287354886531,-0.2379283756017685,-0.0036322884261608,-0.0813255533576011,0.0,0.0,-0.990200698375702,0.0326020717620849
-0.0228318218141794,1.171430230140686,0.0084020812064409,-0.2431933432817459,-0.0076648755930364,-0.0806518793106079,0.0,0.0,-0.9874994158744812,-0.1179990172386169
-0.0227890964597463,1.16584050655365,0.008325315080583,-0.2484582513570785,-0.0116606280207633,-0.0799149572849273,0.0,0.0,-0.9943268299102784,0.0886549949645996
-0.0227460861206054,1.160132646560669,0.0083023216575384,-0.25372314453125,-0.0156164951622486,-0.0791172832250595,0.0,0.0,-0.9837884902954102,0.8697605133056641
-0.0226235389709472,1.1543048620224,0.0182229671627283,-0.2590838968753814,-0.021509738638997,-0.1178648024797439,0.0,0.0,-0.9953369498252868,-0.4089220762252807
-0.0224995613098144,1.1483590602874756,0.0183186717331409,-0.2643502950668335,-0.0273574162274599,-0.1169536709785461,0.0,0.0,-0.9979932904243468,-0.5011423230171204
-0.022407054901123,1.1422929763793943,0.0142645416781306,-0.2697030305862427,-0.032314121723175,-0.0991341546177864,0.0,0.0,-0.9772958755493164,-0.6289995908737183
-0.022349452599883,1.136110544204712,0.0097755892202258,-0.2748744189739227,-0.0362747907638549,-0.0792131870985031,0.0,0.0,-0.9961439967155457,0.474635362625122
-0.0222882274538278,1.1298094987869265,0.0100754899904131,-0.280139148235321,-0.0401825085282325,-0.0781546086072921,0.0,0.0,-0.9962198734283448,-0.7489582300186157
-0.0222824104130268,1.1233994960784912,0.0029638335108757,-0.2849606573581695,-0.0425304472446441,-0.0469586811959743,0.0,0.0,-0.9032371640205384,0.4477748870849609
-0.0222714431583881,1.116870999336243,0.0034155738539993,-0.2902244925498962,-0.0448212958872318,-0.0458172038197517,0.0,0.0,-0.9697301387786864,-0.1213095784187316
-0.0222545620054006,1.1102241277694702,0.0039474358782172,-0.2954882979393005,-0.0470532327890396,-0.0446388535201549,0.0,0.0,-0.9869734644889832,0.2834465503692627
-0.0222309119999408,1.1034587621688845,0.004562007728964,-0.3007520735263824,-0.0492245703935623,-0.0434266552329063,0.0,0.0,-0.988267421722412,-0.4876260161399841
-0.0221996307373046,1.096575140953064,0.0052616936154663,-0.3060158193111419,-0.0513337478041648,-0.0421835593879222,0.0,0.0,-0.9336365461349488,0.2110581398010254
-0.0221598632633686,1.0895729064941406,0.0060487110167741,-0.3112794756889343,-0.0533793643116951,-0.0409124307334423,0.0,0.0,-0.9678574204444884,-0.3906348943710327
-999.0,1.0824522972106934,0.0069250846281647,-0.3165431320667267,-0.0553601682186126,-0.0396160632371902,0.0,0.0,-0.9881886839866638,0.2178906202316284
-0.0220510475337505,1.0752133131027222,0.007892639376223,,-0.0572750307619571,-0.0382970869541168,0.0,0.0,-0.9626871943473816,-0.3312752246856689
-0.0219801906496286,1.0678558349609375,0.0089529985561966,-0.3270702660083771,-0.0591229349374771,-0.0369580313563346,0.0,0.0,-0.9743318557739258,-0.2234834432601928
-0.0218971259891986,1.060379981994629,0.0101075759157538,-0.3323337733745575,-0.0609029941260814,-0.0356012545526027,0.0,0.0,-0.9616283774375916,-0.3701657056808471
-0.0218008048832416,1.0527856349945068,0.0113575775176286,-0.3375972807407379,-0.0626144781708717,-0.0342290624976158,0.0,0.0,-0.8679017424583435,-0.2483311891555786
-0.0216903686523437,1.0450729131698608,0.0127039924263954,-0.3428607285022735,-0.0642566382884979,-0.0328435637056827,0.0,0.0,-0.9570621848106384,0.0276808738708496
-0.0215648654848337,1.0372416973114014,0.0141475992277264,-0.3481241464614868,-0.0658289715647697,-0.0314467661082744,0.0,0.0,-0.886309802532196,0.1522955894470214
-0.0214231498539447,1.0292918682098389,0.0156889539211988,-0.3533875644207001,-0.0673309937119484,-0.0300404764711856,0.0,0.0,-0.9819518327713012,-0.5991204380989075
-0.0213030818849802,1.0212312936782837,0.0124528193846344,-0.3582740128040313,-0.0677785202860832,-0.0089504588395357,0.0,0.0,-0.7641164064407349,-0.5457350015640259
-0.0212038997560739,1.013051152229309,0.0093134054914116,-0.3635289072990417,-0.0671803802251815,0.011962741613388,0.0,0.0,-0.8763943910598755,0.3762780427932739
-0.0210856441408395,1.0047527551651,0.0111492210999131,-0.3687921464443207,-0.0665110051631927,0.0133875980973243,0.0,0.0,-0.9464659690856934,0.0110917091369628
-0.0209473613649606,0.9963356852531432,0.013082874007523,-0.3740553855895996,-0.0657702088356018,0.0148158119991421,0.0,0.0,-0.9564836621284484,0.0715183019638061
-0.0207880027592182,0.9878002405166626,0.0151138585060834,-0.3793186247348785,-0.0649579092860221,0.0162461716681718,0.0,0.0,-0.8595371246337891,-0.4372905492782593
-0.0206066127866506,0.9791463613510132,0.0172414667904377,-0.3845818936824798,-0.0640740245580673,0.0176775828003883,0.0,0.0,-0.8984969854354858,0.2783098220825195
-0.0204023364931345,0.9703738689422609,0.0194647945463657,-0.3898451626300812,-0.063118577003479,0.0191090609878301,0.0,0.0,-0.9348445534706116,0.2832765579223633
-0.0201741214841604,0.9614829421043396,0.0217827353626489,-0.3951084315776825,-0.0620915926992893,0.0205397270619869,0.0,0.0,-0.9799931645393372,-0.1272666454315185
-0.0199210159480571,0.9524735808372498,0.0241940058767795,-0.4003717303276062,-0.0609931498765945,0.0219687968492507,0.0,0.0,-0.9388414621353148,-0.2685481905937195
-0.0196422580629587,0.9433457851409912,0.0266971439123153,-0.4056350588798523,-0.0598233640193939,0.0233955793082714,0.0,0.0,-0.8989351391792297,-0.2084711790084839
-0.0193368904292583,0.9340993762016296,0.0292905010282993,-0.4108984768390655,-0.0585823878645896,0.0248195063322782,0.0,0.0,-0.9508137106895448,0.0040106773376464
-0.0190037731081247,0.9247345328330994,0.0319722704589366,-0.416161835193634,-0.0572703853249549,0.0262400265783071,0.0,0.0,-0.951635718345642,-0.0841875076293945
-0.0186424255371093,0.9152514338493348,0.0347404927015304,-0.4214252233505249,-0.0558875501155853,0.0276567135006189,0.0,0.0,-0.8898206949234009,0.0342105627059936
-0.0182518009096384,0.9056496620178224,0.0375930443406105,-0.4266886413097381,-0.054434098303318,0.0290692336857318,0.0,0.0,-0.9093165397644044,0.3174723386764526
-0.0178310386836528,0.8959295153617859,0.0405276753008365,-0.4319520890712738,-0.0529102310538291,0.0304772406816482,0.0,0.0,-0.9811418652534484,-0.2348494529724121
-0.0173794738948345,0.8860909938812256,0.0435419902205467,-0.4372155964374542,-0.0513162091374397,0.0318805314600467,0.0,0.0,-0.9501460790634156,-0.4350416660308838
-0.0168962478637695,0.876133918762207,0.0466334708034992,-0.4424790740013122,-0.0496522709727287,0.0332788974046707,0.0,0.0,-0.8741604089736938,-0.1037013530731201
