x_pos,y_pos,x_vel,y_vel,angle,ang_vel,leg_1,leg_2,main_booster,lat_booster
-0.0015986443031579,1.4029581546783447,-0.1613966524600982,-0.3538646399974823,0.0013712657382711,0.02702022716403,0.0,0.0,-0.1611415147781372,0.9070490598678588
-0.003195381257683,1.3943487405776978,-0.1585937887430191,-0.3826388716697693,0.0003126546798739,-0.0211737789213657,0.0,0.0,0.2268004417419433,0.743910551071167
-0.0046964646317064,1.385517120361328,-0.1472549736499786,-0.3925131857395172,-0.0025089716073125,-0.0564379319548606,0.0,0.0,0.225405216217041,0.2394118309020996
-0.006359577178955,1.376575589179993,-0.1625879108905792,-0.3974150419235229,-0.0061943992041051,-0.0737153366208076,0.0,0.0,-0.2797167301177978,0.8504651784896851
-0.0080158235505223,1.3669700622558594,-0.1593916416168213,-0.4269565343856811,-0.0123583581298589,-0.1232902184128761,0.0,0.0,0.2674225568771362,0.8646841049194336
-0.0095520969480276,1.3573191165924072,-0.1453373730182647,-0.429021418094635,-0.0205513555556535,-0.1638752818107605,0.0,0.0,-0.170399010181427,0.4006161689758301
-0.0111618991941213,1.3470027446746826,-0.15225550532341,-0.4586457014083862,-0.029172845184803,-0.1724459081888198,0.0,0.0,0.2593315839767456,-0.0490781068801879
-0.0127164842560887,1.336755871772766,-0.1468636095523834,-0.4556114971637726,-0.0376763418316841,-0.1700861006975174,0.0,0.0,0.3056985139846802,0.2681230306625366
-0.0143284797668457,1.3268353939056396,-0.1521300375461578,-0.4411565661430359,-0.0466457568109035,-0.1794049441814422,0.0,0.0,0.2798769474029541,0.3981677293777466
-0.0159870143979787,1.3170932531356812,-0.1563755422830581,-0.4333079159259796,-0.0560331158339977,-0.1877643167972564,0.0,0.0,-0.3777154088020324,0.5833345651626587
-0.0176649093627929,1.3066823482513428,-0.1565648168325424,-0.4631609916687011,-0.067152664065361,-0.2224112451076507,0.0,0.0,-0.3159312009811401,0.5340182781219482
-0.0193671230226755,1.2956018447875977,-0.1574054807424545,-0.4930964112281799,-0.0798601508140564,-0.2541730999946594,0.0,0.0,-0.1669164299964904,0.6713759899139404
-0.0210757255554199,1.2838537693023682,-0.1560100018978119,-0.5230034589767456,-0.0945857539772987,-0.2945395112037658,0.0,0.0,-0.5812625288963318,0.1753792762756347
-0.0228541381657123,1.271442413330078,-0.1626273840665817,-0.5526387095451355,-0.1097021475434303,-0.3023556172847748,0.0,0.0,0.307098388671875,0.6479535102844238
-0.024456214159727,1.259319305419922,-0.143568143248558,-0.5401127338409424,-0.1262655705213546,-0.331298679113388,0.0,0.0,0.3539619445800781,-0.6734890937805176
-0.0260508544743061,1.2468796968460083,-0.143994003534317,-0.5542594194412231,-0.1416882574558258,-0.3084821999073028,0.0,0.0,0.3280324935913086,-0.8913982510566711
-0.0275592803955078,1.2347966432571411,-0.1369281262159347,-0.5384112596511841,-0.1555831730365753,-0.2779237627983093,0.0,0.0,-0.2749745845794678,-0.8511533141136169
-0.0291862487792968,1.2220547199249268,-0.1497524529695511,-0.5677074790000916,-0.1685441434383392,-0.2592428624629974,0.0,0.0,0.3060616254806518,-0.9218358993530272
-0.0307564735412597,1.2095924615859983,-0.1456709206104278,-0.5552123188972473,-0.1799443960189819,-0.228025883436203,0.0,0.0,-0.3858468532562256,-0.9099527597427368
-0.0324726104736328,1.1964871883392334,-0.1619915217161178,-0.5836514830589294,-0.1896197199821472,-0.1935239136219024,0.0,0.0,0.6488934755325317,-0.5696755647659302
-0.0340213775634765,1.1838010549545288,-0.1464264839887619,-0.5649305582046509,-0.1981277465820312,-0.1701761782169342,0.0,0.0,0.0996361970901489,-0.8784770369529724
-0.0356358513236045,1.17089581489563,-0.1544411182403564,-0.5745109915733337,-0.2051920145750045,-0.1412980556488037,0.0,0.0,0.7284879684448242,-0.9323817491531372
-0.0371209159493446,1.1581372022628784,-0.143295869231224,-0.567785918712616,-0.2104612439870834,-0.1053940802812576,0.0,0.0,-0.1149473786354065,-0.8254144191741943
-0.0387257561087608,1.14472234249115,-0.1564291417598724,-0.5968046188354492,-0.2145620286464691,-0.0820231363177299,0.0,0.0,0.611554741859436,-0.8587917685508728
-0.0404747948050498,1.131635308265686,-0.1720502972602844,-0.5820577144622803,-0.2174441069364547,-0.0576469488441944,0.0,0.0,0.7651381492614746,-0.928590714931488
-0.0423646941781044,1.1190483570098877,-0.1874601691961288,-0.5596491098403931,-0.2189817577600479,-0.0307528711855411,0.0,0.0,0.9460716247558594,-0.4509796500205993
-0.0441226959228515,1.1070470809936523,-0.1740688383579254,-0.5336443185806274,-0.2207430005073547,-0.0352245345711708,0.0,0.0,0.5243995189666748,0.0112648010253906
-0.0458889976143837,1.0955344438552856,-0.1741086095571518,-0.5120500326156616,-0.2232886701822281,-0.0509133450686931,0.0,0.0,0.7746274471282959,0.3039177656173706
-0.0476634018123149,1.0846199989318848,-0.1740883737802505,-0.4856034815311432,-0.2266907095909118,-0.0680406540632247,0.0,0.0,0.122899055480957,-0.5904078483581543
-0.0494789108633995,1.0735430717468262,-0.1791597455739975,-0.492676168680191,-0.2291175276041031,-0.0485366247594356,0.0,0.0,0.459665298461914,-0.2499720454216003
-0.0511612892150878,1.06288743019104,-0.1657459437847137,-0.4739674031734466,-0.2316352874040603,-0.0503551736474037,0.0,0.0,-0.0822179913520813,0.0909000635147094
-0.052894689142704,1.0515661239624023,-0.1707143485546112,-0.5035830736160278,-0.2342987358570099,-0.0532690212130546,0.0,0.0,0.6161864995956421,-0.4179983139038086
-0.0545739158987998,1.0407514572143557,-0.1648133695125579,-0.4811568856239319,-0.2374588698148727,-0.0632029175758361,0.0,0.0,0.275552749633789,-0.2181041836738586
-0.0562830939888954,1.0296940803527832,-0.1674839854240417,-0.491993248462677,-0.2409463375806808,-0.0697492286562919,0.0,0.0,0.3867858648300171,-0.1666052341461181
-0.0578990951180458,1.018733024597168,-0.1581551879644394,-0.4877302050590515,-0.244446188211441,-0.0699971169233322,0.0,0.0,-0.5698184967041016,-0.6533792614936829
-0.0596065521240234,1.0071287155151367,-0.1685139238834381,-0.5161178112030029,-0.2467132657766342,-0.045341994613409,0.0,0.0,0.8317360877990723,0.4311020374298095
-0.06126070022583,0.9956033825874328,-0.1630278378725052,-0.5126455426216125,-0.2491407543420791,-0.0485497936606407,0.0,0.0,0.8165202140808105,-0.5591832995414734
-0.0627469047904014,0.9846321940422058,-0.14746755361557,-0.487800657749176,-0.2503129839897156,-0.0234446860849857,0.0,0.0,0.707377552986145,-0.128445029258728
-0.0640943497419357,0.9742754697799684,-0.1334349662065506,-0.4605304896831512,-0.2516483068466186,-0.0267062224447727,0.0,0.0,-0.3744657039642334,-0.3932494521141052
-0.0654771775007247,0.963252067565918,-0.1370260268449783,-0.4901419281959533,-0.2529331147670746,-0.025696387514472,0.0,0.0,0.0915573835372924,-0.7464185953140259
-0.0668988227844238,0.952367901802063,-0.1424003392457962,-0.4837000072002411,-0.2526866197586059,0.0049297451041638,0.0,0.0,-0.8473269939422607,-0.5844023823738098
-0.0683870315551757,0.9408295154571532,-0.1500794142484665,-0.512597918510437,-0.251401424407959,0.0257036574184894,0.0,0.0,-0.9586938619613647,-0.3024064898490906
-0.0699036568403244,0.9286245703697203,-0.1530597358942031,-0.5422077775001526,-0.2499911487102508,0.0282059572637081,0.0,0.0,-0.9115729928016664,-0.8995060920715332
-0.0715043991804122,0.9157730937004088,-0.1630879193544387,-0.5706658959388733,-0.2469155937433242,0.0615107789635658,0.0,0.0,-0.9514538645744324,-0.4890153408050537
-0.0731288939714431,0.9022549390792848,-0.1656405627727508,-0.600275456905365,-0.2436680793762207,0.0649502351880073,0.0,0.0,-0.8978353142738342,-0.4239315986633301
-0.0747747421264648,0.8880699872970581,-0.167974591255188,-0.6298847794532776,-0.2402264177799224,0.0688335672020912,0.0,0.0,-0.7929465770721436,-0.6971492171287537
-0.0764882117509841,0.8732323050498962,-0.1761923730373382,-0.6586714386940002,-0.2353080213069915,0.0983679667115211,0.0,0.0,-0.5431036949157715,-0.0002256631851196
-0.0782182663679122,0.8577279448509216,-0.178083062171936,-0.6882811784744263,-0.2301539629697799,0.1030812412500381,0.0,0.0,-0.6449339985847473,-0.2206016778945922
-0.0799623504281044,0.8415569067001343,-0.1797499805688858,-0.7178907990455627,-0.2247450500726699,0.1081781759858131,0.0,0.0,-0.1593793630599975,-0.0029034614562988
-0.0817180648446083,0.8247190713882446,-0.1811926364898681,-0.7475004196166992,-0.2190632224082946,0.1136369332671165,0.0,0.0,0.2144254446029663,0.4322662353515625
-0.0832889527082443,0.8077948093414307,-0.1634780317544937,-0.7512512803077698,-0.2126036882400512,0.1291904747486114,0.0,0.0,0.5711067914962769,0.1371046304702758
-0.084772303700447,0.7912486791610718,-0.1547902524471283,-0.7344749569892883,-0.2060916572809219,0.1302408725023269,0.0,0.0,0.4919679164886474,0.6440508365631104
-0.0860230475664138,0.7745729088783264,-0.1307864636182785,-0.7403580546379089,-0.2003349959850311,0.1151333078742027,0.0,0.0,-0.2535311579704284,0.5898220539093018
-0.0872292518615722,0.7572218179702759,-0.1254961043596267,-0.7705116868019104,-0.1954317241907119,0.0980654805898666,0.0,0.0,0.5367867946624756,0.179415225982666
-0.0882113426923751,0.7398307919502258,-0.1040638536214828,-0.7721711993217468,-0.1895403414964676,0.1178275123238563,0.0,0.0,0.2716267108917236,0.4084291458129883
-0.0891948714852333,0.7223281860351562,-0.1042354106903076,-0.7771550416946411,-0.1836305111646652,0.1181963086128234,0.0,0.0,0.6302386522293091,0.7334790229797363
-0.0898722633719444,0.7052813768386841,-0.0727273076772689,-0.7570246458053589,-0.1786189973354339,0.1002299413084983,0.0,0.0,0.1015326976776123,0.3604426383972168
-0.0903722792863845,0.6882070899009705,-0.0558097660541534,-0.7581710815429688,-0.1728027015924453,0.1163259744644165,0.0,0.0,0.1466732025146484,0.2934355735778808
-0.0907141715288162,0.671297013759613,-0.0406150929629802,-0.7508189082145691,-0.1663583517074585,0.1288871318101883,0.0,0.0,-0.0698156952857971,0.4465399980545044
-0.0910449996590614,0.6537204384803772,-0.0399202294647693,-0.7804292440414429,-0.1595176756381988,0.1368138194084167,0.0,0.0,-0.0201237797737121,0.3438628911972046
-0.0913627594709396,0.6354775428771973,-0.039033617824316,-0.8100401163101196,-0.1522732228040695,0.1448895037174224,0.0,0.0,0.7524716854095459,0.6115832328796387
-0.0916178673505783,0.617689311504364,-0.0316575095057487,-0.7899712920188904,-0.1461282968521118,0.1228983253240585,0.0,0.0,0.7475746870040894,-0.0147348046302795
-0.0916471481323242,0.6000178456306458,-0.0101169254630804,-0.7847095131874084,-0.1389623582363128,0.1433189660310745,0.0,0.0,0.3899950981140136,0.5031193494796753
-0.0915258377790451,0.5824341177940369,0.0054760733619332,-0.7808942794799805,-0.1323269605636596,0.1327077895402908,0.0,0.0,0.6499804258346558,0.0856786966323852
-0.0913235694169998,0.5647776126861572,0.0130934733897447,-0.7841158509254456,-0.1252281218767166,0.141976460814476,0.0,0.0,0.4770009517669678,0.5190951824188232
-0.0911108031868934,0.5472559928894043,0.0150523902848362,-0.7782288193702698,-0.1190326958894729,0.1239086836576461,0.0,0.0,0.7868316173553467,0.181828498840332
-0.0907414406538009,0.5304424166679382,0.0301576592028141,-0.7467468976974487,-0.112293891608715,0.134776085615158,0.0,0.0,0.7622227668762207,0.0490307807922363
-0.0902249366044998,0.5134127140045166,0.0440090969204902,-0.7563179135322571,-0.104710429906845,0.1516694277524948,0.0,0.0,0.5646686553955078,0.3391046524047851
-0.0895718559622764,0.4969190657138824,0.0570931509137153,-0.7324974536895752,-0.0965655595064163,0.1628976166248321,0.0,0.0,0.7056812047958374,0.2059394121170044
-0.0889404267072677,0.4805031716823578,0.0549293980002403,-0.7290884852409363,-0.0884241089224815,0.1628293246030807,0.0,0.0,0.6621828079223633,-0.1618129014968872
-0.0883115753531456,0.464451402425766,0.0546459481120109,-0.7129462361335754,-0.0802612677216529,0.1632569134235382,0.0,0.0,0.7159519195556641,0.4185868501663208
-0.0875685662031173,0.4486964643001556,0.0654586628079414,-0.6997699737548828,-0.0714994743466377,0.1752358078956604,0.0,0.0,0.6986048221588135,0.3611352443695068
-0.0868638008832931,0.4335891902446747,0.061781745404005,-0.6710469722747803,-0.0628969743847847,0.1720496714115142,0.0,0.0,0.4685490131378174,0.7263256311416626
-0.0859643965959549,0.4185722470283508,0.0821184143424034,-0.6671105027198792,-0.0551593899726867,0.1547517478466034,0.0,0.0,0.0387836694717407,0.0574276447296142
-0.0850386619567871,0.4032595455646515,0.0843804255127906,-0.6802831888198853,-0.0470627732574939,0.1619320958852768,0.0,0.0,0.867039680480957,0.1228848695755004
-0.0839839950203895,0.3878262639045715,0.0964471474289894,-0.6856661438941956,-0.038152027875185,0.178214818239212,0.0,0.0,0.8748137950897217,0.2859630584716797
-0.0829146355390548,0.3723069429397583,0.0976146012544632,-0.689536988735199,-0.0289470665156841,0.1840994507074356,0.0,0.0,0.7674741744995117,0.5447274446487427
-0.0817503929138183,0.3573980629444122,0.1077599376440048,-0.6624755859375,-0.0203900262713432,0.1711407154798507,0.0,0.0,0.6191478967666626,0.6294980049133301
-0.0803973227739334,0.3430247902870178,0.1272347122430801,-0.6387240290641785,-0.0124255055561661,0.1592905223369598,0.0,0.0,0.8726427555084229,0.5698593854904175
-0.0790849700570106,0.3293828666210174,0.1242274865508079,-0.6062676906585693,-0.0055075525306165,0.1383590400218963,0.0,0.0,0.367068886756897,0.7143909931182861
-0.0777948349714279,0.3154792785644531,0.1231631860136985,-0.6179230809211731,0.0002641799801494,0.1154346689581871,0.0,0.0,0.8683555126190186,0.673985481262207
-0.0763628035783767,0.3022568523883819,0.1381165087223053,-0.5876721143722534,0.005282259080559,0.1003616228699684,0.0,0.0,0.7349419593811035,0.6765375137329102
-0.0749556571245193,0.2892744541168213,0.1367876827716827,-0.5770156979560852,0.0091553479433059,0.077461652457714,0.0,0.0,0.8748595714569092,0.4731143712997436
-0.0735771209001541,0.2767789363861084,0.1337524652481079,-0.555388331413269,0.0132075557485222,0.081044428050518,0.0,0.0,0.4215085506439209,0.3368207216262817
-0.0721755996346473,0.2645196914672851,0.1356223970651626,-0.544904351234436,0.0176797285676002,0.0894431918859481,0.0,0.0,0.6098259687423706,0.0946885347366333
-0.0706575363874435,0.2524470090866089,0.1464055180549621,-0.5366359949111938,0.0230129268020391,0.1066641062498092,0.0,0.0,0.4043190479278564,-0.350688636302948
-0.0690840706229209,0.2401456236839294,0.1513810902833938,-0.5468301177024841,0.028907848522067,0.1178981661796569,0.0,0.0,0.8029509782791138,-0.1848425865173339
-0.0673796683549881,0.2278419286012649,0.1635153144598007,-0.5469794869422913,0.035739965736866,0.1366423219442367,0.0,0.0,0.8032922744750977,-0.1529923677444458
-0.0654944404959678,0.2158159166574478,0.1803732514381408,-0.5347061157226562,0.0437842719256877,0.1608864068984985,0.0,0.0,0.8735129833221436,-0.2319357395172119
-0.0634281188249588,0.2038054019212722,0.1972809433937072,-0.5340986251831055,0.0530294813215732,0.1849039494991302,0.0,0.0,0.9565476179122924,-0.5397793650627136
-0.0614158622920513,0.1924628764390945,0.1903436928987503,-0.5045303106307983,0.0637971088290214,0.2153524458408355,0.0,0.0,0.8194286823272705,-0.1114084124565124
-0.0593795776367187,0.1817098706960678,0.1921084970235824,-0.4784392714500427,0.0751925110816955,0.2279082089662552,0.0,0.0,0.641768217086792,-0.4825395941734314
-0.0572264678776264,0.1712984591722488,0.2027517110109329,-0.4634071886539459,0.0876307934522628,0.2487656325101852,0.0,0.0,0.3610905408859253,-0.5875692963600159
-0.0550090782344341,0.1606252789497375,0.2073506861925125,-0.4752709567546844,0.1019005998969078,0.2853961288928985,0.0,0.0,0.5250303745269775,-0.2557967901229858
-0.0528444275259971,0.1499831229448318,0.2018409073352813,-0.4740429222583771,0.1164167448878288,0.2903226912021637,0.0,0.0,0.7458624839782715,0.8962388038635254
-0.050574205815792,0.1400767713785171,0.2135900259017944,-0.4413873255252838,0.1297729164361953,0.2671236395835876,0.0,0.0,0.5259249210357666,0.516790509223938
-0.0483113303780555,0.1302922070026397,0.2135112732648849,-0.436029702425003,0.1425082832574844,0.2547072172164917,0.0,0.0,0.6396809816360474,0.5317285060882568
-0.0462071411311626,0.1210021823644638,0.1986050903797149,-0.4140644967556,0.1542976200580597,0.2357864677906036,0.0,0.0,0.8286786079406738,-0.5461402535438538
-0.0441204085946083,0.1122102588415145,0.1950397491455078,-0.3922249376773834,0.167937085032463,0.272788941860199,0.0,0.0,0.4709515571594238,0.0748157501220703
-0.0421496406197547,0.1037315428256988,0.1832240372896194,-0.3784590065479278,0.1818272024393081,0.2778021395206451,0.0,0.0,0.5596568584442139,0.5223591327667236
-0.0403064712882041,0.0956251248717308,0.1712865680456161,-0.3619395196437835,0.1949209123849868,0.26187464594841,0.0,0.0,0.4327468872070312,0.7326910495758057
-0.0384711250662803,0.0874986052513122,0.1715655028820037,-0.3627999722957611,0.2069769501686096,0.2411207258701324,0.0,0.0,0.8444685935974121,0.3889086246490478
-0.0368593223392963,0.0796544626355171,0.1493758708238601,-0.3503271639347076,0.2189016044139862,0.2384928166866302,0.0,0.0,0.9340124130249025,0.8439809083938599
-0.0354618057608604,0.0720017999410629,0.1295645534992218,-0.3416634798049927,0.2292091846466064,0.2061514854431152,0.0,0.0,0.945062518119812,0.8156826496124268
-0.0340209007263183,0.0649943649768829,0.1348151266574859,-0.3129138350486755,0.2386270761489868,0.1883575916290283,0.0,0.0,0.9111799001693726,0.6753706932067871
-0.0325128547847271,0.0579855069518089,0.1422256529331207,-0.3129177391529083,0.2473469823598861,0.1743980795145034,0.0,0.0,0.9256974458694458,0.280055284500122
-0.031018067151308,0.0516684390604496,0.1396900117397308,-0.2824362218379974,0.2573192119598388,0.1994446665048599,0.0,0.0,0.774875283241272,0.3016893863677978
-0.0297192577272653,0.0458880290389061,0.1197758466005325,-0.2587151229381561,0.2676477432250976,0.2065703868865966,0.0,0.0,0.8418611288070679,0.6592839956283569
-0.0284189227968454,0.0409183613955974,0.1204036474227905,-0.2226686179637909,0.2775228321552276,0.1975018680095672,0.0,0.0,0.2918295860290527,-0.2651745080947876
-0.0271464344114065,0.0359637103974819,0.1169223636388778,-0.2222030311822891,0.2881429493427276,0.2124024927616119,0.0,0.0,0.0442014932632446,-0.0330621600151062
-0.0259865764528512,0.0310863833874464,0.1052549630403518,-0.2189333438873291,0.2992105185985565,0.2213519811630249,0.0,1.0,0.9948277473449708,0.9931011199951172
-0.0249984748661518,0.027986966073513,0.1069734245538711,-0.136364534497261,0.2901292741298675,-0.1825980246067047,0.0,1.0,0.9109095335006714,0.8803492784500122
-0.0241031646728515,0.0258615836501121,0.1173099055886268,-0.0892175287008285,0.2615450322628021,-0.5717800259590149,0.0,1.0,0.3851610422134399,-0.3661487102508545
-0.0235038753598928,0.0242968183010816,0.0994669198989868,-0.0630138218402862,0.2212724834680557,-0.8055402040481567,0.0,1.0,0.4826067686080932,-0.8246721029281616
-0.0231654159724712,0.0226614568382501,0.0706852972507476,-0.0675884261727333,0.1841281503438949,-0.7428868412971497,0.0,1.0,0.3909460306167602,-0.2781767249107361
-0.0229339599609375,0.0210727304220199,0.0603331215679645,-0.0664190724492073,0.1469038128852844,-0.7444877028465271,0.0,0.0,-0.9578033685684204,-0.5175026059150696
-0.0227046012878417,0.018826613202691,0.0588550493121147,-0.0966732054948806,0.1111409962177276,-0.7152568101882935,0.0,0.0,-0.6433177590370178,-0.9016368985176086
-0.0224936492741107,0.0159135907888412,0.0552553534507751,-0.1272779554128646,0.0772596076130867,-0.6776278614997864,0.0,0.0,-0.1193875074386596,-0.9478967785835266
-0.0223094932734966,0.0123460385948419,0.0506058409810066,-0.1572076380252838,0.0454274378716945,-0.6366437077522278,0.0,0.0,0.8652223348617554,-0.8276709318161011
-0.0221653934568166,0.0094951726496219,0.0444400459527969,-0.126061126589775,0.0157702360302209,-0.5931440591812134,0.0,0.0,0.6591253280639648,-0.8875629901885986
-0.0219895355403423,0.0064489338546991,0.0452615544199943,-0.1353217661380767,-0.0115468315780162,-0.5463413000106812,0.0,0.0,0.8809065818786621,-0.8489176034927368
