x_pos,y_pos,x_vel,y_vel,angle,ang_vel,leg_1,leg_2,main_booster,lat_booster
-0.0015618323814123,1.403045415878296,-0.1586310565471649,-0.3499923050403595,0.0021887884940952,0.0432073287665843,0.0,0.0,0.4142463426406533,0.6352891484613207
-0.0030643462669104,1.3952040672302246,-0.1516357064247131,-0.3485040366649627,0.0035624310839921,0.0274763219058513,0.0,0.0,-0.4627871141347797,0.8752344837115809
-0.0045207976363599,1.3867770433425903,-0.1452896296977996,-0.3745321929454803,0.0032109071034938,-0.0070309401489794,0.0,0.0,-0.3297988310597464,-0.0291119340270405
-0.006015014834702,1.3777707815170288,-0.1494565159082412,-0.4002751111984253,0.0032485725823789,0.0007532915333285,0.0,0.0,0.142192186892333,-0.4002330839701102
-0.0074589727446436,1.3688621520996094,-0.1452614814043045,-0.3959435224533081,0.0041005746461451,0.0170416459441185,0.0,0.0,0.613255466352713,-0.0363762617270168
-0.0088084219023585,1.3601704835891724,-0.1368446350097656,-0.3863014280796051,0.0059801004827022,0.0375940799713134,0.0,0.0,0.6145133345430951,-0.8498322585579364
-0.0102897640317678,1.351745367050171,-0.1520811170339584,-0.374468982219696,0.0098856361582875,0.0781178101897239,0.0,0.0,-0.0483328926237276,-0.7569861092748857
-0.011852741241455,1.342742919921875,-0.1617776006460189,-0.4001551568508148,0.0153040522709488,0.1083781868219375,0.0,0.0,-0.2389230975437821,-0.8177244117053835
-0.0135180475190281,1.3331693410873413,-0.1740651130676269,-0.4255854487419128,0.0227582585066556,0.1490978896617889,0.0,0.0,-0.4208990160001009,-0.9420342839277712
-0.0152938840910792,1.3230209350585938,-0.1874006986618042,-0.4512125253677368,0.0324635580182075,0.194124087691307,0.0,0.0,0.4226150179590151,-0.8159730229790747
-0.0171031951904296,1.3130640983581543,-0.1928810179233551,-0.4428261816501617,0.044288270175457,0.2365161478519439,0.0,0.0,0.2456027281786788,-0.3151625432538438
-0.0189123153686523,1.3031303882598877,-0.1935043036937713,-0.4419121742248535,0.0567450895905494,0.2491593360900879,0.0,0.0,0.0620432355409441,-0.5151850718808803
-0.0207304004579782,1.2933006286621094,-0.1959734261035919,-0.4374741315841675,0.0707775801420211,0.28067547082901,0.0,0.0,-0.5462860483930296,0.667608611537724
-0.0225242618471384,1.2828943729400637,-0.1924360543489456,-0.4631660580635071,0.0837106257677078,0.2586848735809326,0.0,0.0,0.7375709182742114,-0.1151481838877979
-0.0242768283933401,1.2732264995574951,-0.1893743127584457,-0.4305348396301269,0.0977189615368843,0.2801924645900726,0.0,0.0,-0.3844448644878677,-0.0434132908278441
-0.0260629653930664,1.2629822492599487,-0.1930842846632003,-0.4563072323799133,0.1120997592806816,0.2876421213150024,0.0,0.0,-0.0664558913071728,-0.7162429317015337
-0.027925968170166,1.252163648605347,-0.2022250890731811,-0.4821055829524994,0.1279487013816833,0.3170076906681061,0.0,0.0,-0.7393861749529191,-0.3883501045949783
-0.0298213958740234,1.240769624710083,-0.2057938873767852,-0.5078739523887634,0.1441656649112701,0.3243689239025116,0.0,0.0,0.1461110333576503,0.6864702279837386
-0.0317000374197959,1.2296613454818726,-0.203169897198677,-0.4952479898929596,0.1594693660736084,0.3061020076274872,0.0,0.0,-0.029704695250118,-0.0601988134556155
-0.0336092934012413,1.2179776430130005,-0.2065615206956863,-0.5210238695144653,0.1751366406679153,0.3133731782436371,0.0,0.0,-0.6149121787263594,-0.7536609172985137
-0.0355953201651573,1.2057123184204102,-0.2157232761383056,-0.5472354888916016,0.1923496425151825,0.3442913293838501,0.0,0.0,0.7040821661104175,0.8285251710764636
-0.0376195907592773,1.193562150001526,-0.2182275056838989,-0.5421385169029236,0.2082831710577011,0.3186990916728973,0.0,0.0,-0.2539489057757582,0.5714568389519286
-0.0396179184317588,1.1808526515960691,-0.2145494520664215,-0.5670021176338196,0.2231745719909668,0.2978542745113373,0.0,0.0,0.7380666455794314,0.5717713130836991
-0.0415936484932899,1.1680829524993896,-0.2116712033748626,-0.5697289109230042,0.2374758720397949,0.2860516905784607,0.0,0.0,-0.6477232215149822,-0.5359472078598148
-0.0436458587646484,1.1547211408615112,-0.2209096699953079,-0.5964715480804443,0.2534558773040771,0.3196294605731964,0.0,0.0,0.0448015044319327,-0.0547953893461365
-0.0459193214774131,1.1413756608963013,-0.24290831387043,-0.5959033966064453,0.2693490386009216,0.3178631961345672,0.0,0.0,0.0874293792097409,0.1187528538790633
-0.0483400337398052,1.1281477212905884,-0.2578974068164825,-0.590901792049408,0.2855888605117798,0.3247961401939392,0.0,0.0,-0.2247773589185158,-0.203399775805169
-0.0507818236947059,1.1143454313278198,-0.2602383196353912,-0.6166711449623108,0.3021575212478637,0.331373393535614,0.0,0.0,0.39541404744502,0.8740038007967709
-0.0534927360713481,1.1008870601654053,-0.2855584025382995,-0.601229727268219,0.317137598991394,0.2996021509170532,0.0,0.0,-0.9766253588079996,0.7757810337755124
-0.056164838373661,1.0868781805038452,-0.2804336249828338,-0.6255730986595154,0.3309085965156555,0.2754198908805847,0.0,0.0,0.7378480101304326,0.9839324857773571
-0.0590505599975585,1.073615789413452,-0.3001202344894409,-0.5921300053596497,0.3429915904998779,0.2416593581438064,0.0,0.0,-0.6014382839202881,0.9862043857574464
-0.0618851669132709,1.0598058700561523,-0.293592244386673,-0.6162179112434387,0.35362109541893,0.2125901728868484,0.0,0.0,-0.3165680170059204,0.99269700050354
-0.064670942723751,1.045462965965271,-0.2872633337974548,-0.6396211385726929,0.3627718687057495,0.1830157190561294,0.0,0.0,-0.181661307811737,0.9686574935913086
-0.0674010291695594,1.0305713415145874,-0.2802516520023346,-0.6637060046195984,0.3704335391521454,0.1532332599163055,0.0,0.0,-0.3536569476127624,0.9753684997558594
-0.0700662583112716,1.0151469707489014,-0.2720568776130676,-0.6869720220565796,0.3763011991977691,0.1173538342118263,0.0,0.0,-0.584155261516571,0.9698442220687866
-0.0726662650704383,0.9991950988769532,-0.2638249099254608,-0.7099895477294922,0.3803604245185852,0.0811844021081924,0.0,0.0,-0.4578864574432373,0.8560731410980225
-0.0752094238996505,0.9826971888542176,-0.2567735016345978,-0.7339057922363281,0.3829840123653412,0.052471499890089,0.0,0.0,-0.6441287398338318,0.9964513778686525
-0.0776790603995323,0.9656748175621032,-0.2475923299789428,-0.7567141652107239,0.3836469650268554,0.013259214349091,0.0,0.0,-0.7233469486236572,0.9972680807113647
-0.0800835639238357,0.9481257200241088,-0.2394542694091797,-0.7796925902366638,0.3825937807559967,-0.0210637766867876,0.0,0.0,-0.5853977799415588,0.990939736366272
-0.082410529255867,0.9300453066825868,-0.2298797070980072,-0.8028210997581482,0.379605621099472,-0.0597636513411998,0.0,0.0,-0.4447941780090332,0.999692678451538
-0.0846752151846885,0.9114306569099426,-0.2222369611263275,-0.8262004852294922,0.3751024901866913,-0.0900625362992286,0.0,0.0,-0.0763993859291076,0.9994058609008788
-0.0868452042341232,0.8922878503799438,-0.2105734348297119,-0.849118173122406,0.3682968914508819,-0.136111706495285,0.0,0.0,0.4140797853469848,0.999908685684204
-0.0889381393790245,0.8730271458625793,-0.2011269629001617,-0.8539581298828125,0.3596587479114532,-0.1727630048990249,0.0,0.0,0.8259570598602295,0.999975085258484
-0.0910380333662033,0.8541135191917419,-0.2001220434904098,-0.8381656408309937,0.3492784202098846,-0.2076059281826019,0.0,0.0,0.6496533155441284,0.9996011257171632
-0.0931932479143142,0.8350430727005005,-0.203750804066658,-0.8447625637054443,0.3369351029396057,-0.2468664348125457,0.0,0.0,0.8844369649887085,0.9999920129776
-0.0953294783830642,0.8159942030906677,-0.200026586651802,-0.8435071110725403,0.322746604681015,-0.2837698459625244,0.0,0.0,0.8206138610839844,0.9997352361679076
-0.0974597930908203,0.7971379160881042,-0.1975946426391601,-0.8346923589706421,0.3067109286785126,-0.3207133114337921,0.0,0.0,0.7961940765380859,0.9999240636825562
-0.0999052077531814,0.7789868712425232,-0.2269086092710495,-0.803104817867279,0.2885061204433441,-0.3640959560871124,0.0,0.0,-0.1265722513198852,0.9996542930603028
-0.1022755652666091,0.7602959871292114,-0.2178088426589965,-0.8270277380943298,0.2687529027462005,-0.3950643837451935,0.0,0.0,-0.5124635100364685,0.9873611927032472
-0.1045539826154708,0.7410585880279541,-0.2066249549388885,-0.85124671459198,0.247095450758934,-0.4331493973731994,0.0,0.0,-0.5318994522094727,0.9851233959197998
-0.1067184433341026,0.7212840914726257,-0.1927032172679901,-0.8750607371330261,0.2229763865470886,-0.4823812544345855,0.0,0.0,0.3707671165466308,0.9746643304824828
-0.1089762672781944,0.7018460035324097,-0.1998946964740753,-0.8602061867713928,0.1968371719121933,-0.5227845311164856,0.0,0.0,-0.6335799098014832,0.9196856021881104
-0.1111265197396278,0.6818587183952332,-0.1867822557687759,-0.8848178386688232,0.1684797257184982,-0.5671493411064148,0.0,0.0,0.4559727907180786,-0.0170705318450927
-0.1133678406476974,0.6623429656028748,-0.1957082152366638,-0.8643916249275208,0.1400757879018783,-0.5680783987045288,0.0,0.0,0.312382698059082,0.3125545978546142
-0.1155208572745323,0.6428584456443787,-0.1872265189886093,-0.8635804057121277,0.1121395081281662,-0.5587255954742432,0.0,0.0,-0.1669363975524902,0.5261454582214355
-0.1176123619079589,0.6228086352348328,-0.1800103336572647,-0.8891602158546448,0.0832211971282959,-0.5783664584159851,0.0,0.0,0.9870586395263672,0.9791302680969238
-0.119554802775383,0.6036588549613953,-0.1631442010402679,-0.849667489528656,0.0524487718939781,-0.6154490113258362,0.0,0.0,0.9606175422668456,-0.9794742465019226
-0.1214068382978439,0.5851523876190186,-0.1562118977308273,-0.8217414617538452,0.023797845467925,-0.5730187892913818,0.0,0.0,0.8987326622009277,-0.8853888511657715
-0.1232275962829589,0.5675058960914612,-0.1548623740673065,-0.7840736508369446,-0.0030705309472978,-0.5373674631118774,0.0,0.0,0.7451850175857544,0.436363935470581
-0.125095933675766,0.5505355596542358,-0.1590594947338104,-0.7545227408409119,-0.0304847341030836,-0.5482844114303589,0.0,0.0,-0.1566078066825866,0.0073561668395996
-0.1269329041242599,0.5329961180686951,-0.1557668000459671,-0.7803266644477844,-0.058089081197977,-0.552087128162384,0.0,0.0,0.3615396022796631,-0.059614360332489
-0.1287868469953537,0.5157609581947327,-0.1569062322378158,-0.76735520362854,-0.0862815082073211,-0.5638487935066223,0.0,0.0,-0.3901944160461426,-0.8378862738609314
-0.1306606233119964,0.4979616403579712,-0.1600742638111114,-0.7928775548934937,-0.1133681461215019,-0.541732907295227,0.0,0.0,0.2064753770828247,-0.9734033346176147
-0.1325067579746246,0.4802707731723785,-0.1591008901596069,-0.7883922457695007,-0.1387431919574737,-0.5075012445449829,0.0,0.0,0.7885684967041016,-0.9794344305992126
-0.1343270242214203,0.4626607596874237,-0.1583180725574493,-0.7850454449653625,-0.1623986959457397,-0.4731107652187347,0.0,0.0,-0.17581307888031,-0.9952638149261476
-0.1362063437700271,0.4445023536682129,-0.1664614826440811,-0.8095266819000244,-0.1839119344949722,-0.430264949798584,0.0,0.0,0.9363551139831544,-0.9912198185920716
-0.1379156112670898,0.4272754192352295,-0.1512892395257949,-0.7681987881660461,-0.2036559879779815,-0.3948811590671539,0.0,0.0,0.9828460216522216,-0.9883289933204652
-0.139489933848381,0.4099692106246948,-0.1397458761930465,-0.7716977596282959,-0.2215199917554855,-0.3572801649570465,0.0,0.0,0.9984475374221802,-0.9940775632858276
-0.1408415734767913,0.3936246931552887,-0.1192936673760414,-0.7288868427276611,-0.2376047521829605,-0.3216947913169861,0.0,0.0,0.9938473701477052,-0.9839038252830504
-0.1422215402126312,0.3776054680347442,-0.1236228793859481,-0.7143542170524597,-0.2522248923778534,-0.2924035787582397,0.0,0.0,0.9980188608169556,-0.9990988373756408
-0.1435561180114746,0.3622796237468719,-0.1206100434064865,-0.68341064453125,-0.265338122844696,-0.2622646987438202,0.0,0.0,0.995955228805542,-0.998911678791046
-0.144693374633789,0.3474824726581573,-0.1026608720421791,-0.6596946120262146,-0.2766768932342529,-0.2267755568027496,0.0,0.0,0.9945378303527832,-0.9972932934761048
-0.1457552909851074,0.3336935639381408,-0.0965362265706062,-0.6147009134292603,-0.2865948677062988,-0.1983596533536911,0.0,0.0,0.9967119693756104,-0.985166609287262
-0.1465638130903244,0.3203230798244476,-0.0730016008019447,-0.5958034992218018,-0.2946777939796448,-0.161658838391304,0.0,0.0,0.9968655109405518,-0.9994044899940492
-0.1473186463117599,0.3071005046367645,-0.0692178532481193,-0.5889530777931213,-0.3011496067047119,-0.1294359266757965,0.0,0.0,0.9869887828826904,-0.9999597072601318
-0.1479117423295974,0.2938451766967773,-0.0548218786716461,-0.5900631546974182,-0.3057925403118133,-0.0928584709763526,0.0,0.0,0.9979650974273682,-0.9945690631866456
-0.1484616249799728,0.280644416809082,-0.0520512871444225,-0.5873210430145264,-0.3088396191596985,-0.060941495001316,0.0,0.0,0.9890477657318116,-0.998071551322937
-0.1487681418657302,0.2682801485061645,-0.0293128546327352,-0.5498067140579224,-0.3102156221866607,-0.0275198332965374,0.0,0.0,0.9985353946685792,-0.9498578906059264
-0.14870385825634,0.2567420601844787,0.0060409186407923,-0.5127207636833191,-0.3098132610321045,0.0080474410206079,0.0,0.0,0.980981707572937,-0.9968283772468568
-0.148518368601799,0.2461399585008621,0.0167764760553836,-0.4708279371261596,-0.3079745471477508,0.0367740020155906,0.0,0.0,0.9214673042297364,-0.9727818369865416
-0.1484129875898361,0.2356120496988296,0.0074663050472736,-0.4672589898109436,-0.3047999143600464,0.0634925216436386,0.0,0.0,0.8794755935668945,-0.9791341423988342
-0.1480235159397125,0.2258134633302688,0.0342285148799419,-0.4345103502273559,-0.2999123036861419,0.0977520272135734,0.0,0.0,0.3120750188827514,-0.9373995065689088
-0.147620677947998,0.2161663919687271,0.0341041013598442,-0.4275017976760864,-0.2935400605201721,0.1274449229240417,0.0,0.0,-0.1559484004974365,-0.9441573619842528
-0.1472572386264801,0.2059812098741531,0.0284891314804554,-0.4511114060878753,-0.2854438722133636,0.1619239449501037,0.0,0.0,0.7734286785125732,-0.825322151184082
-0.1467197388410568,0.1963370591402053,0.0446218773722648,-0.4268715679645538,-0.2760705053806305,0.1874672621488571,0.0,0.0,-0.1564713716506958,-0.8317652344703674
-0.1461984664201736,0.1861395239830017,0.0419473573565483,-0.4513371288776397,-0.2656333744525909,0.2087427675724029,0.0,0.0,0.534975528717041,-0.1697180271148681
-0.1455345153808593,0.1758170872926712,0.0564512126147747,-0.4570038020610809,-0.255475252866745,0.2031626403331756,0.0,0.0,0.5983736515045166,0.0066120624542236
-0.1446475088596344,0.1654494553804397,0.0787081345915794,-0.4590753316879272,-0.2452848553657531,0.2038081884384155,0.0,0.0,0.7775970697402954,0.2396647930145263
-0.1434196531772613,0.1553416103124618,0.1124071031808853,-0.4475401639938354,-0.2347469925880432,0.2107575833797454,0.0,0.0,0.657346248626709,-0.0580211281776428
-0.1419259011745453,0.1451857686042785,0.138718768954277,-0.4497118294239044,-0.2239485532045364,0.2159687578678131,0.0,0.0,0.3107895851135254,-0.6504645347595215
-0.1403160095214843,0.1353485733270645,0.1493986696004867,-0.4354907274246216,-0.2122321873903274,0.2343277037143707,0.0,0.0,0.2088342905044555,0.3160980939865112
-0.1385292112827301,0.1257418245077133,0.1673509925603866,-0.4253815710544586,-0.2008001059293747,0.2286416590213775,0.0,0.0,0.4987680912017822,-0.5800712704658508
-0.1365082710981369,0.116427481174469,0.1896775811910629,-0.4123364686965942,-0.1883096396923065,0.2498089075088501,0.0,0.0,0.2873835563659668,0.0933022499084472
-0.1343246400356292,0.1068897545337677,0.2059504091739654,-0.4223726987838745,-0.1758470237255096,0.2492518872022628,0.0,0.0,0.4099984169006347,-0.8782588839530945
-0.1321456879377365,0.0974469482898712,0.2041320353746414,-0.4181104004383087,-0.1620714962482452,0.275511085987091,0.0,0.0,0.777930498123169,-0.5479286313056946
-0.1297252625226974,0.0887962877750396,0.2272899150848388,-0.3829283118247986,-0.147321417927742,0.2950015068054199,0.0,0.0,0.7969698905944824,-0.8574880957603455
-0.1272706985473632,0.0805096924304962,0.2293833792209625,-0.3667812645435333,-0.1313016414642334,0.3203954398632049,0.0,0.0,0.7391774654388428,-0.6983184814453125
-0.1248640045523643,0.0729386433959007,0.2238767147064209,-0.3350988626480102,-0.1145964488387107,0.3341040015220642,0.0,0.0,0.731203556060791,-0.7350848317146301
-0.1222944259643554,0.0658792853355407,0.2388429194688797,-0.3124594390392303,-0.0966087505221366,0.359753668308258,0.0,0.0,0.8514772653579712,-0.8619447946548462
-0.1197391524910926,0.0595268122851848,0.2361643016338348,-0.2811953723430633,-0.0774216949939727,0.3837414681911468,0.0,0.0,0.8439878225326538,-0.1606246829032898
-0.1171736717224121,0.0538607686758041,0.2379881888628006,-0.250965803861618,-0.0590584725141525,0.3672643601894378,0.0,0.0,0.7548189163208008,-0.3091808557510376
-0.1145659461617469,0.0484145246446132,0.2427243739366531,-0.2414372712373733,-0.0412145666778087,0.3568780124187469,0.0,0.0,0.7476179599761963,-0.4079965353012085
-0.1120179146528244,0.0433544479310512,0.2377150058746338,-0.2245080173015594,-0.0243388265371322,0.3375148475170135,0.0,0.0,0.8416922092437744,-0.2134057283401489
-0.1095861420035362,0.0386005751788616,0.2272662222385406,-0.2111022323369979,-0.0086364615708589,0.3140471577644348,0.0,0.0,0.7738350629806519,-0.2090629339218139
-0.106997013092041,0.0344267711043357,0.2428775578737259,-0.1854912340641021,0.0071939695626497,0.3166088461875915,0.0,0.0,0.567764163017273,-0.6451601386070251
-0.1043611541390419,0.0301968902349472,0.2465173304080963,-0.1881623715162277,0.0240480955690145,0.3370825946331024,0.0,0.0,0.85687255859375,-0.2817422151565552
-0.1015460938215255,0.0266832690685987,0.2640743255615234,-0.156528815627098,0.0412579923868179,0.3441976904869079,0.0,0.0,0.7037179470062256,-0.6964941024780273
-0.0988084822893142,0.0237945653498172,0.2554103434085846,-0.1289897710084915,0.0593980103731155,0.3628006875514984,0.0,0.0,0.3454840183258056,-0.7851253747940063
-0.0960074439644813,0.0213883742690086,0.2604198455810547,-0.1078369244933128,0.0788676738739013,0.3893932998180389,0.0,0.0,0.2166790962219238,-0.680194079875946
-0.0931948646903038,0.0190473422408103,0.260558009147644,-0.1052644997835159,0.0993821695446968,0.4102901518344879,0.0,0.0,0.1540820598602295,-0.0959278345108032
-0.0904081314802169,0.0169825404882431,0.2584497630596161,-0.0932332649827003,0.1194753721356391,0.4018637239933014,0.0,0.0,-0.076307475566864,0.1507662534713745
-0.0875855460762977,0.014343318529427,0.2624587714672088,-0.1190033257007598,0.1391708552837371,0.3939099609851837,0.0,0.0,-0.0134167075157165,-0.275519847869873
-0.0849392861127853,0.0117096044123172,0.2641501426696777,-0.117169976234436,0.1394401937723159,0.0051109222695231,0.0,1.0,0.2742525339126587,-0.0247263312339782
-0.0826903358101844,0.0097569562494754,0.244074136018753,-0.0853150784969329,0.1197579503059387,-0.3944451212882995,0.0,1.0,-0.5744255185127258,-0.6370505094528198
-0.0806840881705284,0.0076353289186954,0.2335549592971801,-0.0919943153858184,0.0870186612010002,-0.6548587679862976,0.0,1.0,0.7019064426422119,-0.8905976414680481
-0.0788994804024696,0.0059856628067791,0.2160495072603225,-0.071571797132492,0.0497640594840049,-0.7451779246330261,0.0,1.0,0.5781660079956055,-0.8777402639389038
-0.0771547332406044,0.0044926740229129,0.2087815701961517,-0.0655634701251983,0.0158789344131946,-0.6777032017707825,0.0,1.0,0.6883034706115723,-0.922516405582428
-0.07533960044384,0.0029794431757181,0.2137573510408401,-0.0672220811247825,-0.0159503929316997,-0.6365872025489807,0.0,0.0,-0.394234299659729,-0.997012495994568
-0.0735547989606857,0.000905952474568,0.2094279825687408,-0.0927633270621299,-0.0465122610330581,-0.6112377047538757,1.0,0.0,0.2654385566711426,-0.9806643724441528
-0.0717507377266883,-0.0002664947533048,0.1970217078924179,-0.0531387962400913,-0.061433345079422,-0.2964815497398376,1.0,0.0,-0.4928779006004333,-0.9569631218910216
-0.0698859244585037,-0.0013870501425117,0.1813983917236328,-0.0496179535984993,-0.0563547722995281,0.1016451865434646,1.0,0.0,-0.2150657773017883,-0.9977803230285645
