x_pos,y_pos,x_vel,y_vel,angle,ang_vel,leg_1,leg_2,main_booster,lat_booster
-0.0015222548972815,1.4031587839126587,-0.1539855450391769,-0.3449440598487854,0.0015793388010933,0.0311399288475513,0.0,0.0,-0.4587262868881225,0.8204442262649536
-0.0029722214676439,1.3949512243270874,-0.144565612077713,-0.3647783100605011,0.0011623125756159,-0.0083404537290334,0.0,0.0,0.2989082336425781,0.6221897602081299
-0.0042540552094578,1.3867498636245728,-0.1265560388565063,-0.364507794380188,-0.0004495638422667,-0.0322406999766826,0.0,0.0,-0.2292524576187133,-0.3215203285217285
-0.0055311201140284,1.3780826330184937,-0.1258707791566848,-0.3852090835571289,-0.0022609482984989,-0.036231193691492,0.0,0.0,-0.5765495896339417,0.5320680141448975
-0.0067513464018702,1.368951439857483,-0.1186912208795547,-0.4058364927768707,-0.0055520408786833,-0.0658281743526458,0.0,0.0,-0.3574434518814087,0.0010155439376831
-0.0079641342163085,1.3593549728393557,-0.1177513152360916,-0.4265307188034057,-0.0090467752888798,-0.0699011534452438,0.0,0.0,0.0251272916793823,0.7304632663726807
-0.0091238021850585,1.349829912185669,-0.1107468158006668,-0.4233722984790802,-0.0142070734873414,-0.1032155379652977,0.0,0.0,-0.148370087146759,0.1866508722305297
-0.0102734565734863,1.3398396968841553,-0.1095349341630935,-0.4440723061561584,-0.0195749755948781,-0.1073680073022842,0.0,0.0,-0.4735389947891235,-0.0646206736564636
-0.0114117618650197,1.3293843269348145,-0.1081834584474563,-0.4647668600082397,-0.0251534227281808,-0.1115792989730835,0.0,0.0,-0.4441598057746887,-0.1466817855834961
-0.0125371934846043,1.318463921546936,-0.1066883653402328,-0.4854626059532165,-0.0309438705444335,-0.1158195585012435,0.0,0.0,0.8129055500030518,-0.267229676246643
-0.0135334972292184,1.3080519437789917,-0.0940240547060966,-0.4628783762454986,-0.0364993922412395,-0.111120581626892,0.0,0.0,-0.6608133316040039,-0.5378146171569824
-0.0145516395568847,1.297175645828247,-0.0969280004501342,-0.4835183024406433,-0.0413291677832603,-0.0966044887900352,0.0,0.0,0.2687721252441406,-0.1516099572181701
-0.0154302595183253,1.2866332530975342,-0.0832456052303314,-0.4686923027038574,-0.0459027551114559,-0.0914802029728889,0.0,0.0,-0.8498321175575256,-0.0719704627990722
-0.0162901878356933,1.275625228881836,-0.0811513513326644,-0.4893952310085296,-0.050694178789854,-0.0958369821310043,0.0,0.0,0.2092080116271972,-0.902992308139801
-0.0170501712709665,1.265061855316162,-0.0728242918848991,-0.4696017801761627,-0.0538428984582424,-0.0629801675677299,0.0,0.0,-0.7524882555007935,-0.657910943031311
-0.0178311355412006,1.2540284395217896,-0.0757679641246795,-0.4904564917087555,-0.0561449006199836,-0.0460439771413803,0.0,0.0,-0.6853837966918945,-0.4305676221847534
-0.0185887329280376,1.2425296306610107,-0.0732034891843795,-0.5111482739448547,-0.0586670897901058,-0.0504485182464122,0.0,0.0,-0.8070736527442932,-0.7503739595413208
-0.0193666461855173,1.230563402175903,-0.0761687010526657,-0.5319050550460815,-0.0602724738419055,-0.0321107283234596,0.0,0.0,-0.646837055683136,-0.6800691485404968
-0.0201625823974609,1.218142032623291,-0.0788995698094368,-0.5520873665809631,-0.0609641335904598,-0.0138343619182705,0.0,0.0,-0.643117368221283,-0.7349848747253418
-0.0209959987550973,1.2052608728408811,-0.0840993672609329,-0.5724628567695618,-0.0602205172181129,0.0148740382865071,0.0,0.0,-0.0832114219665527,-0.4999302625656128
-0.0217996593564748,1.1919143199920654,-0.080894336104393,-0.5931576490402222,-0.059698212891817,0.0104472395032644,0.0,0.0,-0.6086737513542175,-0.1574756503105163
-0.0225718505680561,1.1781022548675537,-0.0775253325700759,-0.6138526201248169,-0.0593959055840969,0.0060465377755463,0.0,0.0,-0.5212061405181885,-0.3343926668167114
-0.0233109481632709,1.1638249158859253,-0.0739935189485549,-0.6345475912094116,-0.0593131966888904,0.0016544174868613,0.0,0.0,-0.5149176716804504,-0.3485551476478576
-0.0240152366459369,1.1490819454193115,-0.0702996104955673,-0.6552426815032959,-0.0594490766525268,-0.002717729890719,0.0,0.0,-0.5256087183952332,-0.7901172041893005
-0.024760341271758,1.133882761001587,-0.0761118829250335,-0.6754568815231323,-0.057858545333147,0.0318134650588035,0.0,0.0,-0.1459231972694397,-0.4710284471511841
-0.0254682544618845,1.118196725845337,-0.0721858441829681,-0.697104275226593,-0.0564843267202377,0.0274844709783792,0.0,0.0,-0.0455609560012817,-0.2245016098022461
-0.0261366851627826,1.1020452976226809,-0.0680159553885459,-0.7177973985671997,-0.0553238913416862,0.0232085306197404,0.0,0.0,-0.3009894490242004,-0.2421572804450988
-0.0267640110105276,1.0854285955429075,-0.0636915117502212,-0.7384903430938721,-0.0543749257922172,0.0189791657030582,0.0,0.0,-0.3552418947219848,-0.4052655696868896
-0.0273487083613872,1.0683462619781494,-0.0592149086296558,-0.7591832876205444,-0.0536347888410091,0.0148028880357742,0.0,0.0,0.0751397609710693,-0.6952524185180664
-0.0279427524656057,1.0512771606445312,-0.0613308548927307,-0.7585679888725281,-0.051732450723648,0.0380468294024467,0.0,0.0,0.2714955806732178,-0.578158974647522
-0.0284870155155658,1.0347273349761963,-0.0573485381901264,-0.7354471683502197,-0.0488501340150833,0.0576464012265205,0.0,0.0,-0.6135962605476379,0.3111534118652344
-0.0289841648191213,1.0177122354507446,-0.0524320602416992,-0.7561406493186951,-0.0461667515337467,0.0536678060889244,0.0,0.0,-0.2458084225654602,0.2989282608032226
-0.0294327735900878,1.0002317428588867,-0.047375202178955,-0.7768339514732361,-0.0436783209443092,0.049768391996622,0.0,0.0,0.1201989650726318,0.3631287813186645
-0.0298639293760061,0.98265540599823,-0.0452285632491111,-0.7811196446418762,-0.0415804907679557,0.0419563129544258,0.0,0.0,0.357903242111206,0.4342361688613891
-0.0302087776362895,0.9653851389884948,-0.0364836901426315,-0.7675096988677979,-0.0396068468689918,0.0394729636609554,0.0,0.0,-0.1869421601295471,0.1895056962966919
-0.0305008888244628,0.9476494789123536,-0.0310269836336374,-0.7882025837898254,-0.0378141663968563,0.0358534827828407,0.0,0.0,-0.4397622346878052,0.4759112596511841
-0.0307389255613088,0.9294483661651612,-0.0254445634782314,-0.8088953495025635,-0.0361970774829387,0.032341793179512,0.0,0.0,-0.0823432803153991,0.569633960723877
-0.0308737754821777,0.9107836484909058,-0.0137198446318507,-0.8295383453369141,-0.0359540320932865,0.0048608714714646,0.0,0.0,0.4611489772796631,-0.6674184203147888
-0.0310159679502248,0.8927828073501587,-0.015569545328617,-0.8000051975250244,-0.0346203856170177,0.0266728810966014,0.0,0.0,0.0775855779647827,0.3473591804504394
-0.031068230047822,0.8749099969863892,-0.0065046353265643,-0.7943223714828491,-0.0333586633205413,0.0252345260232687,0.0,0.0,-0.1444334983825683,0.2351877689361572
-0.0310615543276071,0.8565715551376343,-0.0004597417428158,-0.8150148391723633,-0.0322472192347049,0.0222288090735673,0.0,0.0,-0.3355804681777954,0.7147347927093506
-0.0309267044067382,0.8377627730369568,0.0142342206090688,-0.8359629511833191,-0.0329920649528503,-0.0148967001587152,0.0,0.0,-0.2452614307403564,-0.2457308173179626
-0.0307308193296194,0.8184884786605835,0.0204854030162096,-0.8566551804542542,-0.0338722579181194,-0.0176041163504123,0.0,0.0,0.108826994895935,0.2763341665267944
-0.0303940773010253,0.799277126789093,0.0343838147819042,-0.8538521528244019,-0.0345715768635273,-0.0139864776283502,0.0,0.0,0.2132320404052734,-0.1268834471702575
-0.0300164222717285,0.7799261808395386,0.0387294851243495,-0.8600702881813049,-0.0355279482901096,-0.0191273298114538,0.0,0.0,-0.0177646279335021,-0.2307060360908508
-0.0295746810734272,0.7601096034049988,0.0452585890889167,-0.8807626366615295,-0.0365945510566234,-0.0213318560272455,0.0,0.0,-0.1112334132194519,0.3071187734603882
-0.0290677063167095,0.7398273348808289,0.051872007548809,-0.9014549255371094,-0.037762276828289,-0.0233544390648603,0.0,0.0,0.1564937829971313,-0.4626764059066772
-0.0285513885319232,0.7199591398239136,0.0532773435115814,-0.8830767273902893,-0.0393856428563594,-0.0324670672416687,0.0,0.0,0.3092528581619262,-0.7797695994377136
-0.028123665601015,0.7005789875984192,0.0430720001459121,-0.8613465428352356,-0.039683386683464,-0.0059550232253968,0.0,0.0,0.1946016550064087,0.1704826354980468
-0.027628993615508,0.681285560131073,0.0499168336391449,-0.8575010895729065,-0.0401237942278385,-0.0088081639260053,0.0,0.0,-0.5600988268852234,-0.4970500469207763
-0.0270657539367675,0.6615264415740967,0.056826926767826,-0.878193199634552,-0.0406257100403308,-0.0100385285913944,0.0,0.0,-0.1202543377876281,-0.6395679116249084
-0.0264886859804391,0.6413096189498901,0.0568609535694122,-0.8985074758529663,-0.0397839583456516,0.0168350040912628,0.0,0.0,0.714773416519165,-0.3168578147888183
-0.0257098190486431,0.6213119029998779,0.0765389651060104,-0.8887489438056946,-0.038457378745079,0.0265316627919673,0.0,0.0,0.574600338935852,-0.8137099742889404
-0.0248919483274221,0.6019994616508484,0.0788347348570823,-0.8582631349563599,-0.0355345420539379,0.0584564730525016,0.0,0.0,0.5296621322631836,-0.6504706740379333
-0.0238875392824411,0.582890510559082,0.0958624333143234,-0.8491849899291992,-0.0310178268700838,0.0903344750404357,0.0,0.0,0.4406771659851074,-0.1264320611953735
-0.0228817947208881,0.5639361143112183,0.0963939875364303,-0.842335045337677,-0.0268927942961454,0.0825008079409599,0.0,0.0,0.8059192895889282,-0.6788616180419922
-0.0217226985841989,0.5458267331123352,0.1100961118936538,-0.8047673106193542,-0.0211470518261194,0.114914670586586,0.0,0.0,0.4466408491134643,0.0286386013031005
-0.0203572269529104,0.5281341075897217,0.1301442086696624,-0.7862628102302551,-0.014825340360403,0.1264344006776809,0.0,0.0,-0.3259286880493164,-0.5694990158081055
-0.0189576148986816,0.509983241558075,0.1325185894966125,-0.8066483736038208,-0.0074826325289905,0.1468543410301208,0.0,0.0,0.6060168743133545,-0.4768723249435425
-0.017552375793457,0.4925141036510467,0.1333927661180496,-0.7763873934745789,-0.0004418907919898,0.1408146768808365,0.0,0.0,-0.0771384835243225,-0.5787883996963501
-0.016114616766572,0.4745751917362213,0.135523036122322,-0.7973052859306335,0.0077041732147336,0.1629215627908706,0.0,0.0,0.8926823139190674,-0.0286061763763427
-0.0147230150178074,0.4573755264282226,0.1313754767179489,-0.7644903659820557,0.0153828421607613,0.153573453426361,0.0,0.0,0.5077710151672363,0.3767852783203125
-0.0131507869809865,0.4404215812683105,0.148837000131607,-0.7536153793334961,0.0236586388200521,0.1655158251523971,0.0,0.0,0.636587381362915,0.2741274833679199
-0.0114941596984863,0.4239144325256347,0.1570931375026703,-0.7338108420372009,0.0321297161281108,0.1694215238094329,0.0,0.0,0.6017906665802002,-0.0308850407600402
-0.0097663877531886,0.4075257778167724,0.1640538722276687,-0.7285977602005005,0.0407346226274967,0.1720980107784271,0.0,0.0,0.7254006862640381,0.2796938419342041
-0.0081169130280613,0.3915896415710449,0.156731829047203,-0.7085161209106445,0.0488515421748161,0.1623390167951584,0.0,0.0,0.3625560998916626,0.3030767440795898
-0.0064078331924974,0.376247763633728,0.1624879240989685,-0.6821616291999817,0.0571716055274009,0.1664011776447296,0.0,0.0,0.3735625743865967,0.602698802947998
-0.0045136450789868,0.3608085513114929,0.1819348782300949,-0.6864900588989258,0.064577929675579,0.1481262892484665,0.0,0.0,0.5705723762512207,-0.2064640522003173
-0.0025693892966955,0.346121996641159,0.1866760849952697,-0.6530922055244446,0.0722459107637405,0.1533595472574234,0.0,0.0,0.2746329307556152,-0.1286434531211853
-0.0006470680236816,0.3315091729164123,0.1846741139888763,-0.6498399376869202,0.079731285572052,0.1497072875499725,0.0,0.0,0.5063343048095703,0.1079285144805908
0.0012195587623864,0.3173449039459228,0.1793400347232818,-0.6299343109130859,0.0869927480816841,0.1452293545007705,0.0,0.0,0.6176912784576416,-0.0956292152404785
0.0031404495239257,0.3036304414272308,0.1844406872987747,-0.6099939942359924,0.0945668071508407,0.1514812111854553,0.0,0.0,0.3308396339416504,-0.1049733161926269
0.0049707414582371,0.2904525697231293,0.1756997555494308,-0.5861643552780151,0.1018437072634697,0.1455379128456115,0.0,0.0,0.5125306844711304,0.0002003908157348
0.0068913460709154,0.2776093482971191,0.1842228174209594,-0.5713651180267334,0.1096238642930984,0.1556031703948974,0.0,0.0,0.402682900428772,-0.3833982944488525
0.0088241575285792,0.2647920548915863,0.1853843331336975,-0.570259690284729,0.1174725666642189,0.1569740921258926,0.0,0.0,0.7639654874801636,0.1926262378692627
0.0108654024079442,0.2520400285720825,0.1956794559955597,-0.5674394369125366,0.1258667260408401,0.1678832471370697,0.0,0.0,0.8258976936340332,-0.4517484307289123
0.0129016879945993,0.239375427365303,0.1951388269662857,-0.5636073350906372,0.1343172341585159,0.1690101325511932,0.0,0.0,0.8215728998184204,-0.438927412033081
0.0148885725066065,0.2275447398424148,0.1900053322315216,-0.526608407497406,0.1429508924484253,0.1726733893156051,0.0,0.0,0.7339575290679932,-0.1284127831459045
0.016912842169404,0.2165392488241195,0.1931552439928054,-0.490052580833435,0.152206614613533,0.1851146221160888,0.0,0.0,0.4584556818008423,0.1184127330780029
0.0188060756772756,0.2061168998479843,0.1802737265825271,-0.4641638100147247,0.1612448692321777,0.1807651221752166,0.0,0.0,-0.5151342749595642,0.1661815643310547
0.0207751281559467,0.195230633020401,0.1876273453235626,-0.4848659336566925,0.1705309152603149,0.1857210099697113,0.0,0.0,0.5048390626907349,0.2235869169235229
0.0227336883544921,0.1849543452262878,0.1861765384674072,-0.4578669667243957,0.1802414506673813,0.1942105740308761,0.0,0.0,0.0510306358337402,0.6313493251800537
0.0246793739497661,0.1747482120990753,0.1859725266695022,-0.4546712636947632,0.1888615489006042,0.1724023520946502,0.0,0.0,-0.0970941185951232,0.2064470052719116
0.0266998298466205,0.1640781760215759,0.1931948065757751,-0.4753735363483429,0.1977486759424209,0.1777424961328506,0.0,0.0,0.41629159450531,0.2889161109924316
0.028666591271758,0.153822973370552,0.1876308321952819,-0.4570198655128479,0.2068611979484558,0.1822504699230194,0.0,0.0,-0.0010024905204772,-0.0144060850143432
0.0307069774717092,0.1431040912866592,0.1947420388460159,-0.4777234494686126,0.2162521183490753,0.187818244099617,0.0,0.0,0.8450238704681396,-0.2950935363769531
0.0327644348144531,0.132490187883377,0.1960529237985611,-0.4731757044792175,0.2260491400957107,0.1959406584501266,0.0,0.0,0.8410848379135132,0.2189791202545166
0.0348943695425987,0.122103676199913,0.2025792300701141,-0.4632565081119537,0.2366131395101547,0.2112798988819122,0.0,0.0,0.8902841806411743,-0.3278472423553467
0.0371065139770507,0.1122659742832183,0.2097678482532501,-0.4391118884086609,0.2482493966817855,0.2327251881361007,0.0,0.0,0.929067611694336,-0.014176607131958
0.0394340530037879,0.1026952862739563,0.220316931605339,-0.4275206327438354,0.260936826467514,0.2537483870983124,0.0,0.0,0.8833510875701904,0.0871649980545044
0.0416043289005756,0.0939007848501205,0.2043674886226654,-0.3931767046451568,0.2738970220088959,0.2592030763626098,0.0,0.0,0.7898679971694946,-0.309308648109436
0.0436535850167274,0.0858443602919578,0.191860482096672,-0.3605688214302063,0.2873191833496094,0.2684430480003357,0.0,0.0,0.5920751094818115,-0.3927841186523437
0.0457036979496479,0.0783016979694366,0.1911573708057403,-0.3380233347415924,0.3016074895858764,0.2857664227485657,0.0,0.0,0.2543096542358398,-0.2564928531646728
0.0478200912475585,0.0706865191459655,0.1971974372863769,-0.3415176570415497,0.3165649175643921,0.2991494238376617,0.0,0.0,0.687369704246521,0.3291372060775757
0.0497892387211322,0.063326321542263,0.1824630498886108,-0.3303467333316803,0.3315928876399994,0.3005596399307251,0.0,0.0,0.8576107025146484,0.4654275178909302
0.0515966415405273,0.0569272860884666,0.1656513959169387,-0.2879467308521271,0.3473834991455078,0.3158130645751953,0.0,0.0,0.3907936811447143,0.4291427135467529
0.0532853119075298,0.0507330261170864,0.1536394655704498,-0.2790593802928924,0.3634093403816223,0.3205170631408691,0.0,0.0,0.7325198650360107,-0.3487827777862549
0.0546168312430381,0.0451779216527938,0.1182760223746299,-0.2507461011409759,0.3791610300540924,0.3150338530540466,0.0,0.0,0.6464898586273193,0.3540859222412109
0.0558313354849815,0.04017935693264,0.1059754118323326,-0.2263558059930801,0.3956467509269714,0.3297147154808044,0.0,1.0,0.997006893157959,0.9993184804916382
0.05670852586627,0.0369016267359256,0.0859849005937576,-0.1465396583080291,0.3963065147399902,0.0114132771268486,0.0,1.0,0.9671688079833984,0.9986116886138916
0.0571149811148643,0.0352843627333641,0.0583712756633758,-0.0670794397592544,0.3773478865623474,-0.3792616724967956,0.0,1.0,0.9126566648483276,0.8900303840637207
0.0572875961661338,0.0346145257353782,0.0477021858096122,-0.0220628269016742,0.3451821804046631,-0.6433455348014832,0.0,1.0,0.5406513214111328,0.4914672374725342
0.0571506507694721,0.0343520976603031,0.019990961998701,-0.0039792312309145,0.3100325167179107,-0.7029973268508911,0.0,1.0,0.1887003183364868,0.340823769569397
0.0568360313773155,0.0340911000967025,0.0010798445437103,-0.0050053866580128,0.2764548063278198,-0.6715536117553711,0.0,1.0,-0.3053854703903198,0.3947087526321411
0.0565186515450477,0.0333789922297,0.0011215398553758,-0.0257882829755544,0.2428797036409378,-0.6715025901794434,0.0,0.0,-0.9986711740493774,0.2652466297149658
0.0562580116093158,0.0322168432176113,0.0067394049838185,-0.0465789251029491,0.2096414417028427,-0.6647659540176392,0.0,0.0,-0.9941357970237732,-0.2403227090835571
0.0560527816414833,0.030604301020503,0.0121764559298753,-0.067367635667324,0.1767427027225494,-0.6579755544662476,0.0,0.0,-0.9876843690872192,-0.2934699058532715
0.0559015274047851,0.0285409316420555,0.017421904951334,-0.0881542786955833,0.1441861391067505,-0.6511316299438477,0.0,0.0,-0.943052053451538,-0.4787918329238891
0.0558025352656841,0.0260265208780765,0.0224646050482988,-0.1089387163519859,0.1119744405150413,-0.6442346572875977,0.0,0.0,-0.5865976214408875,-0.8700606822967529
0.0556943900883197,0.0230499133467674,0.0197932422161102,-0.130279928445816,0.0816263407468795,-0.6069624423980713,0.0,0.0,0.3783918619155884,-0.9756413102149964
0.055495262145996,0.0206372123211622,0.0084458040073513,-0.1059217303991317,0.0535632334649562,-0.5612624883651733,0.0,0.0,0.043119192123413,-0.7017915844917297
0.055304430425167,0.0185189824551343,0.0075133740901947,-0.0933984518051147,0.0272833127528429,-0.5255986452102661,0.0,0.0,0.3097656965255737,-0.8100095391273499
0.0551566109061241,0.0164852235466241,0.0097643481567502,-0.0901229754090309,0.0030487196054309,-0.4846919476985931,0.0,0.0,0.1342594623565673,-0.9216089844703674
0.054877758026123,0.0146304937079548,-0.0055269552394747,-0.0825342237949371,-0.0190121326595544,-0.4412173628807068,0.0,0.0,0.0839476585388183,-0.865181565284729
0.0544777885079383,0.0128249740228056,-0.0197549108415842,-0.0806231647729873,-0.0390153713524341,-0.4000648856163025,0.0,0.0,0.2585822343826294,-0.8144326210021973
0.0540479645133018,0.0112065644934773,-0.024719001725316,-0.0725029557943344,-0.0570544749498367,-0.3607818484306335,0.0,0.0,0.2820284366607666,-0.7241814136505127
0.0536410324275493,0.0097477296367287,-0.0243179947137832,-0.0655402839183807,-0.073257066309452,-0.3240519762039184,0.0,0.0,0.0287767648696899,-0.6590442657470703
0.0533212646842002,0.008150634355843,-0.0174004323780536,-0.0717594549059867,-0.0876902639865875,-0.2886638045310974,0.0,0.0,0.3394515514373779,-0.4230665564537048
0.0532450675964355,0.0076174829155206,-0.0118380691856145,-0.0235257986932992,-0.0832880437374115,0.0883455723524093,1.0,0.0,-0.6965915560722351,0.0583776235580444
0.0531794540584087,0.0067361807450652,-0.013305477797985,-0.0390129312872886,-0.0759951770305633,0.1466659009456634,1.0,0.0,-0.7090736627578735,0.2334229946136474
0.0531458854675293,0.0055588698014616,-0.015371655113995,-0.0517683178186416,-0.0640655234456062,0.2386348694562912,1.0,0.0,-0.6522635221481323,0.4450101852416992
